Data from test_V78500241_2900.txt Node
Date: Fri Mar 25 14:53:54 CST 2022
User: usil
Spectrometer: V785-0024
Trigger mode: 0
Integration Time (sec): 4.000000E-1
Scans to average: 1
Nonlinearity correction enabled: false
Boxcar width: 0
Storing dark spectrum: false
XAxis mode: Wavelengths
Number of Pixels in Spectrum: 1024
>>>>>Begin Spectral Data<<<<<
801.071	22086
801.214	22006
801.356	21819
801.499	21603
801.641	21500
801.783	21401
801.926	21564
802.068	21386
802.211	21218
802.353	21100
802.496	21157
802.638	20990
802.78	20994
802.923	20876
803.065	20765
803.208	20724
803.35	20834
803.492	20796
803.635	20956
803.777	20750
803.919	20929
804.061	21154
804.204	20811
804.346	20686
804.488	20640
804.63	20804
804.773	20667
804.915	20724
805.057	20765
805.199	20682
805.341	20743
805.483	20785
805.626	20716
805.768	20564
805.91	20674
806.052	20750
806.194	20609
806.336	20739
806.478	20560
806.62	20583
806.762	20693
806.904	20933
807.046	21123
807.188	21066
807.33	20971
807.472	20994
807.614	21077
807.756	20967
807.898	20811
808.04	20815
808.182	20823
808.324	20834
808.465	20876
808.607	21001
808.749	21085
808.891	21161
809.033	21176
809.174	21138
809.316	21074
809.458	21032
809.6	20857
809.741	21188
809.883	21093
810.025	21112
810.166	21199
810.308	21268
810.45	21176
810.591	21089
810.733	20921
810.875	20918
811.016	20773
811.158	20720
811.299	20944
811.441	21009
811.582	20910
811.724	20842
811.865	20849
812.007	20754
812.148	20682
812.29	20872
812.431	20963
812.573	21077
812.714	21222
812.855	21256
812.997	21447
813.138	21652
813.279	21382
813.421	21340
813.562	21268
813.703	21245
813.845	20914
813.986	20689
814.127	20518
814.268	20526
814.41	20396
814.551	20343
814.692	20499
814.833	20183
814.974	20355
815.115	20370
815.256	20290
815.397	20237
815.539	20271
815.68	20107
815.821	19974
815.962	20065
816.103	20046
816.244	20081
816.385	19868
816.526	19799
816.666	19723
816.807	19559
816.948	19609
817.089	19613
817.23	19582
817.371	19537
817.512	19609
817.653	19525
817.793	19559
817.934	19643
818.075	19483
818.216	19415
818.356	19472
818.497	19285
818.638	19156
818.778	19164
818.919	19324
819.06	19221
819.2	19270
819.341	19327
819.481	19407
819.622	19544
819.762	19677
819.903	19597
820.043	19396
820.184	19396
820.324	19449
820.465	19502
820.605	19502
820.746	19449
820.886	19335
821.026	19400
821.167	19407
821.307	19487
821.447	19472
821.588	19339
821.728	19194
821.868	19057
822.008	18886
822.149	18844
822.289	18920
822.429	18589
822.569	18578
822.709	18494
822.849	18429
822.99	18448
823.13	18380
823.27	18361
823.41	18262
823.55	18106
823.69	18254
823.83	18114
823.97	18106
824.11	17904
824.25	17927
824.389	17992
824.529	17920
824.669	18015
824.809	18038
824.949	17992
825.089	18030
825.228	17996
825.368	17790
825.508	17710
825.648	17794
825.787	17767
825.927	17741
826.067	17741
826.206	17657
826.346	17707
826.485	17668
826.625	17668
826.765	17817
826.904	17794
827.044	17505
827.183	17436
827.323	17410
827.462	17459
827.601	17471
827.741	17433
827.88	17414
828.02	17417
828.159	17334
828.298	17448
828.437	17497
828.577	17250
828.716	17627
828.855	17376
828.994	17254
829.134	17060
829.273	17140
829.412	17254
829.551	17037
829.69	17121
829.829	17208
829.968	17231
830.107	17242
830.246	17212
830.385	17235
830.524	16995
830.663	16942
830.802	16927
830.941	16736
831.08	16831
831.219	16847
831.357	16839
831.496	16889
831.635	16679
831.774	16675
831.913	16649
832.051	16508
832.19	16550
832.329	16641
832.467	16470
832.606	16428
832.744	16493
832.883	16508
833.022	16436
833.16	16447
833.299	16508
833.437	16459
833.576	16558
833.714	16519
833.852	16561
833.991	16512
834.129	16550
834.267	16550
834.406	16474
834.544	16546
834.682	16558
834.821	16428
834.959	16683
835.097	16531
835.235	16664
835.373	16546
835.511	16577
835.65	16398
835.788	16303
835.926	16257
836.064	16242
836.202	16234
836.34	16447
836.478	16599
836.615	16470
836.753	16409
836.891	16462
837.029	16409
837.167	16436
837.305	16272
837.443	16322
837.58	16246
837.718	16447
837.856	16215
837.993	16207
838.131	16246
838.269	16154
838.406	16150
838.544	16166
838.681	16044
838.819	15907
838.956	15831
839.094	15823
839.231	15937
839.369	16021
839.506	16207
839.643	16112
839.781	15846
839.918	15709
840.055	15911
840.193	15831
840.33	15759
840.467	15789
840.604	15842
840.742	16097
840.879	15679
841.016	15755
841.153	15728
841.29	15994
841.427	15835
841.564	15785
841.701	15838
841.838	15766
841.975	15755
842.112	15751
842.249	15648
842.385	15603
842.522	15770
842.659	15614
842.796	15572
842.933	15606
843.069	15538
843.206	15553
843.343	15713
843.479	15622
843.616	15568
843.752	15401
843.889	15393
844.025	15542
844.162	15473
844.298	15553
844.435	15431
844.571	15401
844.708	15412
844.844	15553
844.98	15515
845.117	15473
845.253	15291
845.389	15260
845.525	15298
845.661	15279
845.798	15211
845.934	15268
846.07	15222
846.206	15199
846.342	15302
846.478	15180
846.614	14975
846.75	14986
846.886	14925
847.022	15028
847.158	14971
847.294	15058
847.429	14986
847.565	14918
847.701	15176
847.837	14792
847.972	14693
848.108	14834
848.244	14746
848.379	14602
848.515	14526
848.65	14602
848.786	14587
848.921	14590
849.057	14708
849.192	14636
849.328	14575
849.463	14575
849.598	14503
849.734	14571
849.869	14355
850.004	14434
850.14	14465
850.275	14278
850.41	14244
850.545	14286
850.68	14336
850.815	14358
850.95	14332
851.085	14431
851.22	14465
851.355	14324
851.49	14256
851.625	14214
851.76	14309
851.895	14180
852.03	14145
852.165	14336
852.299	14385
852.434	14419
852.569	14298
852.703	14336
852.838	14343
852.973	14537
853.107	14488
853.242	14301
853.376	14244
853.511	14103
853.645	14130
853.78	14275
853.914	14145
854.048	14138
854.183	14218
854.317	14267
854.451	14358
854.585	14301
854.72	14058
854.854	14240
854.988	14210
855.122	14096
855.256	14008
855.39	14202
855.524	14305
855.658	14123
855.792	14240
855.926	14206
856.06	14237
856.194	14301
856.327	14263
856.461	14180
856.595	14237
856.729	14088
856.862	14282
856.996	14278
857.13	14328
857.263	14343
857.397	14332
857.53	14164
857.664	14259
857.797	14434
857.931	14259
858.064	14244
858.197	14259
858.331	14313
858.464	14142
858.597	14024
858.731	14191
858.864	14221
858.997	14183
859.13	14195
859.263	14202
859.396	14233
859.529	14176
859.662	14259
859.795	14142
859.928	14199
860.061	14381
860.194	14427
860.327	14210
860.46	14180
860.592	14324
860.725	14301
860.858	14389
860.99	14092
861.123	14084
861.256	14164
861.388	14237
861.521	14758
861.653	14126
861.786	14016
861.918	14001
862.05	14115
862.183	14142
862.315	14180
862.447	14199
862.58	14221
862.712	13978
862.844	13944
862.976	14096
863.108	13902
863.24	14317
863.372	14016
863.504	13997
863.636	13970
863.768	14012
863.9	14081
864.032	13982
864.164	13909
864.296	14039
864.428	14176
864.559	14111
864.691	13955
864.823	14103
864.954	14046
865.086	14035
865.217	13906
865.349	13951
865.48	13959
865.612	14012
865.743	14153
865.875	13959
866.006	13890
866.137	13963
866.269	13959
866.4	13879
866.531	13974
866.662	13833
866.793	13864
866.924	13864
867.055	13959
867.186	14096
867.317	13906
867.448	13906
867.579	13986
867.71	13814
867.841	13830
867.972	13944
868.103	13989
868.233	14016
868.364	14065
868.495	14058
868.625	14123
868.756	14294
868.886	14164
869.017	14176
869.147	14324
869.278	14290
869.408	14233
869.539	14240
869.669	14305
869.799	14221
869.929	14324
870.06	14294
870.19	14499
870.32	14492
870.45	14571
870.58	14663
870.71	14697
870.84	14777
870.97	14640
871.1	14617
871.23	14708
871.36	14815
871.489	14739
871.619	14743
871.749	14792
871.879	14861
872.008	15024
872.138	14743
872.267	14899
872.397	14693
872.526	14705
872.656	14674
872.785	14579
872.915	14796
873.044	15017
873.173	14807
873.303	14853
873.432	14944
873.561	14925
873.69	14857
873.819	14727
873.948	14971
874.077	14975
874.206	14845
874.335	14857
874.464	15119
874.593	15195
874.722	15051
874.851	15249
874.979	15161
875.108	15241
875.237	15097
875.365	15150
875.494	15116
875.623	15211
875.751	15127
875.88	15332
876.008	15302
876.136	15386
876.265	15580
876.393	15690
876.521	15660
876.65	15663
876.778	15545
876.906	15538
877.034	15477
877.162	15572
877.29	15492
877.418	15561
877.546	15553
877.674	15557
877.802	15496
877.93	15595
878.058	15519
878.185	15424
878.313	15561
878.441	15603
878.568	15401
878.696	15469
878.824	15591
878.951	15656
879.079	15660
879.206	15793
879.333	15698
879.461	15553
879.588	15701
879.715	15778
879.842	15903
879.97	15679
880.097	15515
880.224	15428
880.351	15454
880.478	15492
880.605	15363
880.732	15454
880.859	15701
880.986	15469
881.112	15526
881.239	15374
881.366	15237
881.493	15142
881.619	15097
881.746	15074
881.872	15013
881.999	15047
882.125	15043
882.252	15119
882.378	15150
882.505	15302
882.631	14986
882.757	14925
882.883	14971
883.01	14941
883.136	14788
883.262	14815
883.388	14746
883.514	14971
883.64	14994
883.766	14880
883.892	14697
884.018	14674
884.143	14952
884.269	14982
884.395	14670
884.52	14674
884.646	14686
884.772	14492
884.897	14526
885.023	14606
885.148	14765
885.274	14758
885.399	14746
885.524	14583
885.65	14670
885.775	14651
885.9	14667
886.025	14735
886.15	14697
886.275	14625
886.4	14537
886.525	14712
886.65	14560
886.775	14454
886.9	14792
887.025	14880
887.149	14640
887.274	14427
887.399	14396
887.523	14366
887.648	14381
887.773	14370
887.897	14457
888.021	14533
888.146	14427
888.27	14526
888.395	14549
888.519	14469
888.643	14568
888.767	14590
888.891	14400
889.015	14339
889.139	14377
889.263	14309
889.387	14301
889.511	14533
889.635	14446
889.759	14328
889.883	14244
890.006	14362
890.13	14454
890.254	14275
890.377	14286
890.501	14119
890.624	14115
890.748	14187
890.871	14062
890.995	13944
891.118	13959
891.241	14096
891.364	14100
891.488	14073
891.611	13967
891.734	14035
891.857	14244
891.98	14008
892.103	14077
892.226	14103
892.349	14039
892.471	13852
892.594	13989
892.717	14046
892.839	13978
892.962	14001
893.085	14130
893.207	14020
893.33	13906
893.452	13894
893.575	14012
893.697	14069
893.819	14088
893.941	14168
894.064	14153
894.186	13986
894.308	13997
894.43	14145
894.552	14298
894.674	14168
894.796	14027
894.918	14008
895.04	14107
895.161	14081
895.283	14084
895.405	14069
895.526	14237
895.648	14149
895.769	14172
895.891	14206
896.012	14210
896.134	14252
896.255	14164
896.376	14126
896.498	14183
896.619	14214
896.74	14313
896.861	14259
896.982	14545
897.103	14777
897.224	14545
897.345	14507
897.466	14347
897.587	14507
897.708	14613
897.828	14530
897.949	14400
898.07	14362
898.19	14457
898.311	14602
898.431	14587
898.552	14583
898.672	14667
898.792	14655
898.913	14526
899.033	14431
899.153	14355
899.273	14370
899.393	14385
899.513	14393
899.633	14518
899.753	14454
899.873	14351
899.993	14484
900.113	14423
900.232	14427
900.352	14393
900.472	14305
900.591	14153
900.711	14214
900.83	14229
900.95	14358
901.069	14442
901.189	14157
901.308	14115
901.427	13951
901.546	13932
901.665	13959
901.784	13989
901.904	13845
902.023	13761
902.141	13575
902.26	13590
902.379	13533
902.498	13472
902.617	13457
902.735	13537
902.854	13415
902.973	13529
903.091	13297
903.21	13320
903.328	13202
903.446	13202
903.565	13110
903.683	13137
903.801	12993
903.919	13160
904.038	13038
904.156	12882
904.274	13004
904.392	12947
904.51	12867
904.627	12951
904.745	12878
904.863	12875
904.981	12642
905.098	12627
905.216	12551
905.334	12601
905.451	12627
905.569	12582
905.686	12555
905.803	12703
905.921	12445
906.038	12506
906.155	12330
906.272	12365
906.389	12357
906.506	12125
906.623	12243
906.74	12095
906.857	12087
906.974	12083
907.091	12197
907.208	12304
907.324	12178
907.441	12136
907.557	11885
907.674	11999
907.79	11904
907.907	11847
908.023	11969
908.139	11935
908.256	11859
908.372	11870
908.488	11790
908.604	11668
908.72	11570
908.836	11642
908.952	11707
909.068	11657
909.184	11764
909.3	11764
909.415	11726
909.531	11691
909.647	11452
909.762	11585
909.878	11425
909.993	11509
910.108	11410
910.224	11379
910.339	11505
910.454	11402
910.57	11322
910.685	11284
910.8	11589
910.915	11421
911.03	11414
911.145	11151
911.259	11204
911.374	11231
911.489	11086
911.604	11071
911.718	10961
911.833	10968
911.947	10782
912.062	10767
912.176	10984
912.291	10908
912.405	10896
912.519	11060
912.633	11132
912.748	10957
912.862	10869
912.976	10752
913.09	10694
913.204	10801
913.318	10790
913.431	10873
913.545	10862
913.659	10892
913.772	10778
913.886	10759
914	10649
914.113	10877
914.226	10866
914.34	10778
914.453	10554
914.566	10835
914.68	10607
914.793	10653
914.906	10424
915.019	10390
915.132	10280
915.245	10508
915.358	10451
915.47	10443
915.583	10497
915.696	10489
915.809	10504
915.921	10649
916.034	10489
916.146	10390
916.259	10348
916.371	10459
916.483	10440
916.595	10409
916.708	10421
916.82	10356
916.932	10409
917.044	10299
917.156	10360
917.268	10234
917.38	10329
917.491	10177
917.603	10276
917.715	10398
917.826	10402
917.938	10280
918.049	10242
918.161	10272
918.272	10474
918.384	10386
918.495	10261
918.606	10074
918.717	10082
918.828	10143
918.939	10219
919.05	10051
919.161	10131
919.272	9964
919.383	10074
919.494	10207
919.604	10363
919.715	10131
919.826	10029
919.936	10093
920.047	10265
920.157	10181
920.267	10352
920.378	10173
920.488	10215
920.598	10341
920.708	10481
920.818	10329
920.928	10371
921.038	10512
921.148	10565
921.258	10177
921.368	10177
921.477	10074
921.587	10010
921.697	9915
921.806	10059
921.916	9892
922.025	9755
922.134	9671
922.244	9682
922.353	9804
922.462	9629
922.571	9553
922.68	9428
922.789	9389
922.898	9447
923.007	9310
923.116	9485
923.224	9386
923.333	9416
923.442	9310
923.55	9264
923.659	9317
923.767	9325
923.876	9283
923.984	9389
924.092	9268
924.201	9310
924.309	9268
924.417	9310
924.525	9188
924.633	9222
924.741	10215
924.849	9089
924.956	9310
925.064	9062
925.172	9017
925.279	9062
925.387	9127
925.494	9116
925.602	9203
925.709	9180
925.816	8956
925.924	9135
926.031	9154
926.138	8979
926.245	9085
926.352	9017
926.459	9138
926.566	9226
926.673	9020
926.779	8952
926.886	8960
926.993	8925
927.099	8815
927.206	8754
927.312	8682
927.419	8834
927.525	8785
927.631	8853
927.737	8724
927.843	8674
927.95	8606
928.056	8716
928.162	8727
928.267	8712
928.373	9386
928.479	8864
928.585	8590
928.69	8720
928.796	8689
928.901	8571
929.007	8587
929.112	8587
929.218	8610
929.323	8533
929.428	8537
929.533	8598
929.638	8473
929.743	8476
929.848	8469
929.953	8476
930.058	8404
930.163	8305
930.267	8267
930.372	8492
930.477	8259
930.581	8568
930.685	8301
930.79	8218
930.894	8286
930.998	8206
931.103	8332
931.207	8115
931.311	8043
931.415	7932
931.519	7757
931.623	7693
