Data from test_V78500241_2784.txt Node
Date: Fri Mar 25 14:53:05 CST 2022
User: usil
Spectrometer: V785-0024
Trigger mode: 0
Integration Time (sec): 4.000000E-1
Scans to average: 1
Nonlinearity correction enabled: false
Boxcar width: 0
Storing dark spectrum: false
XAxis mode: Wavelengths
Number of Pixels in Spectrum: 1024
>>>>>Begin Spectral Data<<<<<
801.071	22051
801.214	21930
801.356	21663
801.499	21652
801.641	21405
801.783	21340
801.926	21629
802.068	21348
802.211	21245
802.353	21218
802.496	21055
802.638	20971
802.78	20929
802.923	20876
803.065	20735
803.208	20644
803.35	20785
803.492	20868
803.635	20963
803.777	20777
803.919	20815
804.061	21062
804.204	20849
804.346	20560
804.488	20746
804.63	20739
804.773	20568
804.915	20579
805.057	20720
805.199	20655
805.341	20720
805.483	20731
805.626	20746
805.768	20571
805.91	20701
806.052	20659
806.194	20621
806.336	20781
806.478	20621
806.62	20663
806.762	20655
806.904	20933
807.046	21017
807.188	21032
807.33	20944
807.472	21161
807.614	20872
807.756	20842
807.898	20781
808.04	20712
808.182	20629
808.324	20689
808.465	20948
808.607	20944
808.749	20998
808.891	21089
809.033	21211
809.174	21138
809.316	21020
809.458	21081
809.6	21058
809.741	21112
809.883	21104
810.025	21161
810.166	21146
810.308	21062
810.45	21116
810.591	20975
810.733	20842
810.875	20842
811.016	20762
811.158	20712
811.299	20762
811.441	20834
811.582	20853
811.724	20800
811.865	20731
812.007	20750
812.148	20864
812.29	20773
812.431	20861
812.573	21146
812.714	21123
812.855	21302
812.997	21389
813.138	21641
813.279	21321
813.421	21252
813.562	21230
813.703	21028
813.845	20956
813.986	20587
814.127	20446
814.268	20473
814.41	20336
814.551	20161
814.692	20408
814.833	20339
814.974	20313
815.115	20336
815.256	20176
815.397	20240
815.539	20282
815.68	20103
815.821	20020
815.962	20035
816.103	20062
816.244	19890
816.385	19841
816.526	19769
816.666	19559
816.807	19419
816.948	19559
817.089	19639
817.23	19544
817.371	19449
817.512	19415
817.653	19495
817.793	19377
817.934	19521
818.075	19502
818.216	19464
818.356	19434
818.497	19278
818.638	19179
818.778	19160
818.919	19152
819.06	19164
819.2	19343
819.341	19407
819.481	19407
819.622	19487
819.762	19594
819.903	19548
820.043	19415
820.184	19415
820.324	19411
820.465	19544
820.605	19400
820.746	19369
820.886	19289
821.026	19225
821.167	19335
821.307	19449
821.447	19316
821.588	19320
821.728	19156
821.868	19095
822.008	18932
822.149	18791
822.289	18894
822.429	18536
822.569	18589
822.709	18578
822.849	18330
822.99	18342
823.13	18277
823.27	18300
823.41	18072
823.55	18190
823.69	18121
823.83	18129
823.97	17988
824.11	17927
824.25	17870
824.389	17904
824.529	17973
824.669	17935
824.809	18072
824.949	17977
825.089	17977
825.228	17977
825.368	17790
825.508	17745
825.648	17733
825.787	17726
825.927	17764
826.067	17714
826.206	17687
826.346	17680
826.485	17680
826.625	17668
826.765	17889
826.904	17771
827.044	17619
827.183	17581
827.323	17406
827.462	17425
827.601	17406
827.741	17395
827.88	17459
828.02	17273
828.159	17349
828.298	17391
828.437	17535
828.577	17330
828.716	17493
828.855	17425
828.994	17071
829.134	17162
829.273	17254
829.412	17162
829.551	17105
829.69	17174
829.829	17121
829.968	17292
830.107	17246
830.246	17045
830.385	17178
830.524	17117
830.663	16949
830.802	16847
830.941	16797
831.08	16793
831.219	16858
831.357	16809
831.496	16946
831.635	16812
831.774	16713
831.913	16668
832.051	16626
832.19	16577
832.329	16675
832.467	16546
832.606	16474
832.744	16546
832.883	16538
833.022	16489
833.16	16546
833.299	16497
833.437	16523
833.576	16538
833.714	16569
833.852	16626
833.991	16485
834.129	16607
834.267	16645
834.406	16542
834.544	16588
834.682	16577
834.821	16462
834.959	16687
835.097	16504
835.235	16740
835.373	16630
835.511	16470
835.65	16466
835.788	16485
835.926	16424
836.064	16314
836.202	16192
836.34	16436
836.478	16611
836.615	16455
836.753	16474
836.891	16531
837.029	16512
837.167	16432
837.305	16344
837.443	16432
837.58	16299
837.718	16443
837.856	16428
837.993	16272
838.131	16348
838.269	16352
838.406	16306
838.544	16185
838.681	16147
838.819	16002
838.956	15930
839.094	15869
839.231	15869
839.369	16021
839.506	16333
839.643	16139
839.781	15827
839.918	15903
840.055	15911
840.193	15831
840.33	15827
840.467	15911
840.604	15899
840.742	16124
840.879	15652
841.016	15736
841.153	15816
841.29	15918
841.427	15880
841.564	15922
841.701	15979
841.838	15899
841.975	15812
842.112	15770
842.249	15667
842.385	15633
842.522	15797
842.659	15751
842.796	15667
842.933	15690
843.069	15564
843.206	15679
843.343	15667
843.479	15698
843.616	15561
843.752	15481
843.889	15408
844.025	15591
844.162	15374
844.298	15549
844.435	15389
844.571	15382
844.708	15511
844.844	15637
844.98	15625
845.117	15614
845.253	15462
845.389	15332
845.525	15363
845.661	15363
845.798	15272
845.934	15317
846.07	15226
846.206	15325
846.342	15294
846.478	15116
846.614	15070
846.75	15055
846.886	15032
847.022	15024
847.158	15100
847.294	15028
847.429	15024
847.565	14998
847.701	15283
847.837	14689
847.972	14731
848.108	14773
848.244	14739
848.379	14686
848.515	14598
848.65	14644
848.786	14602
848.921	14640
849.057	14670
849.192	14750
849.328	14560
849.463	14610
849.598	14552
849.734	14556
849.869	14419
850.004	14400
850.14	14381
850.275	14473
850.41	14377
850.545	14294
850.68	14381
850.815	14362
850.95	14351
851.085	14495
851.22	14484
851.355	14389
851.49	14320
851.625	14278
851.76	14355
851.895	14206
852.03	14271
852.165	14309
852.299	14393
852.434	14374
852.569	14358
852.703	14294
852.838	14351
852.973	14526
853.107	14594
853.242	14396
853.376	14305
853.511	14043
853.645	14130
853.78	14385
853.914	14278
854.048	14199
854.183	14210
854.317	14225
854.451	14358
854.585	14259
854.72	14202
854.854	14244
854.988	14164
855.122	14191
855.256	14130
855.39	14214
855.524	14214
855.658	14278
855.792	14305
855.926	14263
856.06	14248
856.194	14370
856.327	14210
856.461	14195
856.595	14153
856.729	14191
856.862	14317
856.996	14248
857.13	14256
857.263	14362
857.397	14328
857.53	14278
857.664	14320
857.797	14355
857.931	14214
858.064	14305
858.197	14320
858.331	14172
858.464	14176
858.597	14092
858.731	14271
858.864	14248
858.997	14286
859.13	14332
859.263	14278
859.396	14381
859.529	14237
859.662	14237
859.795	14237
859.928	14313
860.061	14370
860.194	14412
860.327	14259
860.46	14244
860.592	14355
860.725	14324
860.858	14457
860.99	14244
861.123	14237
861.256	14161
861.388	14286
861.521	14956
861.653	14092
861.786	14035
861.918	14195
862.05	14180
862.183	14218
862.315	14305
862.447	14263
862.58	14282
862.712	14012
862.844	13967
862.976	14096
863.108	14088
863.24	14396
863.372	13967
863.504	14050
863.636	14024
863.768	13997
863.9	14081
864.032	13936
864.164	13955
864.296	14073
864.428	14138
864.559	14138
864.691	14123
864.823	14138
864.954	14039
865.086	13997
865.217	13997
865.349	13993
865.48	14016
865.612	13978
865.743	14233
865.875	14096
866.006	14024
866.137	14024
866.269	13974
866.4	13993
866.531	13997
866.662	13925
866.793	13940
866.924	13906
867.055	14031
867.186	13967
867.317	13963
867.448	13841
867.579	13887
867.71	13986
867.841	13959
867.972	13963
868.103	13947
868.233	13978
868.364	14065
868.495	14058
868.625	14252
868.756	14278
868.886	14199
869.017	14252
869.147	14381
869.278	14393
869.408	14282
869.539	14328
869.669	14259
869.799	14259
869.929	14415
870.06	14389
870.19	14575
870.32	14473
870.45	14541
870.58	14689
870.71	14838
870.84	14834
870.97	14610
871.1	14636
871.23	14902
871.36	14929
871.489	14724
871.619	14826
871.749	14792
871.879	14887
872.008	14948
872.138	14861
872.267	14963
872.397	14693
872.526	14712
872.656	14610
872.785	14727
872.915	14921
873.044	14990
873.173	14944
873.303	14880
873.432	14960
873.561	14895
873.69	14918
873.819	14963
873.948	15024
874.077	15009
874.206	14792
874.335	14979
874.464	15169
874.593	15211
874.722	15173
874.851	15214
874.979	15116
875.108	15260
875.237	15226
875.365	15146
875.494	15192
875.623	15325
875.751	15237
875.88	15313
876.008	15332
876.136	15466
876.265	15557
876.393	15724
876.521	15739
876.65	15671
876.778	15701
876.906	15599
877.034	15595
877.162	15568
877.29	15549
877.418	15603
877.546	15739
877.674	15587
877.802	15663
877.93	15663
878.058	15637
878.185	15473
878.313	15599
878.441	15652
878.568	15466
878.696	15622
878.824	15732
878.951	15747
879.079	15804
879.206	15892
879.333	15793
879.461	15603
879.588	15686
879.715	15713
879.842	15911
879.97	15686
880.097	15458
880.224	15504
880.351	15530
880.478	15492
880.605	15504
880.732	15469
880.859	15641
880.986	15428
881.112	15572
881.239	15405
881.366	15287
881.493	15302
881.619	15039
881.746	15180
881.872	15093
881.999	15135
882.125	15119
882.252	15188
882.378	15203
882.505	15351
882.631	15161
882.757	14944
882.883	15028
883.01	14925
883.136	14895
883.262	14823
883.388	14876
883.514	14967
883.64	14990
883.766	14834
883.892	14708
884.018	14716
884.143	15005
884.269	14998
884.395	14667
884.52	14750
884.646	14629
884.772	14625
884.897	14617
885.023	14659
885.148	14792
885.274	14815
885.399	14746
885.524	14613
885.65	14727
885.775	14686
885.9	14708
886.025	14769
886.15	14731
886.275	14594
886.4	14564
886.525	14598
886.65	14530
886.775	14514
886.9	14849
887.025	14891
887.149	14640
887.274	14530
887.399	14450
887.523	14473
887.648	14404
887.773	14427
887.897	14507
888.021	14533
888.146	14530
888.27	14644
888.395	14533
888.519	14545
888.643	14537
888.767	14560
888.891	14374
889.015	14366
889.139	14377
889.263	14267
889.387	14415
889.511	14613
889.635	14431
889.759	14446
889.883	14415
890.006	14404
890.13	14431
890.254	14278
890.377	14332
890.501	14221
890.624	14119
890.748	14145
890.871	14115
890.995	14046
891.118	14035
891.241	14119
891.364	14024
891.488	14206
891.611	14092
891.734	14046
891.857	14149
891.98	14073
892.103	14176
892.226	14123
892.349	14115
892.471	13879
892.594	14012
892.717	14058
892.839	14119
892.962	14096
893.085	14039
893.207	14039
893.33	13921
893.452	13917
893.575	13997
893.697	14088
893.819	14286
893.941	14362
894.064	14248
894.186	14096
894.308	14031
894.43	14252
894.552	14252
894.674	14214
894.796	14035
894.918	14161
895.04	14001
895.161	14221
895.283	14096
895.405	14043
895.526	14176
895.648	14084
895.769	14244
895.891	14191
896.012	14309
896.134	14199
896.255	14267
896.376	14183
896.498	14244
896.619	14294
896.74	14256
896.861	14328
896.982	14564
897.103	14792
897.224	14511
897.345	14343
897.466	14442
897.587	14476
897.708	14579
897.828	14549
897.949	14396
898.07	14362
898.19	14434
898.311	14697
898.431	14484
898.552	14530
898.672	14636
898.792	14667
898.913	14640
899.033	14545
899.153	14396
899.273	14396
899.393	14305
899.513	14434
899.633	14438
899.753	14400
899.873	14309
899.993	14507
900.113	14412
900.232	14495
900.352	14431
900.472	14381
900.591	14267
900.711	14393
900.83	14244
900.95	14412
901.069	14339
901.189	14206
901.308	14218
901.427	14016
901.546	14016
901.665	13993
901.784	13970
901.904	13868
902.023	13753
902.141	13594
902.26	13491
902.379	13632
902.498	13552
902.617	13472
902.735	13525
902.854	13575
902.973	13495
903.091	13266
903.21	13255
903.328	13381
903.446	13236
903.565	13160
903.683	13076
903.801	13023
903.919	13122
904.038	13095
904.156	12951
904.274	13004
904.392	12878
904.51	12878
904.627	12798
904.745	13008
904.863	13031
904.981	12852
905.098	12578
905.216	12604
905.334	12654
905.451	12593
905.569	12536
905.686	12642
905.803	12719
905.921	12437
906.038	12597
906.155	12445
906.272	12399
906.389	12334
906.506	12209
906.623	12235
906.74	12296
906.857	12041
906.974	12098
907.091	12235
907.208	12330
907.324	12304
907.441	12087
907.557	12011
907.674	11939
907.79	11878
907.907	11893
908.023	11923
908.139	11931
908.256	11859
908.372	11870
908.488	11809
908.604	11733
908.72	11741
908.836	11756
908.952	11741
909.068	11657
909.184	11707
909.3	11729
909.415	11790
909.531	11779
909.647	11543
909.762	11589
909.878	11490
909.993	11512
910.108	11414
910.224	11463
910.339	11455
910.454	11448
910.57	11379
910.685	11292
910.8	11558
910.915	11516
911.03	11402
911.145	11197
911.259	11136
911.374	11113
911.489	11155
911.604	11060
911.718	10957
911.833	10942
911.947	10854
912.062	10702
912.176	10908
912.291	11025
912.405	10923
912.519	11166
912.633	11204
912.748	10965
912.862	10987
912.976	10892
913.09	10710
913.204	10816
913.318	10793
913.431	10904
913.545	10930
913.659	10930
913.772	10873
913.886	10611
914	10736
914.113	10744
914.226	10904
914.34	10881
914.453	10580
914.566	10839
914.68	10698
914.793	10618
914.906	10493
915.019	10413
915.132	10421
915.245	10306
915.358	10478
915.47	10474
915.583	10508
915.696	10497
915.809	10603
915.921	10558
916.034	10436
916.146	10413
916.259	10352
916.371	10523
916.483	10478
916.595	10440
916.708	10405
916.82	10485
916.932	10394
917.044	10398
917.156	10356
917.268	10219
917.38	10405
917.491	10344
917.603	10265
917.715	10459
917.826	10481
917.938	10211
918.049	10230
918.161	10314
918.272	10417
918.384	10421
918.495	10276
918.606	10177
918.717	10040
918.828	10211
918.939	10169
919.05	10067
919.161	10124
919.272	9960
919.383	10090
919.494	10257
919.604	10394
919.715	10219
919.826	10135
919.936	10139
920.047	10299
920.157	10268
920.267	10424
920.378	10181
920.488	10116
920.598	10371
920.708	10569
920.818	10379
920.928	10386
921.038	10607
921.148	10550
921.258	10257
921.368	10169
921.477	10071
921.587	10074
921.697	9926
921.806	10071
921.916	9941
922.025	9690
922.134	9694
922.244	9728
922.353	9759
922.462	9629
922.571	9633
922.68	9359
922.789	9397
922.898	9405
923.007	9393
923.116	9538
923.224	9405
923.333	9469
923.442	9348
923.55	9298
923.659	9401
923.767	9416
923.876	9245
923.984	9462
924.092	9291
924.201	9336
924.309	9344
924.417	9348
924.525	9157
924.633	9397
924.741	10013
924.849	9058
924.956	9237
925.064	9055
925.172	9005
925.279	9066
925.387	9146
925.494	9146
925.602	9279
925.709	9138
925.816	8979
925.924	9154
926.031	9138
926.138	9077
926.245	9131
926.352	8975
926.459	9127
926.566	9253
926.673	9051
926.779	8933
926.886	8941
926.993	8845
927.099	8788
927.206	8754
927.312	8826
927.419	8899
927.525	8754
927.631	8899
927.737	8716
927.843	8746
927.95	8617
928.056	8705
928.162	8727
928.267	8777
928.373	9382
928.479	8838
928.585	8571
928.69	8739
928.796	8766
928.901	8613
929.007	8530
929.112	8670
929.218	8621
929.323	8545
929.428	8495
929.533	8701
929.638	8522
929.743	8488
929.848	8568
929.953	8610
930.058	8454
930.163	8267
930.267	8244
930.372	8431
930.477	8259
930.581	8476
930.685	8366
930.79	8248
930.894	8290
930.998	8202
931.103	8389
931.207	8096
931.311	8005
931.415	7890
931.519	7818
931.623	7784
