Data from test_V78500241_994.txt Node
Date: Fri Mar 25 14:40:38 CST 2022
User: usil
Spectrometer: V785-0024
Trigger mode: 0
Integration Time (sec): 4.000000E-1
Scans to average: 1
Nonlinearity correction enabled: false
Boxcar width: 0
Storing dark spectrum: false
XAxis mode: Wavelengths
Number of Pixels in Spectrum: 1024
>>>>>Begin Spectral Data<<<<<
801.071	23178
801.214	23014
801.356	22881
801.499	22618
801.641	22569
801.783	22603
801.926	22554
802.068	22550
802.211	22371
802.353	22291
802.496	22109
802.638	22112
802.78	22013
802.923	21876
803.065	21895
803.208	21823
803.35	21842
803.492	21953
803.635	21968
803.777	21747
803.919	22063
804.061	22177
804.204	21895
804.346	21857
804.488	21743
804.63	21892
804.773	21789
804.915	21816
805.057	21937
805.199	21755
805.341	21857
805.483	21903
805.626	21926
805.768	21808
805.91	21770
806.052	21895
806.194	21827
806.336	22166
806.478	21899
806.62	21998
806.762	21861
806.904	22177
807.046	22371
807.188	22337
807.33	22379
807.472	22440
807.614	22284
807.756	22489
807.898	22382
808.04	22322
808.182	22535
808.324	22702
808.465	22999
808.607	23159
808.749	23448
808.891	23729
809.033	23745
809.174	23566
809.316	23311
809.458	23033
809.6	22908
809.741	22721
809.883	22675
810.025	22713
810.166	22672
810.308	22710
810.45	22497
810.591	22432
810.733	22310
810.875	22226
811.016	22006
811.158	22105
811.299	22169
811.441	22284
811.582	22211
811.724	22055
811.865	22086
812.007	22223
812.148	22124
812.29	22105
812.431	22242
812.573	22481
812.714	22443
812.855	22523
812.997	22641
813.138	22755
813.279	22489
813.421	22538
813.562	22493
813.703	22363
813.845	22219
813.986	21972
814.127	21797
814.268	21652
814.41	21610
814.551	21564
814.692	21629
814.833	21595
814.974	21572
815.115	21572
815.256	21496
815.397	21511
815.539	21420
815.68	21279
815.821	21275
815.962	21431
816.103	21287
816.244	21077
816.385	21055
816.526	20986
816.666	20937
816.807	20705
816.948	20800
817.089	20845
817.23	20777
817.371	20689
817.512	20724
817.653	20716
817.793	20545
817.934	20746
818.075	20807
818.216	20720
818.356	20613
818.497	20495
818.638	20240
818.778	20419
818.919	20537
819.06	20503
819.2	20457
819.341	20609
819.481	20667
819.622	20693
819.762	20902
819.903	20887
820.043	20689
820.184	20705
820.324	20621
820.465	20804
820.605	20670
820.746	20705
820.886	20514
821.026	20625
821.167	20727
821.307	20716
821.447	20621
821.588	20556
821.728	20237
821.868	20218
822.008	20084
822.149	20005
822.289	19967
822.429	19772
822.569	19681
822.709	19753
822.849	19472
822.99	19548
823.13	19525
823.27	19426
823.41	19384
823.55	19350
823.69	19365
823.83	19270
823.97	19247
824.11	19171
824.25	19072
824.389	19148
824.529	19217
824.669	19137
824.809	19190
824.949	19270
825.089	19350
825.228	19148
825.368	19012
825.508	18970
825.648	19015
825.787	19027
825.927	18901
826.067	18783
826.206	18795
826.346	18913
826.485	18939
826.625	18859
826.765	18958
826.904	18867
827.044	18574
827.183	18738
827.323	18642
827.462	18612
827.601	18589
827.741	18559
827.88	18570
828.02	18380
828.159	18422
828.298	18566
828.437	18601
828.577	18582
828.716	18677
828.855	18486
828.994	18357
829.134	18330
829.273	18407
829.412	18300
829.551	18220
829.69	18407
829.829	18346
829.968	18395
830.107	18376
830.246	18502
830.385	18304
830.524	18258
830.663	18186
830.802	18087
830.941	17973
831.08	17961
831.219	17946
831.357	18026
831.496	18243
831.635	18019
831.774	17954
831.913	17882
832.051	17726
832.19	17783
832.329	17786
832.467	17745
832.606	17642
832.744	17554
832.883	17649
833.022	17562
833.16	17710
833.299	17695
833.437	17687
833.576	17752
833.714	17756
833.852	17726
833.991	17794
834.129	17832
834.267	17729
834.406	17615
834.544	17779
834.682	17786
834.821	17653
834.959	17866
835.097	17680
835.235	17695
835.373	17699
835.511	17764
835.65	17589
835.788	17547
835.926	17554
836.064	17459
836.202	17440
836.34	17638
836.478	17608
836.615	17611
836.753	17608
836.891	17566
837.029	17649
837.167	17554
837.305	17440
837.443	17535
837.58	17376
837.718	17524
837.856	17520
837.993	17387
838.131	17436
838.269	17345
838.406	17376
838.544	17231
838.681	17105
838.819	17128
838.956	16999
839.094	16942
839.231	16968
839.369	17102
839.506	17425
839.643	17254
839.781	16976
839.918	16911
840.055	16984
840.193	16949
840.33	16946
840.467	16923
840.604	17014
840.742	17185
840.879	16923
841.016	16820
841.153	16831
841.29	16995
841.427	17067
841.564	16938
841.701	16927
841.838	16915
841.975	16786
842.112	16797
842.249	16824
842.385	16664
842.522	16854
842.659	16736
842.796	16721
842.933	16698
843.069	16611
843.206	16596
843.343	16748
843.479	16866
843.616	16740
843.752	16500
843.889	16470
844.025	16649
844.162	16523
844.298	16596
844.435	16516
844.571	16436
844.708	16535
844.844	16717
844.98	16683
845.117	16740
845.253	16641
845.389	16691
845.525	16949
845.661	17151
845.798	17368
845.934	17824
846.07	17855
846.206	17927
846.342	17672
846.478	17246
846.614	16653
846.75	16398
846.886	16257
847.022	16360
847.158	16139
847.294	16120
847.429	16166
847.565	16071
847.701	16299
847.837	15861
847.972	15762
848.108	15861
848.244	15846
848.379	15819
848.515	15564
848.65	15587
848.786	15675
848.921	15728
849.057	15701
849.192	15812
849.328	15625
849.463	15625
849.598	15652
849.734	15538
849.869	15462
850.004	15374
850.14	15416
850.275	15382
850.41	15405
850.545	15386
850.68	15313
850.815	15386
850.95	15405
851.085	15606
851.22	15511
851.355	15351
851.49	15389
851.625	15370
851.76	15325
851.895	15233
852.03	15230
852.165	15351
852.299	15428
852.434	15515
852.569	15466
852.703	15443
852.838	15500
852.973	15523
853.107	15614
853.242	15355
853.376	15329
853.511	15165
853.645	15188
853.78	15401
853.914	15268
854.048	15245
854.183	15230
854.317	15367
854.451	15488
854.585	15283
854.72	15256
854.854	15321
854.988	15176
855.122	15192
855.256	15138
855.39	15283
855.524	15291
855.658	15298
855.792	15363
855.926	15241
856.06	15249
856.194	15367
856.327	15157
856.461	15161
856.595	15157
856.729	15230
856.862	15405
856.996	15249
857.13	15317
857.263	15382
857.397	15321
857.53	15199
857.664	15283
857.797	15359
857.931	15416
858.064	15268
858.197	15382
858.331	15351
858.464	15245
858.597	15032
858.731	15226
858.864	15245
858.997	15230
859.13	15291
859.263	15294
859.396	15340
859.529	15169
859.662	15123
859.795	15249
859.928	15287
860.061	15454
860.194	15534
860.327	15173
860.46	15214
860.592	15439
860.725	15416
860.858	15382
860.99	15264
861.123	15264
861.256	15157
861.388	15222
861.521	15926
861.653	15135
861.786	15165
861.918	15093
862.05	15138
862.183	15222
862.315	15116
862.447	15268
862.58	15123
862.712	14967
862.844	14986
862.976	15097
863.108	15077
863.24	15393
863.372	14990
863.504	14990
863.636	14986
863.768	15085
863.9	15032
864.032	14971
864.164	15017
864.296	15116
864.428	15074
864.559	15169
864.691	15058
864.823	15032
864.954	15047
865.086	15104
865.217	15085
865.349	14941
865.48	14921
865.612	15108
865.743	15165
865.875	14914
866.006	14925
866.137	15013
866.269	15043
866.4	15055
866.531	15024
866.662	14880
866.793	14941
866.924	14990
867.055	14941
867.186	14963
867.317	14887
867.448	14857
867.579	14918
867.71	14918
867.841	14823
867.972	14925
868.103	14910
868.233	14971
868.364	15005
868.495	15058
868.625	15230
868.756	15310
868.886	15173
869.017	15169
869.147	15306
869.278	15348
869.408	15218
869.539	15268
869.669	15291
869.799	15306
869.929	15268
870.06	15397
870.19	15530
870.32	15568
870.45	15450
870.58	15511
870.71	15766
870.84	15701
870.97	15679
871.1	15625
871.23	15800
871.36	15759
871.489	15759
871.619	15800
871.749	15876
871.879	15797
872.008	15892
872.138	15804
872.267	15808
872.397	15641
872.526	15599
872.656	15675
872.785	15667
872.915	15842
873.044	15899
873.173	15781
873.303	15835
873.432	15804
873.561	15945
873.69	15831
873.819	15850
873.948	16002
874.077	15949
874.206	15861
874.335	15934
874.464	16048
874.593	16055
874.722	16120
874.851	16253
874.979	16177
875.108	16257
875.237	16135
875.365	16158
875.494	16177
875.623	16249
875.751	16139
875.88	16242
876.008	16246
876.136	16398
876.265	16573
876.393	16721
876.521	16687
876.65	16710
876.778	16687
876.906	16603
877.034	16523
877.162	16626
877.29	16523
877.418	16550
877.546	16653
877.674	16672
877.802	16615
877.93	16622
878.058	16630
878.185	16580
878.313	16672
878.441	16778
878.568	16596
878.696	16740
878.824	16793
878.951	16965
879.079	17041
879.206	17322
879.333	17261
879.461	17379
879.588	17585
879.715	17570
879.842	17619
879.97	17303
880.097	16968
880.224	16835
880.351	16763
880.478	16786
880.605	16664
880.732	16702
880.859	16934
880.986	16710
881.112	16721
881.239	16546
881.366	16363
881.493	16367
881.619	16246
881.746	16314
881.872	16287
881.999	16291
882.125	16200
882.252	16447
882.378	16291
882.505	16409
882.631	16223
882.757	16105
882.883	16135
883.01	16139
883.136	16169
883.262	15930
883.388	15915
883.514	16150
883.64	16086
883.766	15953
883.892	15903
884.018	15934
884.143	16063
884.269	16192
884.395	15865
884.52	15819
884.646	15876
884.772	15751
884.897	15778
885.023	15785
885.148	15789
885.274	15937
885.399	15895
885.524	15800
885.65	15857
885.775	15869
885.9	15774
886.025	15838
886.15	15785
886.275	15644
886.4	15656
886.525	15724
886.65	15587
886.775	15717
886.9	15857
887.025	15873
887.149	15652
887.274	15488
887.399	15450
887.523	15557
887.648	15439
887.773	15545
887.897	15511
888.021	15507
888.146	15511
888.27	15549
888.395	15576
888.519	15576
888.643	15587
888.767	15515
888.891	15435
889.015	15336
889.139	15393
889.263	15211
889.387	15439
889.511	15466
889.635	15504
889.759	15283
889.883	15386
890.006	15272
890.13	15435
890.254	15260
890.377	15291
890.501	15020
890.624	15138
890.748	15184
890.871	15112
890.995	15051
891.118	14876
891.241	14948
891.364	14960
891.488	15066
891.611	15043
891.734	15058
891.857	15055
891.98	15058
892.103	15047
892.226	15058
892.349	15028
892.471	14804
892.594	14899
892.717	15013
892.839	14853
892.962	14979
893.085	15100
893.207	14918
893.33	14804
893.452	14773
893.575	15020
893.697	14979
893.819	15226
893.941	15249
894.064	15176
894.186	14883
894.308	14887
894.43	15017
894.552	15169
894.674	15100
894.796	14899
894.918	14941
895.04	14956
895.161	15066
895.283	15085
895.405	15005
895.526	14975
895.648	15119
895.769	15138
895.891	15032
896.012	15116
896.134	15104
896.255	15116
896.376	15013
896.498	15119
896.619	15116
896.74	15112
896.861	15161
896.982	15389
897.103	15568
897.224	15462
897.345	15310
897.466	15302
897.587	15256
897.708	15473
897.828	15321
897.949	15348
898.07	15241
898.19	15378
898.311	15595
898.431	15473
898.552	15306
898.672	15519
898.792	15637
898.913	15473
899.033	15405
899.153	15184
899.273	15249
899.393	15325
899.513	15249
899.633	15306
899.753	15268
899.873	15207
899.993	15317
900.113	15348
900.232	15249
900.352	15287
900.472	15142
900.591	15127
900.711	15123
900.83	15123
900.95	15184
901.069	15268
901.189	15100
901.308	14910
901.427	14773
901.546	14785
901.665	14834
901.784	14864
901.904	14743
902.023	14598
902.141	14415
902.26	14393
902.379	14404
902.498	14358
902.617	14336
902.735	14374
902.854	14351
902.973	14218
903.091	14073
903.21	14039
903.328	14123
903.446	14031
903.565	13856
903.683	13898
903.801	13670
903.919	13925
904.038	13883
904.156	13639
904.274	13826
904.392	13677
904.51	13639
904.627	13765
904.745	13693
904.863	13746
904.981	13480
905.098	13369
905.216	13369
905.334	13411
905.451	13354
905.569	13388
905.686	13415
905.803	13392
905.921	13213
906.038	13335
906.155	13251
906.272	13023
906.389	13084
906.506	13015
906.623	12970
906.74	12935
906.857	12833
906.974	12886
907.091	13091
907.208	12996
907.324	13061
907.441	12821
907.557	12734
907.674	12726
907.79	12608
907.907	12665
908.023	12726
908.139	12779
908.256	12654
908.372	12631
908.488	12570
908.604	12506
908.72	12429
908.836	12532
908.952	12357
909.068	12517
909.184	12536
909.3	12372
909.415	12479
909.531	12464
909.647	12213
909.762	12235
909.878	12197
909.993	12228
910.108	12175
910.224	12167
910.339	12201
910.454	12087
910.57	12022
910.685	12030
910.8	12220
910.915	12270
911.03	11973
911.145	11851
911.259	11824
911.374	11824
911.489	11745
911.604	11805
911.718	11596
911.833	11665
911.947	11524
912.062	11455
912.176	11547
912.291	11668
912.405	11585
912.519	11817
912.633	11927
912.748	11707
912.862	11615
912.976	11493
913.09	11406
913.204	11402
913.318	11535
913.431	11646
913.545	11554
913.659	11608
913.772	11448
913.886	11421
914	11334
914.113	11501
914.226	11421
914.34	11482
914.453	11277
914.566	11474
914.68	11315
914.793	11379
914.906	11132
915.019	11105
915.132	11014
915.245	11067
915.358	11181
915.47	11117
915.583	11140
915.696	11132
915.809	11212
915.921	11242
916.034	11045
916.146	11025
916.259	10984
916.371	11094
916.483	11132
916.595	11006
916.708	10987
916.82	11022
916.932	11022
917.044	11124
917.156	10965
917.268	10908
917.38	10984
917.491	10885
917.603	10885
917.715	10984
917.826	11003
917.938	10831
918.049	10790
918.161	10984
918.272	10999
918.384	11083
918.495	10968
918.606	10828
918.717	10653
918.828	10828
918.939	10892
919.05	10714
919.161	10710
919.272	10584
919.383	10656
919.494	10858
919.604	10923
919.715	10733
919.826	10668
919.936	10755
920.047	10824
920.157	10710
920.267	10987
920.378	10862
920.488	10805
920.598	10938
920.708	11102
920.818	10987
920.928	10915
921.038	11117
921.148	11117
921.258	10809
921.368	10786
921.477	10618
921.587	10630
921.697	10516
921.806	10618
921.916	10542
922.025	10417
922.134	10363
922.244	10310
922.353	10371
922.462	10207
922.571	10135
922.68	9972
922.789	10002
922.898	9975
923.007	9926
923.116	10063
923.224	10032
923.333	10029
923.442	9899
923.55	9857
923.659	9873
923.767	9941
923.876	9812
923.984	9956
924.092	9846
924.201	9854
924.309	9915
924.417	9884
924.525	9850
924.633	9819
924.741	10691
924.849	9629
924.956	9755
925.064	9606
925.172	9591
925.279	9618
925.387	9717
925.494	9660
925.602	9709
925.709	9728
925.816	9606
925.924	9618
926.031	9736
926.138	9690
926.245	9740
926.352	9614
926.459	9705
926.566	9740
926.673	9580
926.779	9424
926.886	9519
926.993	9351
927.099	9329
927.206	9344
927.312	9283
927.419	9397
927.525	9332
927.631	9443
927.737	9279
927.843	9230
927.95	9108
928.056	9241
928.162	9188
928.267	9283
928.373	9781
928.479	9344
928.585	9108
928.69	9237
928.796	9268
928.901	9123
929.007	8925
929.112	9127
929.218	9184
929.323	9017
929.428	9066
929.533	9188
929.638	9055
929.743	9051
929.848	9055
929.953	9062
930.058	8960
930.163	8796
930.267	8845
930.372	8944
930.477	8743
930.581	9039
930.685	8918
930.79	8826
930.894	8834
930.998	8716
931.103	8861
931.207	8549
931.311	8560
931.415	8412
931.519	8218
931.623	8195
