Data from test_V78500241_2390.txt Node
Date: Fri Mar 25 14:50:21 CST 2022
User: usil
Spectrometer: V785-0024
Trigger mode: 0
Integration Time (sec): 4.000000E-1
Scans to average: 1
Nonlinearity correction enabled: false
Boxcar width: 0
Storing dark spectrum: false
XAxis mode: Wavelengths
Number of Pixels in Spectrum: 1024
>>>>>Begin Spectral Data<<<<<
801.071	22162
801.214	21975
801.356	21679
801.499	21781
801.641	21557
801.783	21485
801.926	21477
802.068	21348
802.211	21218
802.353	21222
802.496	20960
802.638	20952
802.78	20899
802.923	20895
803.065	20880
803.208	20883
803.35	20807
803.492	20906
803.635	20937
803.777	20754
803.919	20853
804.061	21074
804.204	20937
804.346	20724
804.488	20727
804.63	20785
804.773	20609
804.915	20750
805.057	20880
805.199	20655
805.341	20811
805.483	20754
805.626	20804
805.768	20720
805.91	20762
806.052	20800
806.194	20568
806.336	20861
806.478	20674
806.62	20693
806.762	20697
806.904	20868
807.046	21093
807.188	21039
807.33	21100
807.472	21085
807.614	20792
807.756	20979
807.898	20887
808.04	20857
808.182	20758
808.324	20750
808.465	20876
808.607	21036
808.749	21142
808.891	21173
809.033	21203
809.174	21142
809.316	20979
809.458	21085
809.6	20960
809.741	21176
809.883	21188
810.025	21298
810.166	21180
810.308	21165
810.45	21252
810.591	21081
810.733	20918
810.875	20941
811.016	20800
811.158	20880
811.299	20838
811.441	21039
811.582	20929
811.724	20876
811.865	20944
812.007	20823
812.148	20853
812.29	20937
812.431	20971
812.573	21222
812.714	21325
812.855	21454
812.997	21416
813.138	21519
813.279	21523
813.421	21378
813.562	21340
813.703	21157
813.845	20952
813.986	20769
814.127	20545
814.268	20499
814.41	20385
814.551	20415
814.692	20465
814.833	20404
814.974	20336
815.115	20419
815.256	20256
815.397	20324
815.539	20320
815.68	20210
815.821	20134
815.962	20172
816.103	20077
816.244	20005
816.385	19894
816.526	19906
816.666	19696
816.807	19556
816.948	19575
817.089	19639
817.23	19624
817.371	19563
817.512	19544
817.653	19613
817.793	19563
817.934	19613
818.075	19647
818.216	19525
818.356	19548
818.497	19392
818.638	19213
818.778	19202
818.919	19171
819.06	19175
819.2	19411
819.341	19392
819.481	19434
819.622	19590
819.762	19753
819.903	19761
820.043	19544
820.184	19586
820.324	19392
820.465	19575
820.605	19590
820.746	19544
820.886	19400
821.026	19537
821.167	19567
821.307	19601
821.447	19400
821.588	19308
821.728	19190
821.868	19080
822.008	18913
822.149	18996
822.289	18920
822.429	18730
822.569	18639
822.709	18646
822.849	18494
822.99	18445
823.13	18399
823.27	18270
823.41	18270
823.55	18220
823.69	18254
823.83	18277
823.97	18148
824.11	18015
824.25	17996
824.389	18102
824.529	18064
824.669	18015
824.809	18053
824.949	17980
825.089	18136
825.228	18072
825.368	17851
825.508	17817
825.648	17897
825.787	17874
825.927	17893
826.067	17703
826.206	17828
826.346	17817
826.485	17897
826.625	17733
826.765	17828
826.904	17851
827.044	17573
827.183	17547
827.323	17505
827.462	17592
827.601	17566
827.741	17433
827.88	17512
828.02	17467
828.159	17512
828.298	17509
828.437	17524
828.577	17406
828.716	17657
828.855	17436
828.994	17223
829.134	17200
829.273	17341
829.412	17174
829.551	17239
829.69	17151
829.829	17227
829.968	17337
830.107	17296
830.246	17166
830.385	17341
830.524	17128
830.663	17200
830.802	17018
830.941	16835
831.08	16854
831.219	16957
831.357	16949
831.496	17090
831.635	16965
831.774	16767
831.913	16736
832.051	16752
832.19	16592
832.329	16713
832.467	16641
832.606	16634
832.744	16538
832.883	16523
833.022	16436
833.16	16535
833.299	16599
833.437	16637
833.576	16569
833.714	16618
833.852	16580
833.991	16519
834.129	16744
834.267	16660
834.406	16607
834.544	16554
834.682	16603
834.821	16599
834.959	16725
835.097	16565
835.235	16675
835.373	16618
835.511	16558
835.65	16466
835.788	16569
835.926	16424
836.064	16341
836.202	16344
836.34	16523
836.478	16580
836.615	16500
836.753	16508
836.891	16584
837.029	16607
837.167	16382
837.305	16432
837.443	16379
837.58	16352
837.718	16413
837.856	16405
837.993	16344
838.131	16398
838.269	16333
838.406	16421
838.544	16295
838.681	16013
838.819	16021
838.956	15895
839.094	15964
839.231	16021
839.369	16101
839.506	16314
839.643	16154
839.781	15937
839.918	15956
840.055	15907
840.193	15911
840.33	15918
840.467	15869
840.604	15945
840.742	16169
840.879	15838
841.016	15941
841.153	15892
841.29	16082
841.427	15888
841.564	15865
841.701	15972
841.838	15850
841.975	15797
842.112	15755
842.249	15701
842.385	15675
842.522	15911
842.659	15739
842.796	15705
842.933	15614
843.069	15629
843.206	15599
843.343	15671
843.479	15778
843.616	15755
843.752	15473
843.889	15507
844.025	15671
844.162	15507
844.298	15656
844.435	15504
844.571	15329
844.708	15469
844.844	15743
844.98	15663
845.117	15652
845.253	15428
845.389	15424
845.525	15454
845.661	15340
845.798	15207
845.934	15359
846.07	15287
846.206	15226
846.342	15435
846.478	15275
846.614	15135
846.75	15020
846.886	15013
847.022	15028
847.158	15032
847.294	15013
847.429	14986
847.565	15066
847.701	15317
847.837	14750
847.972	14796
848.108	14948
848.244	14895
848.379	14644
848.515	14693
848.65	14648
848.786	14849
848.921	14693
849.057	14716
849.192	14659
849.328	14678
849.463	14651
849.598	14590
849.734	14625
849.869	14457
850.004	14465
850.14	14415
850.275	14408
850.41	14328
850.545	14408
850.68	14400
850.815	14446
850.95	14351
851.085	14602
851.22	14442
851.355	14476
851.49	14419
851.625	14320
851.76	14431
851.895	14374
852.03	14275
852.165	14396
852.299	14446
852.434	14393
852.569	14495
852.703	14476
852.838	14541
852.973	14564
853.107	14746
853.242	14317
853.376	14332
853.511	14225
853.645	14298
853.78	14358
853.914	14267
854.048	14233
854.183	14324
854.317	14309
854.451	14347
854.585	14221
854.72	14157
854.854	14278
854.988	14244
855.122	14248
855.256	14187
855.39	14294
855.524	14267
855.658	14427
855.792	14278
855.926	14309
856.06	14252
856.194	14355
856.327	14305
856.461	14115
856.595	14214
856.729	14263
856.862	14374
856.996	14294
857.13	14267
857.263	14396
857.397	14290
857.53	14301
857.664	14374
857.797	14298
857.931	14465
858.064	14332
858.197	14385
858.331	14221
858.464	14161
858.597	14100
858.731	14355
858.864	14328
858.997	14294
859.13	14275
859.263	14332
859.396	14336
859.529	14240
859.662	14282
859.795	14267
859.928	14214
860.061	14400
860.194	14442
860.327	14415
860.46	14180
860.592	14404
860.725	14442
860.858	14408
860.99	14218
861.123	14138
861.256	14263
861.388	14221
861.521	14853
861.653	14294
861.786	14130
861.918	14214
862.05	14221
862.183	14313
862.315	14221
862.447	14290
862.58	14115
862.712	14005
862.844	14024
862.976	14062
863.108	14130
863.24	14370
863.372	14027
863.504	13936
863.636	14031
863.768	14107
863.9	14084
864.032	14062
864.164	13967
864.296	14225
864.428	14164
864.559	14172
864.691	14107
864.823	14062
864.954	14123
865.086	14062
865.217	14092
865.349	13997
865.48	14084
865.612	14043
865.743	14195
865.875	14043
866.006	14123
866.137	14062
866.269	14012
866.4	14005
866.531	13989
866.662	13871
866.793	13970
866.924	14058
867.055	13967
867.186	14012
867.317	14012
867.448	13944
867.579	14065
867.71	13959
867.841	13898
867.972	14069
868.103	13989
868.233	13997
868.364	14043
868.495	14199
868.625	14301
868.756	14305
868.886	14214
869.017	14259
869.147	14438
869.278	14385
869.408	14271
869.539	14210
869.669	14381
869.799	14355
869.929	14446
870.06	14396
870.19	14606
870.32	14610
870.45	14674
870.58	14693
870.71	14731
870.84	14769
870.97	14655
871.1	14610
871.23	14929
871.36	14834
871.489	14807
871.619	14842
871.749	14834
871.879	14887
872.008	15013
872.138	14811
872.267	14899
872.397	14708
872.526	14682
872.656	14648
872.785	14743
872.915	14910
873.044	14994
873.173	14998
873.303	14921
873.432	15017
873.561	14891
873.69	14914
873.819	14937
873.948	15005
874.077	14910
874.206	14944
874.335	14933
874.464	15119
874.593	15192
874.722	15108
874.851	15150
874.979	15310
875.108	15260
875.237	15188
875.365	15192
875.494	15245
875.623	15325
875.751	15245
875.88	15298
876.008	15416
876.136	15515
876.265	15629
876.393	15827
876.521	15770
876.65	15739
876.778	15652
876.906	15663
877.034	15542
877.162	15667
877.29	15648
877.418	15690
877.546	15622
877.674	15580
877.802	15663
877.93	15561
878.058	15701
878.185	15549
878.313	15690
878.441	15717
878.568	15553
878.696	15568
878.824	15701
878.951	15785
879.079	15694
879.206	16021
879.333	15793
879.461	15743
879.588	15755
879.715	15907
879.842	15884
879.97	15789
880.097	15462
880.224	15561
880.351	15561
880.478	15568
880.605	15469
880.732	15393
880.859	15728
880.986	15443
881.112	15572
881.239	15412
881.366	15336
881.493	15138
881.619	15161
881.746	15138
881.872	15275
881.999	15135
882.125	15176
882.252	15211
882.378	15222
882.505	15272
882.631	15058
882.757	15070
882.883	14933
883.01	15085
883.136	14933
883.262	14853
883.388	14712
883.514	15051
883.64	15097
883.766	14948
883.892	14765
884.018	14868
884.143	14960
884.269	14967
884.395	14743
884.52	14613
884.646	14727
884.772	14754
884.897	14530
885.023	14625
885.148	14823
885.274	14811
885.399	14765
885.524	14739
885.65	14765
885.775	14682
885.9	14678
886.025	14845
886.15	14739
886.275	14663
886.4	14632
886.525	14587
886.65	14682
886.775	14598
886.9	14838
887.025	15009
887.149	14659
887.274	14530
887.399	14541
887.523	14514
887.648	14419
887.773	14381
887.897	14594
888.021	14507
888.146	14450
888.27	14682
888.395	14629
888.519	14613
888.643	14632
888.767	14621
888.891	14476
889.015	14385
889.139	14537
889.263	14351
889.387	14461
889.511	14571
889.635	14507
889.759	14389
889.883	14434
890.006	14412
890.13	14450
890.254	14271
890.377	14374
890.501	14271
890.624	14180
890.748	14275
890.871	14195
890.995	14069
891.118	14054
891.241	14050
891.364	14103
891.488	14142
891.611	14012
891.734	14054
891.857	14199
891.98	14123
892.103	14164
892.226	14161
892.349	14077
892.471	13925
892.594	14084
892.717	14092
892.839	13955
892.962	14100
893.085	14180
893.207	14096
893.33	14054
893.452	13955
893.575	14142
893.697	14062
893.819	14172
893.941	14298
894.064	14187
894.186	14088
894.308	13944
894.43	14157
894.552	14309
894.674	14214
894.796	14035
894.918	14126
895.04	14058
895.161	14229
895.283	14271
895.405	14062
895.526	14206
895.648	14176
895.769	14168
895.891	14206
896.012	14252
896.134	14271
896.255	14282
896.376	14096
896.498	14161
896.619	14347
896.74	14320
896.861	14294
896.982	14659
897.103	14674
897.224	14549
897.345	14499
897.466	14450
897.587	14465
897.708	14712
897.828	14488
897.949	14415
898.07	14355
898.19	14549
898.311	14720
898.431	14541
898.552	14518
898.672	14632
898.792	14727
898.913	14674
899.033	14564
899.153	14514
899.273	14317
899.393	14438
899.513	14457
899.633	14434
899.753	14351
899.873	14457
899.993	14579
900.113	14476
900.232	14499
900.352	14450
900.472	14298
900.591	14362
900.711	14377
900.83	14233
900.95	14393
901.069	14431
901.189	14248
901.308	14149
901.427	13974
901.546	14065
901.665	14031
901.784	13986
901.904	13871
902.023	13818
902.141	13620
902.26	13609
902.379	13723
902.498	13594
902.617	13499
902.735	13487
902.854	13586
902.973	13552
903.091	13316
903.21	13289
903.328	13228
903.446	13289
903.565	13114
903.683	13080
903.801	13023
903.919	13091
904.038	13042
904.156	12996
904.274	12977
904.392	12897
904.51	12928
904.627	12993
904.745	12920
904.863	12962
904.981	12772
905.098	12654
905.216	12684
905.334	12669
905.451	12589
905.569	12509
905.686	12757
905.803	12703
905.921	12517
906.038	12566
906.155	12521
906.272	12308
906.389	12399
906.506	12247
906.623	12216
906.74	12224
906.857	12152
906.974	12186
907.091	12311
907.208	12357
907.324	12266
907.441	12114
907.557	12045
907.674	11973
907.79	11980
907.907	11901
908.023	11935
908.139	11939
908.256	11973
908.372	11821
908.488	11836
908.604	11813
908.72	11672
908.836	11813
908.952	11672
909.068	11764
909.184	11794
909.3	11817
909.415	11775
909.531	11813
909.647	11581
909.762	11608
909.878	11493
909.993	11535
910.108	11509
910.224	11482
910.339	11497
910.454	11364
910.57	11303
910.685	11277
910.8	11558
910.915	11581
911.03	11360
911.145	11201
911.259	11254
911.374	11178
911.489	11143
911.604	11090
911.718	11003
911.833	10908
911.947	10919
912.062	10873
912.176	10999
912.291	11006
912.405	10942
912.519	11143
912.633	11166
912.748	11006
912.862	10968
912.976	10847
913.09	10721
913.204	10896
913.318	10831
913.431	11064
913.545	10889
913.659	10889
913.772	10877
913.886	10816
914	10656
914.113	10919
914.226	10816
914.34	10782
914.453	10668
914.566	10793
914.68	10660
914.793	10729
914.906	10516
915.019	10466
915.132	10382
915.245	10398
915.358	10485
915.47	10535
915.583	10436
915.696	10660
915.809	10569
915.921	10668
916.034	10455
916.146	10474
916.259	10348
916.371	10538
916.483	10485
916.595	10360
916.708	10409
916.82	10382
916.932	10386
917.044	10310
917.156	10322
917.268	10276
917.38	10322
917.491	10257
917.603	10375
917.715	10504
917.826	10478
917.938	10284
918.049	10173
918.161	10379
918.272	10451
918.384	10474
918.495	10299
918.606	10230
918.717	10040
918.828	10169
918.939	10249
919.05	10120
919.161	10200
919.272	9975
919.383	10006
919.494	10173
919.604	10386
919.715	10185
919.826	10173
919.936	10177
920.047	10265
920.157	10181
920.267	10421
920.378	10257
920.488	10219
920.598	10451
920.708	10577
920.818	10398
920.928	10436
921.038	10466
921.148	10546
921.258	10287
921.368	10131
921.477	10063
921.587	10059
921.697	9869
921.806	10143
921.916	9922
922.025	9823
922.134	9743
922.244	9759
922.353	9766
922.462	9671
922.571	9679
922.68	9428
922.789	9443
922.898	9450
923.007	9405
923.116	9507
923.224	9469
923.333	9469
923.442	9378
923.55	9325
923.659	9363
923.767	9428
923.876	9287
923.984	9310
924.092	9233
924.201	9397
924.309	9321
924.417	9393
924.525	9245
924.633	9329
924.741	10006
924.849	9154
924.956	9230
925.064	9089
925.172	9032
925.279	9074
925.387	9169
925.494	9165
925.602	9256
925.709	9203
925.816	9051
925.924	9062
926.031	9230
926.138	9089
926.245	9142
926.352	9001
926.459	9131
926.566	9138
926.673	9005
926.779	8994
926.886	8952
926.993	8899
927.099	8868
927.206	8800
927.312	8743
927.419	8925
927.525	8845
927.631	8887
927.737	8800
927.843	8743
927.95	8537
928.056	8689
928.162	8678
928.267	8746
928.373	9348
928.479	8853
928.585	8663
928.69	8735
928.796	8788
928.901	8632
929.007	8514
929.112	8587
929.218	8640
929.323	8514
929.428	8530
929.533	8705
929.638	8507
929.743	8545
929.848	8621
929.953	8507
930.058	8450
930.163	8286
930.267	8248
930.372	8454
930.477	8248
930.581	8549
930.685	8442
930.79	8195
930.894	8252
930.998	8267
931.103	8385
931.207	8043
931.311	7925
931.415	7913
931.519	7769
931.623	7723
