Data from test_V78500241_2804.txt Node
Date: Fri Mar 25 14:53:14 CST 2022
User: usil
Spectrometer: V785-0024
Trigger mode: 0
Integration Time (sec): 4.000000E-1
Scans to average: 1
Nonlinearity correction enabled: false
Boxcar width: 0
Storing dark spectrum: false
XAxis mode: Wavelengths
Number of Pixels in Spectrum: 1024
>>>>>Begin Spectral Data<<<<<
801.071	22074
801.214	22013
801.356	21694
801.499	21625
801.641	21488
801.783	21401
801.926	21485
802.068	21378
802.211	21374
802.353	21192
802.496	20975
802.638	20948
802.78	20845
802.923	20925
803.065	20667
803.208	20788
803.35	20701
803.492	20887
803.635	20952
803.777	20708
803.919	20868
804.061	21146
804.204	20788
804.346	20853
804.488	20788
804.63	20834
804.773	20644
804.915	20781
805.057	20788
805.199	20594
805.341	20864
805.483	20796
805.626	20777
805.768	20644
805.91	20758
806.052	20754
806.194	20606
806.336	20807
806.478	20560
806.62	20682
806.762	20769
806.904	20899
807.046	21013
807.188	20986
807.33	20990
807.472	21051
807.614	20960
807.756	20937
807.898	20758
808.04	20678
808.182	20674
808.324	20727
808.465	20876
808.607	21047
808.749	21047
808.891	21142
809.033	21332
809.174	21062
809.316	20944
809.458	20998
809.6	21062
809.741	21108
809.883	21241
810.025	21283
810.166	21245
810.308	21176
810.45	21104
810.591	21039
810.733	20906
810.875	20918
811.016	20773
811.158	20598
811.299	20804
811.441	20948
811.582	20952
811.724	20758
811.865	20876
812.007	20872
812.148	20811
812.29	20731
812.431	20937
812.573	21085
812.714	21211
812.855	21230
812.997	21329
813.138	21538
813.279	21389
813.421	21306
813.562	21188
813.703	21108
813.845	20948
813.986	20659
814.127	20526
814.268	20408
814.41	20347
814.551	20313
814.692	20415
814.833	20206
814.974	20263
815.115	20374
815.256	20145
815.397	20305
815.539	20256
815.68	20084
815.821	20024
815.962	20050
816.103	20050
816.244	19963
816.385	19738
816.526	19772
816.666	19635
816.807	19453
816.948	19620
817.089	19582
817.23	19567
817.371	19480
817.512	19422
817.653	19518
817.793	19460
817.934	19457
818.075	19430
818.216	19476
818.356	19381
818.497	19316
818.638	19141
818.778	19187
818.919	19198
819.06	19247
819.2	19396
819.341	19369
819.481	19324
819.622	19655
819.762	19715
819.903	19601
820.043	19438
820.184	19499
820.324	19472
820.465	19559
820.605	19472
820.746	19487
820.886	19278
821.026	19445
821.167	19472
821.307	19552
821.447	19400
821.588	19285
821.728	19179
821.868	18932
822.008	18886
822.149	18875
822.289	18840
822.429	18635
822.569	18513
822.709	18502
822.849	18365
822.99	18384
823.13	18315
823.27	18216
823.41	18209
823.55	18159
823.69	18129
823.83	18136
823.97	18072
824.11	17954
824.25	17939
824.389	17859
824.529	17999
824.669	18026
824.809	18022
824.949	18003
825.089	18003
825.228	17939
825.368	17703
825.508	17828
825.648	17707
825.787	17722
825.927	17649
826.067	17661
826.206	17668
826.346	17657
826.485	17771
826.625	17668
826.765	17794
826.904	17779
827.044	17509
827.183	17551
827.323	17360
827.462	17387
827.601	17440
827.741	17337
827.88	17410
828.02	17246
828.159	17356
828.298	17337
828.437	17455
828.577	17345
828.716	17463
828.855	17387
828.994	17303
829.134	17041
829.273	17242
829.412	16976
829.551	16980
829.69	17128
829.829	17178
829.968	17269
830.107	17204
830.246	17128
830.385	17067
830.524	17052
830.663	17056
830.802	16790
830.941	16812
831.08	16866
831.219	16866
831.357	16843
831.496	17041
831.635	16850
831.774	16706
831.913	16706
832.051	16573
832.19	16504
832.329	16713
832.467	16466
832.606	16371
832.744	16481
832.883	16516
833.022	16360
833.16	16527
833.299	16485
833.437	16417
833.576	16470
833.714	16580
833.852	16599
833.991	16592
834.129	16580
834.267	16603
834.406	16508
834.544	16641
834.682	16630
834.821	16523
834.959	16687
835.097	16531
835.235	16687
835.373	16470
835.511	16580
835.65	16443
835.788	16489
835.926	16329
836.064	16207
836.202	16257
836.34	16432
836.478	16607
836.615	16398
836.753	16394
836.891	16527
837.029	16451
837.167	16295
837.305	16303
837.443	16291
837.58	16246
837.718	16284
837.856	16287
837.993	16226
838.131	16215
838.269	16211
838.406	16223
838.544	16101
838.681	16063
838.819	16029
838.956	15842
839.094	15934
839.231	15922
839.369	16040
839.506	16188
839.643	16128
839.781	15854
839.918	15869
840.055	15892
840.193	15831
840.33	15789
840.467	15770
840.604	15937
840.742	16105
840.879	15797
841.016	15705
841.153	15694
841.29	15937
841.427	15766
841.564	15854
841.701	15831
841.838	15781
841.975	15701
842.112	15743
842.249	15705
842.385	15580
842.522	15823
842.659	15629
842.796	15648
842.933	15591
843.069	15568
843.206	15515
843.343	15660
843.479	15568
843.616	15694
843.752	15340
843.889	15420
844.025	15511
844.162	15401
844.298	15523
844.435	15519
844.571	15389
844.708	15469
844.844	15599
844.98	15511
845.117	15500
845.253	15389
845.389	15386
845.525	15260
845.661	15298
845.798	15142
845.934	15378
846.07	15169
846.206	15264
846.342	15405
846.478	15241
846.614	15017
846.75	15055
846.886	14963
847.022	15051
847.158	14967
847.294	15135
847.429	15036
847.565	14994
847.701	15169
847.837	14792
847.972	14765
848.108	14762
848.244	14777
848.379	14571
848.515	14533
848.65	14606
848.786	14602
848.921	14606
849.057	14648
849.192	14587
849.328	14602
849.463	14518
849.598	14484
849.734	14545
849.869	14507
850.004	14408
850.14	14412
850.275	14408
850.41	14317
850.545	14278
850.68	14320
850.815	14438
850.95	14351
851.085	14545
851.22	14461
851.355	14465
851.49	14259
851.625	14278
851.76	14343
851.895	14313
852.03	14237
852.165	14339
852.299	14328
852.434	14473
852.569	14427
852.703	14393
852.838	14434
852.973	14552
853.107	14473
853.242	14328
853.376	14240
853.511	14145
853.645	14195
853.78	14461
853.914	14225
854.048	14183
854.183	14191
854.317	14263
854.451	14343
854.585	14244
854.72	14237
854.854	14214
854.988	14149
855.122	14256
855.256	14161
855.39	14225
855.524	14317
855.658	14259
855.792	14263
855.926	14324
856.06	14271
856.194	14336
856.327	14218
856.461	14206
856.595	14195
856.729	14157
856.862	14362
856.996	14252
857.13	14313
857.263	14389
857.397	14336
857.53	14168
857.664	14324
857.797	14339
857.931	14366
858.064	14347
858.197	14336
858.331	14286
858.464	14183
858.597	14130
858.731	14214
858.864	14298
858.997	14301
859.13	14233
859.263	14153
859.396	14324
859.529	14252
859.662	14153
859.795	14164
859.928	14294
860.061	14317
860.194	14381
860.327	14275
860.46	14199
860.592	14320
860.725	14370
860.858	14278
860.99	14237
861.123	14157
861.256	14161
861.388	14183
861.521	14880
861.653	14149
861.786	14103
861.918	14103
862.05	14119
862.183	14202
862.315	14218
862.447	14199
862.58	14130
862.712	13986
862.844	13936
862.976	14115
863.108	14092
863.24	14473
863.372	13982
863.504	13951
863.636	13967
863.768	14024
863.9	14016
864.032	13970
864.164	14050
864.296	14016
864.428	14157
864.559	14134
864.691	14016
864.823	14107
864.954	13970
865.086	14043
865.217	14024
865.349	13928
865.48	14031
865.612	13959
865.743	14161
865.875	14020
866.006	13932
866.137	14005
866.269	13852
866.4	13997
866.531	13883
866.662	13932
866.793	13875
866.924	13970
867.055	14092
867.186	13989
867.317	13909
867.448	13795
867.579	13940
867.71	13982
867.841	13967
867.972	14031
868.103	14008
868.233	13993
868.364	13967
868.495	14134
868.625	14233
868.756	14248
868.886	14088
869.017	14206
869.147	14404
869.278	14278
869.408	14278
869.539	14214
869.669	14267
869.799	14244
869.929	14324
870.06	14347
870.19	14575
870.32	14590
870.45	14583
870.58	14575
870.71	14667
870.84	14800
870.97	14571
871.1	14575
871.23	14815
871.36	14842
871.489	14804
871.619	14743
871.749	14777
871.879	14864
872.008	14857
872.138	14842
872.267	14899
872.397	14697
872.526	14632
872.656	14549
872.785	14708
872.915	14895
873.044	14887
873.173	14880
873.303	14902
873.432	15028
873.561	14937
873.69	14910
873.819	14910
873.948	14979
874.077	14895
874.206	14834
874.335	14944
874.464	15009
874.593	15184
874.722	15127
874.851	15218
874.979	15245
875.108	15237
875.237	15154
875.365	15108
875.494	15222
875.623	15211
875.751	15222
875.88	15154
876.008	15298
876.136	15469
876.265	15568
876.393	15736
876.521	15747
876.65	15679
876.778	15660
876.906	15561
877.034	15458
877.162	15614
877.29	15496
877.418	15667
877.546	15561
877.674	15591
877.802	15595
877.93	15595
878.058	15545
878.185	15564
878.313	15614
878.441	15511
878.568	15428
878.696	15477
878.824	15679
878.951	15656
879.079	15842
879.206	15907
879.333	15831
879.461	15701
879.588	15759
879.715	15743
879.842	15934
879.97	15618
880.097	15549
880.224	15450
880.351	15504
880.478	15416
880.605	15466
880.732	15542
880.859	15766
880.986	15416
881.112	15538
881.239	15370
881.366	15127
881.493	15211
881.619	15085
881.746	15108
881.872	15058
881.999	15085
882.125	15009
882.252	15150
882.378	15214
882.505	15325
882.631	15017
882.757	14883
882.883	14967
883.01	14971
883.136	14807
883.262	14845
883.388	14849
883.514	15017
883.64	14982
883.766	14895
883.892	14781
884.018	14792
884.143	14910
884.269	15039
884.395	14739
884.52	14674
884.646	14705
884.772	14621
884.897	14629
885.023	14636
885.148	14807
885.274	14864
885.399	14739
885.524	14674
885.65	14663
885.775	14655
885.9	14617
886.025	14857
886.15	14708
886.275	14644
886.4	14537
886.525	14636
886.65	14552
886.775	14549
886.9	14663
887.025	14868
887.149	14636
887.274	14465
887.399	14469
887.523	14461
887.648	14465
887.773	14370
887.897	14503
888.021	14545
888.146	14450
888.27	14541
888.395	14465
888.519	14583
888.643	14522
888.767	14541
888.891	14431
889.015	14366
889.139	14358
889.263	14317
889.387	14362
889.511	14606
889.635	14465
889.759	14195
889.883	14301
890.006	14423
890.13	14431
890.254	14195
890.377	14286
890.501	14126
890.624	14008
890.748	14214
890.871	14103
890.995	13959
891.118	13970
891.241	14062
891.364	14077
891.488	14126
891.611	13993
891.734	13997
891.857	14111
891.98	14119
892.103	14035
892.226	14012
892.349	14031
892.471	13917
892.594	14005
892.717	13989
892.839	14058
892.962	14069
893.085	14088
893.207	14035
893.33	14039
893.452	13963
893.575	14111
893.697	13989
893.819	14172
893.941	14161
894.064	14172
894.186	14046
894.308	13982
894.43	14229
894.552	14324
894.674	14218
894.796	13940
894.918	14065
895.04	14043
895.161	14180
895.283	14164
895.405	14050
895.526	14195
895.648	14138
895.769	14161
895.891	14180
896.012	14252
896.134	14164
896.255	14134
896.376	14199
896.498	14176
896.619	14282
896.74	14153
896.861	14290
896.982	14499
897.103	14697
897.224	14640
897.345	14476
897.466	14442
897.587	14488
897.708	14667
897.828	14530
897.949	14404
898.07	14366
898.19	14526
898.311	14651
898.431	14469
898.552	14621
898.672	14636
898.792	14663
898.913	14621
899.033	14476
899.153	14537
899.273	14267
899.393	14381
899.513	14545
899.633	14427
899.753	14590
899.873	14446
899.993	14446
900.113	14362
900.232	14324
900.352	14408
900.472	14290
900.591	14244
900.711	14336
900.83	14221
900.95	14446
901.069	14248
901.189	14103
901.308	14008
901.427	13936
901.546	13951
901.665	13967
901.784	14008
901.904	13791
902.023	13761
902.141	13632
902.26	13567
902.379	13639
902.498	13506
902.617	13502
902.735	13563
902.854	13502
902.973	13544
903.091	13202
903.21	13331
903.328	13381
903.446	13209
903.565	13057
903.683	13133
903.801	12973
903.919	13065
904.038	13038
904.156	12966
904.274	12947
904.392	12878
904.51	12901
904.627	12905
904.745	12989
904.863	13023
904.981	12662
905.098	12582
905.216	12582
905.334	12646
905.451	12658
905.569	12509
905.686	12585
905.803	12669
905.921	12414
906.038	12540
906.155	12456
906.272	12395
906.389	12422
906.506	12277
906.623	12342
906.74	12243
906.857	12106
906.974	12129
907.091	12289
907.208	12289
907.324	12209
907.441	12152
907.557	12007
907.674	11999
907.79	11916
907.907	11912
908.023	12007
908.139	11961
908.256	11878
908.372	11874
908.488	11874
908.604	11745
908.72	11722
908.836	11722
908.952	11684
909.068	11676
909.184	11748
909.3	11710
909.415	11809
909.531	11699
909.647	11505
909.762	11486
909.878	11414
909.993	11471
910.108	11501
910.224	11467
910.339	11539
910.454	11341
910.57	11360
910.685	11372
910.8	11539
910.915	11455
911.03	11376
911.145	11204
911.259	11227
911.374	11261
911.489	11086
911.604	11170
911.718	11037
911.833	10965
911.947	10923
912.062	10717
912.176	10923
912.291	10942
912.405	10881
912.519	11143
912.633	11269
912.748	10991
912.862	10987
912.976	10820
913.09	10714
913.204	10839
913.318	10820
913.431	10831
913.545	10892
913.659	11022
913.772	10778
913.886	10744
914	10569
914.113	10790
914.226	10831
914.34	10805
914.453	10698
914.566	10831
914.68	10672
914.793	10664
914.906	10432
915.019	10375
915.132	10329
915.245	10466
915.358	10428
915.47	10508
915.583	10474
915.696	10527
915.809	10618
915.921	10641
916.034	10413
916.146	10402
916.259	10356
916.371	10451
916.483	10485
916.595	10390
916.708	10402
916.82	10390
916.932	10390
917.044	10371
917.156	10333
917.268	10227
917.38	10272
917.491	10249
917.603	10268
917.715	10371
917.826	10367
917.938	10318
918.049	10147
918.161	10325
918.272	10432
918.384	10421
918.495	10337
918.606	10215
918.717	10021
918.828	10166
918.939	10196
919.05	10036
919.161	10196
919.272	9979
919.383	10063
919.494	10219
919.604	10367
919.715	10249
919.826	10055
919.936	10185
920.047	10246
920.157	10185
920.267	10325
920.378	10230
920.488	10131
920.598	10409
920.708	10512
920.818	10382
920.928	10333
921.038	10607
921.148	10417
921.258	10188
921.368	10051
921.477	10055
921.587	10074
921.697	9941
921.806	10112
921.916	9915
922.025	9755
922.134	9660
922.244	9816
922.353	9846
922.462	9660
922.571	9553
922.68	9485
922.789	9367
922.898	9443
923.007	9428
923.116	9477
923.224	9405
923.333	9382
923.442	9344
923.55	9256
923.659	9275
923.767	9370
923.876	9325
923.984	9336
924.092	9230
924.201	9249
924.309	9260
924.417	9275
924.525	9272
924.633	9230
924.741	10017
924.849	9089
924.956	9157
925.064	9020
925.172	8998
925.279	9112
925.387	9157
925.494	9146
925.602	9275
925.709	9214
925.816	9081
925.924	9028
926.031	9184
926.138	9055
926.245	9192
926.352	9036
926.459	9138
926.566	9138
926.673	9089
926.779	8914
926.886	8944
926.993	8868
927.099	8804
927.206	8735
927.312	8804
927.419	8845
927.525	8830
927.631	8853
927.737	8724
927.843	8667
927.95	8545
928.056	8655
928.162	8766
928.267	8792
928.373	9325
928.479	8815
928.585	8590
928.69	8682
928.796	8667
928.901	8617
929.007	8446
929.112	8613
929.218	8590
929.323	8514
929.428	8537
929.533	8701
929.638	8461
929.743	8495
929.848	8560
929.953	8507
930.058	8469
930.163	8309
930.267	8313
930.372	8476
930.477	8248
930.581	8587
930.685	8389
930.79	8229
930.894	8301
930.998	8187
931.103	8370
931.207	7993
931.311	7940
931.415	7868
931.519	7753
931.623	7750
