Data from test_V78500241_1145.txt Node
Date: Fri Mar 25 14:41:41 CST 2022
User: usil
Spectrometer: V785-0024
Trigger mode: 0
Integration Time (sec): 4.000000E-1
Scans to average: 1
Nonlinearity correction enabled: false
Boxcar width: 0
Storing dark spectrum: false
XAxis mode: Wavelengths
Number of Pixels in Spectrum: 1024
>>>>>Begin Spectral Data<<<<<
801.071	22691
801.214	22462
801.356	22238
801.499	22059
801.641	22006
801.783	21953
801.926	21903
802.068	21934
802.211	21766
802.353	21625
802.496	21526
802.638	21469
802.78	21420
802.923	21340
803.065	21298
803.208	21306
803.35	21332
803.492	21325
803.635	21412
803.777	21359
803.919	21363
804.061	21492
804.204	21389
804.346	21222
804.488	21028
804.63	21283
804.773	21123
804.915	21135
805.057	21291
805.199	21089
805.341	21279
805.483	21428
805.626	21207
805.768	21074
805.91	21146
806.052	21169
806.194	21005
806.336	21294
806.478	21127
806.62	21195
806.762	21142
806.904	21363
807.046	21625
807.188	21591
807.33	21641
807.472	21519
807.614	21435
807.756	21599
807.898	21420
808.04	21370
808.182	21348
808.324	21317
808.465	21450
808.607	21576
808.749	21831
808.891	21972
809.033	21998
809.174	21865
809.316	21793
809.458	21827
809.6	21568
809.741	21751
809.883	21648
810.025	21888
810.166	21857
810.308	21846
810.45	21781
810.591	21686
810.733	21549
810.875	21500
811.016	21351
811.158	21306
811.299	21382
811.441	21416
811.582	21599
811.724	21359
811.865	21382
812.007	21363
812.148	21393
812.29	21359
812.431	21641
812.573	21747
812.714	21762
812.855	21838
812.997	22082
813.138	22074
813.279	22097
813.421	21911
813.562	21762
813.703	21622
813.845	21549
813.986	21230
814.127	20994
814.268	21074
814.41	21024
814.551	20857
814.692	20921
814.833	20868
814.974	20948
815.115	20891
815.256	20853
815.397	20746
815.539	20777
815.68	20765
815.821	20571
815.962	20708
816.103	20727
816.244	20465
816.385	20431
816.526	20377
816.666	20180
816.807	20111
816.948	20157
817.089	20176
817.23	20161
817.371	20039
817.512	20050
817.653	20050
817.793	20008
817.934	20077
818.075	20020
818.216	20145
818.356	20001
818.497	19887
818.638	19780
818.778	19677
818.919	19879
819.06	19746
819.2	19883
819.341	20031
819.481	19913
819.622	20065
819.762	20267
819.903	20229
820.043	20134
820.184	20168
820.324	20065
820.465	20149
820.605	20027
820.746	20031
820.886	19879
821.026	20069
821.167	19959
821.307	20100
821.447	20088
821.588	19959
821.728	19803
821.868	19594
822.008	19411
822.149	19552
822.289	19403
822.429	19202
822.569	19206
822.709	19148
822.849	18905
822.99	19046
823.13	18901
823.27	18962
823.41	18795
823.55	18665
823.69	18772
823.83	18852
823.97	18692
824.11	18601
824.25	18528
824.389	18589
824.529	18669
824.669	18578
824.809	18665
824.949	18688
825.089	18513
825.228	18570
825.368	18395
825.508	18330
825.648	18391
825.787	18391
825.927	18384
826.067	18300
826.206	18308
826.346	18376
826.485	18376
826.625	18407
826.765	18410
826.904	18304
827.044	18068
827.183	18038
827.323	17916
827.462	18102
827.601	18034
827.741	18060
827.88	17996
828.02	17897
828.159	17897
828.298	18091
828.437	18136
828.577	18026
828.716	18213
828.855	18030
828.994	17828
829.134	17756
829.273	17813
829.412	17695
829.551	17676
829.69	17748
829.829	17741
829.968	17821
830.107	17809
830.246	17798
830.385	17775
830.524	17634
830.663	17554
830.802	17474
830.941	17326
831.08	17379
831.219	17417
831.357	17512
831.496	17570
831.635	17425
831.774	17315
831.913	17265
832.051	17128
832.19	17246
832.329	17318
832.467	17151
832.606	17105
832.744	17079
832.883	17109
833.022	17136
833.16	17170
833.299	17105
833.437	17064
833.576	17113
833.714	17178
833.852	17083
833.991	17151
834.129	17227
834.267	17132
834.406	17216
834.544	17143
834.682	17113
834.821	17220
834.959	17318
835.097	17033
835.235	17265
835.373	17113
835.511	17166
835.65	17102
835.788	16972
835.926	16953
836.064	16828
836.202	16805
836.34	17045
836.478	17037
836.615	17041
836.753	17056
836.891	17132
837.029	17128
837.167	16892
837.305	16930
837.443	16953
837.58	16831
837.718	17003
837.856	16972
837.993	16828
838.131	16957
838.269	16820
838.406	16873
838.544	16809
838.681	16637
838.819	16550
838.956	16421
839.094	16485
839.231	16462
839.369	16546
839.506	16744
839.643	16721
839.781	16508
839.918	16508
840.055	16584
840.193	16554
840.33	16466
840.467	16474
840.604	16531
840.742	16637
840.879	16211
841.016	16318
841.153	16390
841.29	16569
841.427	16413
841.564	16580
841.701	16478
841.838	16405
841.975	16363
842.112	16333
842.249	16299
842.385	16246
842.522	16375
842.659	16249
842.796	16215
842.933	16230
843.069	16166
843.206	16101
843.343	16173
843.479	16188
843.616	16284
843.752	16036
843.889	16025
844.025	16265
844.162	16067
844.298	16074
844.435	15945
844.571	16013
844.708	16032
844.844	16188
844.98	16120
845.117	16071
845.253	16017
845.389	16002
845.525	16032
845.661	15987
845.798	15983
845.934	16029
846.07	16048
846.206	16116
846.342	16131
846.478	15876
846.614	15717
846.75	15523
846.886	15485
847.022	15701
847.158	15618
847.294	15580
847.429	15660
847.565	15500
847.701	15823
847.837	15230
847.972	15321
848.108	15348
848.244	15397
848.379	15245
848.515	15169
848.65	15108
848.786	15142
848.921	15252
849.057	15272
849.192	15310
849.328	15203
849.463	15256
849.598	15184
849.734	15176
849.869	15097
850.004	15009
850.14	14944
850.275	14979
850.41	14864
850.545	14944
850.68	14937
850.815	14982
850.95	15001
851.085	15062
851.22	15089
851.355	14952
851.49	14823
851.625	14857
851.76	14887
851.895	14819
852.03	14701
852.165	14948
852.299	15043
852.434	15104
852.569	15005
852.703	14925
852.838	15001
852.973	15058
853.107	15047
853.242	15020
853.376	14785
853.511	14712
853.645	14819
853.78	14952
853.914	14731
854.048	14815
854.183	14868
854.317	14834
854.451	14902
854.585	14819
854.72	14785
854.854	14933
854.988	14754
855.122	14773
855.256	14731
855.39	14777
855.524	15001
855.658	14830
855.792	14857
855.926	14861
856.06	14880
856.194	14853
856.327	14864
856.461	14807
856.595	14739
856.729	14838
856.862	14956
856.996	14727
857.13	14891
857.263	14826
857.397	14918
857.53	14861
857.664	14838
857.797	14906
857.931	14921
858.064	14716
858.197	14937
858.331	14834
858.464	14785
858.597	14606
858.731	14746
858.864	14899
858.997	14689
859.13	14811
859.263	14842
859.396	14929
859.529	14792
859.662	14887
859.795	14796
859.928	14842
860.061	14880
860.194	15009
860.327	14845
860.46	14800
860.592	14914
860.725	14956
860.858	14975
860.99	14781
861.123	14796
861.256	14788
861.388	14830
861.521	15530
861.653	14693
861.786	14606
861.918	14670
862.05	14724
862.183	14746
862.315	14811
862.447	14815
862.58	14792
862.712	14583
862.844	14537
862.976	14602
863.108	14590
863.24	15047
863.372	14457
863.504	14564
863.636	14571
863.768	14659
863.9	14636
864.032	14533
864.164	14480
864.296	14651
864.428	14682
864.559	14720
864.691	14701
864.823	14663
864.954	14598
865.086	14621
865.217	14594
865.349	14507
865.48	14511
865.612	14602
865.743	14773
865.875	14545
866.006	14594
866.137	14629
866.269	14575
866.4	14560
866.531	14606
866.662	14408
866.793	14579
866.924	14514
867.055	14629
867.186	14594
867.317	14533
867.448	14423
867.579	14629
867.71	14347
867.841	14499
867.972	14488
868.103	14541
868.233	14571
868.364	14568
868.495	14800
868.625	14750
868.756	14883
868.886	14804
869.017	14781
869.147	14861
869.278	14952
869.408	14883
869.539	14864
869.669	14971
869.799	14826
869.929	14998
870.06	14944
870.19	15214
870.32	15017
870.45	15180
870.58	15123
870.71	15310
870.84	15397
870.97	15188
871.1	15176
871.23	15317
871.36	15401
871.489	15283
871.619	15443
871.749	15435
871.879	15420
872.008	15496
872.138	15431
872.267	15424
872.397	15275
872.526	15291
872.656	15241
872.785	15211
872.915	15469
873.044	15511
873.173	15538
873.303	15408
873.432	15580
873.561	15553
873.69	15458
873.819	15526
873.948	15641
874.077	15496
874.206	15374
874.335	15393
874.464	15618
874.593	15736
874.722	15648
874.851	15873
874.979	15785
875.108	15888
875.237	15732
875.365	15709
875.494	15755
875.623	15842
875.751	15797
875.88	15804
876.008	15899
876.136	16071
876.265	16185
876.393	16318
876.521	16287
876.65	16299
876.778	16284
876.906	16154
877.034	16105
877.162	16238
877.29	16181
877.418	16078
877.546	16219
877.674	16124
877.802	16246
877.93	16238
878.058	16162
878.185	16010
878.313	16238
878.441	16181
878.568	16074
878.696	16211
878.824	16196
878.951	16322
879.079	16413
879.206	16634
879.333	16504
879.461	16432
879.588	16424
879.715	16470
879.842	16500
879.97	16466
880.097	16112
880.224	16116
880.351	16177
880.478	16173
880.605	16006
880.732	16166
880.859	16310
880.986	16105
881.112	16044
881.239	15941
881.366	15808
881.493	15713
881.619	15846
881.746	15789
881.872	15766
881.999	15724
882.125	15622
882.252	15774
882.378	15766
882.505	15823
882.631	15743
882.757	15580
882.883	15606
883.01	15511
883.136	15534
883.262	15393
883.388	15477
883.514	15580
883.64	15549
883.766	15469
883.892	15386
884.018	15367
884.143	15553
884.269	15629
884.395	15428
884.52	15321
884.646	15207
884.772	15150
884.897	15214
885.023	15195
885.148	15374
885.274	15401
885.399	15428
885.524	15313
885.65	15169
885.775	15294
885.9	15161
886.025	15351
886.15	15218
886.275	15279
886.4	15211
886.525	15237
886.65	15169
886.775	15207
886.9	15469
887.025	15408
887.149	15245
887.274	15131
887.399	15028
887.523	15138
887.648	14883
887.773	14941
887.897	15150
888.021	15169
888.146	15032
888.27	15070
888.395	15260
888.519	15112
888.643	15066
888.767	15142
888.891	14998
889.015	14925
889.139	14895
889.263	14906
889.387	14998
889.511	15089
889.635	15077
889.759	14868
889.883	14815
890.006	14830
890.13	15005
890.254	14762
890.377	14906
890.501	14697
890.624	14689
890.748	14762
890.871	14648
890.995	14503
891.118	14488
891.241	14617
891.364	14610
891.488	14594
891.611	14495
891.734	14613
891.857	14598
891.98	14560
892.103	14636
892.226	14644
892.349	14625
892.471	14541
892.594	14564
892.717	14663
892.839	14549
892.962	14602
893.085	14625
893.207	14541
893.33	14427
893.452	14522
893.575	14708
893.697	14545
893.819	14705
893.941	14762
894.064	14651
894.186	14533
894.308	14587
894.43	14788
894.552	14804
894.674	14674
894.796	14484
894.918	14617
895.04	14644
895.161	14697
895.283	14686
895.405	14678
895.526	14629
895.648	14640
895.769	14689
895.891	14758
896.012	14773
896.134	14830
896.255	14724
896.376	14727
896.498	14743
896.619	14792
896.74	14731
896.861	14819
896.982	15047
897.103	15264
897.224	15017
897.345	15058
897.466	14929
897.587	15017
897.708	15165
897.828	15108
897.949	15032
898.07	14883
898.19	15043
898.311	15108
898.431	15024
898.552	15032
898.672	15203
898.792	15135
898.913	15116
899.033	14982
899.153	14967
899.273	14807
899.393	14899
899.513	14967
899.633	14937
899.753	14902
899.873	14925
899.993	14921
900.113	14864
900.232	14895
900.352	14857
900.472	14895
900.591	14712
900.711	14872
900.83	14659
900.95	14815
901.069	14910
901.189	14735
901.308	14450
901.427	14381
901.546	14374
901.665	14556
901.784	14427
901.904	14370
902.023	14313
902.141	14107
902.26	14024
902.379	14062
902.498	14077
902.617	13959
902.735	14024
902.854	13921
902.973	13932
903.091	13753
903.21	13788
903.328	13734
903.446	13662
903.565	13552
903.683	13605
903.801	13434
903.919	13495
904.038	13559
904.156	13339
904.274	13483
904.392	13320
904.51	13289
904.627	13396
904.745	13392
904.863	13377
904.981	13171
905.098	12993
905.216	13129
905.334	13118
905.451	13057
905.569	13061
905.686	13091
905.803	12989
905.921	12928
906.038	13008
906.155	12878
906.272	12852
906.389	12829
906.506	12677
906.623	12639
906.74	12658
906.857	12506
906.974	12540
907.091	12734
907.208	12779
907.324	12639
907.441	12574
907.557	12361
907.674	12433
907.79	12346
907.907	12319
908.023	12433
908.139	12448
908.256	12319
908.372	12323
908.488	12251
908.604	12205
908.72	12129
908.836	12117
908.952	12034
909.068	12178
909.184	12311
909.3	12186
909.415	12205
909.531	12178
909.647	11988
909.762	11908
909.878	11923
909.993	11946
910.108	11828
910.224	11958
910.339	12015
910.454	11836
910.57	11790
910.685	11695
910.8	11992
910.915	11973
911.03	11802
911.145	11592
911.259	11638
911.374	11562
911.489	11570
911.604	11505
911.718	11337
911.833	11436
911.947	11250
912.062	11284
912.176	11360
912.291	11315
912.405	11372
912.519	11516
912.633	11562
912.748	11463
912.862	11330
912.976	11246
913.09	11178
913.204	11185
913.318	11246
913.431	11261
913.545	11353
913.659	11421
913.772	11220
913.886	11113
914	11113
914.113	11193
914.226	11296
914.34	11227
914.453	10984
914.566	11166
914.68	11045
914.793	11060
914.906	10908
915.019	10847
915.132	10759
915.245	10786
915.358	10892
915.47	10782
915.583	10767
915.696	10843
915.809	10965
915.921	10953
916.034	10793
916.146	10797
916.259	10774
916.371	10816
916.483	10862
916.595	10816
916.708	10809
916.82	10858
916.932	10714
917.044	10744
917.156	10698
917.268	10634
917.38	10668
917.491	10637
917.603	10679
917.715	10717
917.826	10755
917.938	10729
918.049	10584
918.161	10721
918.272	10759
918.384	10729
918.495	10634
918.606	10500
918.717	10497
918.828	10550
918.939	10512
919.05	10398
919.161	10485
919.272	10348
919.383	10398
919.494	10538
919.604	10755
919.715	10565
919.826	10512
919.936	10470
920.047	10596
920.157	10580
920.267	10755
920.378	10611
920.488	10531
920.598	10717
920.708	10839
920.818	10767
920.928	10759
921.038	10927
921.148	10809
921.258	10561
921.368	10508
921.477	10402
921.587	10440
921.697	10337
921.806	10440
921.916	10291
922.025	10139
922.134	10067
922.244	10021
922.353	10158
922.462	9953
922.571	9960
922.68	9842
922.789	9736
922.898	9793
923.007	9740
923.116	9846
923.224	9751
923.333	9759
923.442	9671
923.55	9637
923.659	9701
923.767	9781
923.876	9679
923.984	9701
924.092	9557
924.201	9625
924.309	9641
924.417	9713
924.525	9587
924.633	9572
924.741	10246
924.849	9359
924.956	9542
925.064	9416
925.172	9279
925.279	9401
925.387	9416
925.494	9435
925.602	9519
925.709	9412
925.816	9348
925.924	9397
926.031	9431
926.138	9420
926.245	9469
926.352	9374
926.459	9416
926.566	9488
926.673	9367
926.779	9203
926.886	9233
926.993	9081
927.099	9116
927.206	9062
927.312	9005
927.419	9176
927.525	9062
927.631	9127
927.737	9024
927.843	8986
927.95	8880
928.056	8979
928.162	8937
928.267	9100
928.373	9701
928.479	9077
928.585	8872
928.69	9058
928.796	9070
928.901	8948
929.007	8807
929.112	8872
929.218	8853
929.323	8754
929.428	8796
929.533	8963
929.638	8754
929.743	8823
929.848	8902
929.953	8769
930.058	8693
930.163	8560
930.267	8575
930.372	8731
930.477	8556
930.581	8838
930.685	8727
930.79	8556
930.894	8674
930.998	8526
931.103	8629
931.207	8355
931.311	8244
931.415	8119
931.519	8077
931.623	8035
