Data from test_V78500241_1765.txt Node
Date: Fri Mar 25 14:46:00 CST 2022
User: usil
Spectrometer: V785-0024
Trigger mode: 0
Integration Time (sec): 4.000000E-1
Scans to average: 1
Nonlinearity correction enabled: false
Boxcar width: 0
Storing dark spectrum: false
XAxis mode: Wavelengths
Number of Pixels in Spectrum: 1024
>>>>>Begin Spectral Data<<<<<
801.071	22177
801.214	22154
801.356	21800
801.499	21717
801.641	21603
801.783	21488
801.926	21481
802.068	21454
802.211	21355
802.353	21431
802.496	21169
802.638	21131
802.78	21104
802.923	20956
803.065	20845
803.208	20826
803.35	20857
803.492	20906
803.635	21055
803.777	20914
803.919	20891
804.061	21249
804.204	21024
804.346	20895
804.488	20796
804.63	20883
804.773	20746
804.915	20834
805.057	20868
805.199	20724
805.341	20929
805.483	20857
805.626	20853
805.768	20891
805.91	20857
806.052	20788
806.194	20689
806.336	20819
806.478	20819
806.62	20765
806.762	20902
806.904	20967
807.046	21180
807.188	21108
807.33	21066
807.472	21150
807.614	20982
807.756	21131
807.898	20785
808.04	20834
808.182	20861
808.324	20895
808.465	20937
808.607	21066
808.749	21272
808.891	21302
809.033	21294
809.174	21192
809.316	21135
809.458	21112
809.6	21154
809.741	21252
809.883	21332
810.025	21291
810.166	21283
810.308	21313
810.45	21367
810.591	21211
810.733	21093
810.875	20990
811.016	20845
811.158	20910
811.299	20990
811.441	21005
811.582	21024
811.724	20990
811.865	20887
812.007	21001
812.148	21020
812.29	20967
812.431	21100
812.573	21344
812.714	21332
812.855	21485
812.997	21599
813.138	21743
813.279	21507
813.421	21485
813.562	21340
813.703	21096
813.845	21131
813.986	20891
814.127	20655
814.268	20552
814.41	20667
814.551	20587
814.692	20568
814.833	20358
814.974	20400
815.115	20495
815.256	20484
815.397	20366
815.539	20298
815.68	20229
815.821	20161
815.962	20347
816.103	20229
816.244	20130
816.385	20062
816.526	19955
816.666	19852
816.807	19757
816.948	19757
817.089	19761
817.23	19693
817.371	19655
817.512	19601
817.653	19628
817.793	19567
817.934	19537
818.075	19750
818.216	19635
818.356	19643
818.497	19460
818.638	19301
818.778	19263
818.919	19377
819.06	19430
819.2	19449
819.341	19502
819.481	19445
819.622	19616
819.762	19845
819.903	19750
820.043	19639
820.184	19548
820.324	19693
820.465	19750
820.605	19643
820.746	19559
820.886	19483
821.026	19609
821.167	19575
821.307	19647
821.447	19556
821.588	19388
821.728	19350
821.868	19187
822.008	19031
822.149	18932
822.289	18890
822.429	18779
822.569	18677
822.709	18772
822.849	18433
822.99	18540
823.13	18589
823.27	18380
823.41	18361
823.55	18239
823.69	18334
823.83	18342
823.97	18239
824.11	18144
824.25	18049
824.389	18178
824.529	18083
824.669	18121
824.809	18209
824.949	18323
825.089	18148
825.228	18186
825.368	17942
825.508	17931
825.648	18026
825.787	17958
825.927	17992
826.067	17870
826.206	17798
826.346	17920
826.485	17904
826.625	17836
826.765	18034
826.904	18011
827.044	17649
827.183	17611
827.323	17520
827.462	17611
827.601	17627
827.741	17558
827.88	17608
828.02	17444
828.159	17589
828.298	17570
828.437	17649
828.577	17444
828.716	17619
828.855	17509
828.994	17353
829.134	17356
829.273	17383
829.412	17296
829.551	17326
829.69	17353
829.829	17315
829.968	17379
830.107	17345
830.246	17360
830.385	17284
830.524	17200
830.663	17113
830.802	17075
830.941	16877
831.08	16946
831.219	16999
831.357	16957
831.496	17151
831.635	16881
831.774	16904
831.913	16854
832.051	16672
832.19	16839
832.329	16816
832.467	16645
832.606	16660
832.744	16622
832.883	16656
833.022	16573
833.16	16656
833.299	16618
833.437	16759
833.576	16721
833.714	16687
833.852	16622
833.991	16721
834.129	16835
834.267	16771
834.406	16618
834.544	16717
834.682	16706
834.821	16717
834.959	16911
835.097	16812
835.235	16885
835.373	16721
835.511	16710
835.65	16519
835.788	16637
835.926	16386
836.064	16447
836.202	16527
836.34	16611
836.478	16641
836.615	16504
836.753	16679
836.891	16740
837.029	16691
837.167	16561
837.305	16542
837.443	16497
837.58	16428
837.718	16622
837.856	16478
837.993	16519
838.131	16466
838.269	16367
838.406	16314
838.544	16402
838.681	16166
838.819	16082
838.956	15876
839.094	16002
839.231	16078
839.369	16093
839.506	16440
839.643	16291
839.781	16143
839.918	15987
840.055	16093
840.193	15930
840.33	15968
840.467	15930
840.604	15915
840.742	16352
840.879	15846
841.016	15983
841.153	15869
841.29	16017
841.427	16002
841.564	16032
841.701	15994
841.838	15953
841.975	15861
842.112	15972
842.249	15880
842.385	15717
842.522	15930
842.659	15743
842.796	15766
842.933	15766
843.069	15736
843.206	15770
843.343	15899
843.479	15816
843.616	15823
843.752	15485
843.889	15591
844.025	15774
844.162	15443
844.298	15686
844.435	15584
844.571	15504
844.708	15663
844.844	15705
844.98	15739
845.117	15584
845.253	15534
845.389	15431
845.525	15466
845.661	15519
845.798	15386
845.934	15397
846.07	15306
846.206	15408
846.342	15568
846.478	15389
846.614	15131
846.75	15157
846.886	15192
847.022	15214
847.158	15180
847.294	15192
847.429	15195
847.565	15127
847.701	15291
847.837	14853
847.972	14815
848.108	15074
848.244	14918
848.379	14834
848.515	14632
848.65	14670
848.786	14720
848.921	14754
849.057	14830
849.192	14811
849.328	14823
849.463	14750
849.598	14659
849.734	14746
849.869	14689
850.004	14537
850.14	14568
850.275	14530
850.41	14412
850.545	14434
850.68	14393
850.815	14507
850.95	14438
851.085	14674
851.22	14674
851.355	14507
851.49	14465
851.625	14404
851.76	14480
851.895	14450
852.03	14370
852.165	14484
852.299	14514
852.434	14507
852.569	14587
852.703	14606
852.838	14568
852.973	14640
853.107	14632
853.242	14473
853.376	14400
853.511	14259
853.645	14301
853.78	14610
853.914	14301
854.048	14385
854.183	14385
854.317	14431
854.451	14507
854.585	14381
854.72	14351
854.854	14442
854.988	14374
855.122	14343
855.256	14259
855.39	14275
855.524	14450
855.658	14480
855.792	14332
855.926	14476
856.06	14541
856.194	14507
856.327	14404
856.461	14366
856.595	14305
856.729	14366
856.862	14492
856.996	14465
857.13	14469
857.263	14571
857.397	14560
857.53	14438
857.664	14404
857.797	14362
857.931	14579
858.064	14511
858.197	14511
858.331	14412
858.464	14408
858.597	14393
858.731	14370
858.864	14339
858.997	14328
859.13	14518
859.263	14442
859.396	14499
859.529	14370
859.662	14393
859.795	14366
859.928	14499
860.061	14629
860.194	14514
860.327	14446
860.46	14393
860.592	14465
860.725	14480
860.858	14560
860.99	14499
861.123	14355
861.256	14374
861.388	14476
861.521	15150
861.653	14336
861.786	14305
861.918	14290
862.05	14328
862.183	14347
862.315	14385
862.447	14457
862.58	14351
862.712	14164
862.844	14115
862.976	14233
863.108	14252
863.24	14579
863.372	14111
863.504	14221
863.636	14183
863.768	14183
863.9	14221
864.032	14054
864.164	14161
864.296	14183
864.428	14336
864.559	14252
864.691	14263
864.823	14248
864.954	14202
865.086	14275
865.217	14161
865.349	14153
865.48	14286
865.612	14248
865.743	14278
865.875	14206
866.006	14096
866.137	14161
866.269	14191
866.4	14119
866.531	14142
866.662	14130
866.793	14077
866.924	14073
867.055	14191
867.186	14142
867.317	14138
867.448	14005
867.579	14077
867.71	14084
867.841	14100
867.972	14111
868.103	14161
868.233	14195
868.364	14149
868.495	14256
868.625	14412
868.756	14533
868.886	14320
869.017	14396
869.147	14473
869.278	14552
869.408	14495
869.539	14514
869.669	14549
869.799	14457
869.929	14541
870.06	14579
870.19	14663
870.32	14731
870.45	14826
870.58	14731
870.71	14956
870.84	14845
870.97	14724
871.1	14868
871.23	14990
871.36	15093
871.489	14861
871.619	14948
871.749	14963
871.879	14979
872.008	15062
872.138	15028
872.267	14937
872.397	14880
872.526	14807
872.656	14853
872.785	14857
872.915	15013
873.044	15077
873.173	15017
873.303	15081
873.432	15154
873.561	15074
873.69	15043
873.819	15047
873.948	15199
874.077	15074
874.206	15081
874.335	15097
874.464	15268
874.593	15310
874.722	15264
874.851	15431
874.979	15329
875.108	15386
875.237	15367
875.365	15260
875.494	15230
875.623	15428
875.751	15386
875.88	15443
876.008	15477
876.136	15656
876.265	15823
876.393	16044
876.521	15949
876.65	15884
876.778	15926
876.906	15759
877.034	15736
877.162	15793
877.29	15770
877.418	15766
877.546	15713
877.674	15850
877.802	15804
877.93	15861
878.058	15800
878.185	15667
878.313	15747
878.441	15804
878.568	15591
878.696	15720
878.824	15781
878.951	15895
879.079	16025
879.206	16124
879.333	15975
879.461	15766
879.588	15922
879.715	16101
879.842	16135
879.97	15770
880.097	15580
880.224	15572
880.351	15667
880.478	15728
880.605	15622
880.732	15584
880.859	15880
880.986	15660
881.112	15690
881.239	15412
881.366	15435
881.493	15401
881.619	15279
881.746	15363
881.872	15302
881.999	15222
882.125	15230
882.252	15393
882.378	15283
882.505	15485
882.631	15211
882.757	15150
882.883	15233
883.01	15180
883.136	15020
883.262	15039
883.388	14906
883.514	15085
883.64	15169
883.766	15013
883.892	14861
884.018	15005
884.143	15131
884.269	15184
884.395	14891
884.52	14838
884.646	14823
884.772	14697
884.897	14613
885.023	14842
885.148	14902
885.274	14956
885.399	14796
885.524	14834
885.65	14830
885.775	14834
885.9	14842
886.025	14868
886.15	14906
886.275	14834
886.4	14758
886.525	14811
886.65	14716
886.775	14640
886.9	14872
887.025	15104
887.149	14781
887.274	14777
887.399	14640
887.523	14590
887.648	14545
887.773	14568
887.897	14701
888.021	14644
888.146	14590
888.27	14705
888.395	14861
888.519	14739
888.643	14701
888.767	14746
888.891	14575
889.015	14438
889.139	14552
889.263	14431
889.387	14598
889.511	14743
889.635	14568
889.759	14556
889.883	14480
890.006	14503
890.13	14579
890.254	14366
890.377	14469
890.501	14313
890.624	14290
890.748	14351
890.871	14294
890.995	14164
891.118	14176
891.241	14214
891.364	14244
891.488	14252
891.611	14134
891.734	14168
891.857	14218
891.98	14161
892.103	14317
892.226	14305
892.349	14225
892.471	14073
892.594	14229
892.717	14145
892.839	14195
892.962	14237
893.085	14317
893.207	14263
893.33	14065
893.452	14157
893.575	14298
893.697	14214
893.819	14370
893.941	14313
894.064	14343
894.186	14206
894.308	14164
894.43	14328
894.552	14385
894.674	14320
894.796	14202
894.918	14256
895.04	14259
895.161	14351
895.283	14313
895.405	14252
895.526	14271
895.648	14343
895.769	14324
895.891	14358
896.012	14446
896.134	14419
896.255	14476
896.376	14271
896.498	14396
896.619	14442
896.74	14381
896.861	14461
896.982	14682
897.103	14868
897.224	14636
897.345	14583
897.466	14579
897.587	14632
897.708	14735
897.828	14697
897.949	14674
898.07	14537
898.19	14594
898.311	14716
898.431	14674
898.552	14575
898.672	14853
898.792	14845
898.913	14667
899.033	14674
899.153	14556
899.273	14434
899.393	14541
899.513	14537
899.633	14514
899.753	14533
899.873	14610
899.993	14583
900.113	14556
900.232	14632
900.352	14503
900.472	14552
900.591	14305
900.711	14366
900.83	14328
900.95	14503
901.069	14545
901.189	14434
901.308	14172
901.427	14005
901.546	14119
901.665	14187
901.784	14111
901.904	13898
902.023	14001
902.141	13712
902.26	13662
902.379	13712
902.498	13651
902.617	13696
902.735	13769
902.854	13620
902.973	13639
903.091	13384
903.21	13407
903.328	13419
903.446	13335
903.565	13301
903.683	13232
903.801	13187
903.919	13179
904.038	13228
904.156	13053
904.274	13194
904.392	13061
904.51	12985
904.627	13053
904.745	13110
904.863	13084
904.981	12848
905.098	12768
905.216	12654
905.334	12825
905.451	12719
905.569	12639
905.686	12772
905.803	12734
905.921	12513
906.038	12631
906.155	12574
906.272	12521
906.389	12464
906.506	12334
906.623	12361
906.74	12376
906.857	12239
906.974	12323
907.091	12369
907.208	12467
907.324	12403
907.441	12285
907.557	12007
907.674	12034
907.79	12068
907.907	12007
908.023	12095
908.139	12057
908.256	11980
908.372	11984
908.488	11882
908.604	11901
908.72	11786
908.836	11889
908.952	11863
909.068	11805
909.184	11863
909.3	11847
909.415	11855
909.531	11901
909.647	11699
909.762	11634
909.878	11585
909.993	11684
910.108	11581
910.224	11535
910.339	11634
910.454	11551
910.57	11459
910.685	11398
910.8	11665
910.915	11516
911.03	11524
911.145	11383
911.259	11299
911.374	11277
911.489	11242
911.604	11235
911.718	11064
911.833	11147
911.947	10984
912.062	10885
912.176	10980
912.291	11064
912.405	11071
912.519	11258
912.633	11216
912.748	11250
912.862	11105
912.976	10976
913.09	10816
913.204	10885
913.318	10972
913.431	11064
913.545	11003
913.659	10987
913.772	10927
913.886	10812
914	10763
914.113	10889
914.226	11022
914.34	10911
914.453	10736
914.566	10900
914.68	10702
914.793	10729
914.906	10622
915.019	10519
915.132	10546
915.245	10569
915.358	10618
915.47	10641
915.583	10577
915.696	10599
915.809	10683
915.921	10771
916.034	10459
916.146	10542
916.259	10459
916.371	10634
916.483	10485
916.595	10459
916.708	10527
916.82	10527
916.932	10451
917.044	10474
917.156	10478
917.268	10360
917.38	10405
917.491	10322
917.603	10382
917.715	10440
917.826	10535
917.938	10402
918.049	10261
918.161	10341
918.272	10485
918.384	10443
918.495	10363
918.606	10276
918.717	10223
918.828	10234
918.939	10337
919.05	10192
919.161	10280
919.272	9979
919.383	10242
919.494	10272
919.604	10447
919.715	10386
919.826	10265
919.936	10306
920.047	10367
920.157	10402
920.267	10466
920.378	10348
920.488	10280
920.598	10447
920.708	10558
920.818	10478
920.928	10489
921.038	10675
921.148	10656
921.258	10363
921.368	10196
921.477	10166
921.587	10112
921.697	9991
921.806	10200
921.916	10044
922.025	9865
922.134	9846
922.244	9766
922.353	9880
922.462	9812
922.571	9667
922.68	9599
922.789	9584
922.898	9603
923.007	9515
923.116	9557
923.224	9584
923.333	9564
923.442	9408
923.55	9481
923.659	9481
923.767	9473
923.876	9401
923.984	9462
924.092	9389
924.201	9431
924.309	9416
924.417	9462
924.525	9336
924.633	9458
924.741	10284
924.849	9218
924.956	9367
925.064	9253
925.172	9154
925.279	9222
925.387	9241
925.494	9264
925.602	9351
925.709	9351
925.816	9119
925.924	9230
926.031	9275
926.138	9241
926.245	9249
926.352	9150
926.459	9313
926.566	9359
926.673	9218
926.779	9104
926.886	9097
926.993	8975
927.099	8948
927.206	8887
927.312	8902
927.419	8872
927.525	8986
927.631	8967
927.737	8849
927.843	8823
927.95	8693
928.056	8785
928.162	8857
928.267	8933
928.373	9557
928.479	8929
928.585	8686
928.69	8883
928.796	8834
928.901	8746
929.007	8621
929.112	8766
929.218	8720
929.323	8632
929.428	8617
929.533	8785
929.638	8606
929.743	8625
929.848	8659
929.953	8640
930.058	8545
930.163	8385
930.267	8461
930.372	8556
930.477	8408
930.581	8689
930.685	8495
930.79	8362
930.894	8442
930.998	8358
931.103	8446
931.207	8153
931.311	8100
931.415	8035
931.519	7833
931.623	7818
