Data from test_V78500241_1211.txt Node
Date: Fri Mar 25 14:42:08 CST 2022
User: usil
Spectrometer: V785-0024
Trigger mode: 0
Integration Time (sec): 4.000000E-1
Scans to average: 1
Nonlinearity correction enabled: false
Boxcar width: 0
Storing dark spectrum: false
XAxis mode: Wavelengths
Number of Pixels in Spectrum: 1024
>>>>>Begin Spectral Data<<<<<
801.071	22421
801.214	22348
801.356	22006
801.499	21869
801.641	21781
801.783	21728
801.926	21857
802.068	21610
802.211	21663
802.353	21545
802.496	21249
802.638	21188
802.78	21272
802.923	21066
803.065	21119
803.208	21112
803.35	21165
803.492	21214
803.635	21268
803.777	21100
803.919	21275
804.061	21431
804.204	21119
804.346	20990
804.488	20982
804.63	20967
804.773	21009
804.915	20982
805.057	21230
805.199	21047
805.341	21081
805.483	21066
805.626	20990
805.768	20910
805.91	21096
806.052	21028
806.194	20971
806.336	21203
806.478	21062
806.62	20941
806.762	21058
806.904	21241
807.046	21435
807.188	21424
807.33	21332
807.472	21367
807.614	21332
807.756	21386
807.898	21085
808.04	21176
808.182	21119
808.324	21173
808.465	21173
808.607	21252
808.749	21538
808.891	21542
809.033	21686
809.174	21564
809.316	21511
809.458	21507
809.6	21530
809.741	21431
809.883	21481
810.025	21652
810.166	21469
810.308	21485
810.45	21534
810.591	21454
810.733	21393
810.875	21310
811.016	21169
811.158	21024
811.299	21218
811.441	21272
811.582	21249
811.724	21313
811.865	21237
812.007	21142
812.148	21165
812.29	21237
812.431	21294
812.573	21606
812.714	21606
812.855	21717
812.997	21838
813.138	21998
813.279	21895
813.421	21603
813.562	21694
813.703	21606
813.845	21367
813.986	21116
814.127	20986
814.268	20720
814.41	20754
814.551	20697
814.692	20781
814.833	20674
814.974	20655
815.115	20769
815.256	20598
815.397	20442
815.539	20606
815.68	20358
815.821	20362
815.962	20552
816.103	20533
816.244	20263
816.385	20233
816.526	20301
816.666	20119
816.807	19947
816.948	20111
817.089	19989
817.23	19944
817.371	19944
817.512	20020
817.653	19959
817.793	19811
817.934	19890
818.075	19917
818.216	19974
818.356	19765
818.497	19731
818.638	19689
818.778	19556
818.919	19567
819.06	19620
819.2	19658
819.341	19784
819.481	19719
819.622	19879
819.762	19993
819.903	19986
820.043	19947
820.184	19906
820.324	19887
820.465	20016
820.605	19932
820.746	19860
820.886	19791
821.026	19841
821.167	19860
821.307	19951
821.447	19879
821.588	19655
821.728	19605
821.868	19514
822.008	19289
822.149	19217
822.289	19141
822.429	18985
822.569	19023
822.709	18993
822.849	18757
822.99	18856
823.13	18817
823.27	18833
823.41	18593
823.55	18544
823.69	18631
823.83	18589
823.97	18521
824.11	18346
824.25	18369
824.389	18452
824.529	18536
824.669	18437
824.809	18437
824.949	18452
825.089	18384
825.228	18369
825.368	18095
825.508	18209
825.648	18220
825.787	18152
825.927	18216
826.067	18155
826.206	18140
826.346	18258
826.485	18174
826.625	18072
826.765	18258
826.904	18194
827.044	18019
827.183	17916
827.323	17798
827.462	17824
827.601	17840
827.741	17863
827.88	17786
828.02	17687
828.159	17866
828.298	17828
828.437	17813
828.577	17832
828.716	17984
828.855	17790
828.994	17619
829.134	17611
829.273	17577
829.412	17596
829.551	17520
829.69	17623
829.829	17661
829.968	17764
830.107	17710
830.246	17619
830.385	17691
830.524	17592
830.663	17353
830.802	17261
830.941	17254
831.08	17197
831.219	17349
831.357	17311
831.496	17410
831.635	17239
831.774	17220
831.913	17140
832.051	16957
832.19	17033
832.329	17041
832.467	17033
832.606	16984
832.744	16835
832.883	16946
833.022	16915
833.16	16930
833.299	16987
833.437	16953
833.576	16995
833.714	16995
833.852	17003
833.991	16904
834.129	17117
834.267	17014
834.406	16908
834.544	17079
834.682	17064
834.821	17003
834.959	17079
835.097	16961
835.235	17025
835.373	17045
835.511	16980
835.65	16946
835.788	16809
835.926	16790
836.064	16778
836.202	16675
836.34	16919
836.478	16873
836.615	16877
836.753	16877
836.891	16953
837.029	16885
837.167	16839
837.305	16850
837.443	16858
837.58	16721
837.718	16812
837.856	16664
837.993	16755
838.131	16656
838.269	16615
838.406	16698
838.544	16713
838.681	16440
838.819	16447
838.956	16314
839.094	16371
839.231	16402
839.369	16466
839.506	16733
839.643	16607
839.781	16325
839.918	16333
840.055	16390
840.193	16329
840.33	16272
840.467	16428
840.604	16390
840.742	16573
840.879	16230
841.016	16234
841.153	16276
841.29	16310
841.427	16287
841.564	16344
841.701	16402
841.838	16268
841.975	16150
842.112	16303
842.249	16044
842.385	15987
842.522	16333
842.659	16150
842.796	16021
842.933	16196
843.069	16002
843.206	16055
843.343	16173
843.479	16215
843.616	16143
843.752	15899
843.889	15926
844.025	16006
844.162	15934
844.298	16013
844.435	15903
844.571	15869
844.708	15907
844.844	16078
844.98	16002
845.117	16032
845.253	15838
845.389	15854
845.525	15800
845.661	15888
845.798	15671
845.934	15869
846.07	15709
846.206	15880
846.342	15876
846.478	15656
846.614	15576
846.75	15473
846.886	15424
847.022	15526
847.158	15545
847.294	15393
847.429	15504
847.565	15458
847.701	15701
847.837	15154
847.972	15131
848.108	15214
848.244	15291
848.379	15123
848.515	14944
848.65	15036
848.786	14967
848.921	15127
849.057	15157
849.192	15169
849.328	15081
849.463	15131
849.598	15077
849.734	14918
849.869	14838
850.004	14887
850.14	14982
850.275	14769
850.41	14701
850.545	14739
850.68	14834
850.815	14746
850.95	14788
851.085	14944
851.22	14963
851.355	14804
851.49	14701
851.625	14781
851.76	14826
851.895	14670
852.03	14769
852.165	14731
852.299	14872
852.434	14849
852.569	14785
852.703	14849
852.838	14864
852.973	14956
853.107	15017
853.242	14785
853.376	14697
853.511	14594
853.645	14693
853.78	14971
853.914	14632
854.048	14674
854.183	14636
854.317	14663
854.451	14845
854.585	14640
854.72	14686
854.854	14716
854.988	14564
855.122	14617
855.256	14587
855.39	14727
855.524	14777
855.658	14750
855.792	14678
855.926	14739
856.06	14682
856.194	14754
856.327	14693
856.461	14667
856.595	14674
856.729	14575
856.862	14811
856.996	14788
857.13	14785
857.263	14823
857.397	14834
857.53	14678
857.664	14735
857.797	14735
857.931	14773
858.064	14765
858.197	14727
858.331	14651
858.464	14590
858.597	14640
858.731	14678
858.864	14644
858.997	14617
859.13	14674
859.263	14689
859.396	14754
859.529	14663
859.662	14659
859.795	14648
859.928	14655
860.061	14785
860.194	14815
860.327	14727
860.46	14629
860.592	14754
860.725	14899
860.858	14735
860.99	14731
861.123	14598
861.256	14606
861.388	14697
861.521	15382
861.653	14537
861.786	14552
861.918	14545
862.05	14667
862.183	14705
862.315	14716
862.447	14716
862.58	14682
862.712	14598
862.844	14454
862.976	14606
863.108	14507
863.24	15108
863.372	14419
863.504	14522
863.636	14587
863.768	14556
863.9	14457
864.032	14442
864.164	14461
864.296	14495
864.428	14697
864.559	14568
864.691	14587
864.823	14495
864.954	14552
865.086	14579
865.217	14526
865.349	14404
865.48	14488
865.612	14492
865.743	14644
865.875	14514
866.006	14492
866.137	14465
866.269	14488
866.4	14461
866.531	14343
866.662	14427
866.793	14381
866.924	14419
867.055	14473
867.186	14480
867.317	14465
867.448	14396
867.579	14431
867.71	14442
867.841	14400
867.972	14495
868.103	14484
868.233	14495
868.364	14541
868.495	14526
868.625	14758
868.756	14811
868.886	14594
869.017	14629
869.147	14845
869.278	14876
869.408	14739
869.539	14746
869.669	14785
869.799	14731
869.929	14960
870.06	14899
870.19	15036
870.32	15020
870.45	15043
870.58	15032
870.71	15249
870.84	15173
870.97	15123
871.1	15180
871.23	15344
871.36	15226
871.489	15146
871.619	15329
871.749	15321
871.879	15420
872.008	15481
872.138	15264
872.267	15317
872.397	15180
872.526	15192
872.656	15169
872.785	15127
872.915	15386
873.044	15496
873.173	15393
873.303	15344
873.432	15469
873.561	15504
873.69	15412
873.819	15340
873.948	15431
874.077	15370
874.206	15264
874.335	15447
874.464	15507
874.593	15614
874.722	15549
874.851	15576
874.979	15709
875.108	15603
875.237	15629
875.365	15466
875.494	15591
875.623	15804
875.751	15622
875.88	15755
876.008	15835
876.136	15956
876.265	16116
876.393	16207
876.521	16143
876.65	16093
876.778	16097
876.906	16105
877.034	16002
877.162	16025
877.29	15945
877.418	16078
877.546	16097
877.674	16120
877.802	16074
877.93	16025
878.058	16082
878.185	16071
878.313	16051
878.441	16181
878.568	15861
878.696	16032
878.824	16051
878.951	16196
879.079	16257
879.206	16447
879.333	16329
879.461	16192
879.588	16230
879.715	16265
879.842	16451
879.97	16188
880.097	16029
880.224	16063
880.351	15994
880.478	16025
880.605	15922
880.732	15911
880.859	16215
880.986	16002
881.112	15975
881.239	15823
881.366	15781
881.493	15656
881.619	15595
881.746	15614
881.872	15584
881.999	15663
882.125	15496
882.252	15625
882.378	15572
882.505	15724
882.631	15488
882.757	15382
882.883	15462
883.01	15447
883.136	15405
883.262	15321
883.388	15233
883.514	15530
883.64	15485
883.766	15321
883.892	15119
884.018	15298
884.143	15408
884.269	15439
884.395	15176
884.52	15142
884.646	15074
884.772	15036
884.897	14937
885.023	15157
885.148	15268
885.274	15188
885.399	15097
885.524	15123
885.65	15097
885.775	15135
885.9	15051
886.025	15180
886.15	15214
886.275	15116
886.4	14990
886.525	15188
886.65	15017
886.775	14979
886.9	15272
887.025	15443
887.149	15180
887.274	14960
887.399	14929
887.523	14910
887.648	14807
887.773	14804
887.897	15024
888.021	14975
888.146	14891
888.27	15062
888.395	15024
888.519	14956
888.643	15009
888.767	15043
888.891	14902
889.015	14830
889.139	14849
889.263	14705
889.387	14956
889.511	15005
889.635	14933
889.759	14819
889.883	14731
890.006	14876
890.13	14792
890.254	14724
890.377	14613
890.501	14625
890.624	14457
890.748	14697
890.871	14530
890.995	14469
891.118	14431
891.241	14488
891.364	14469
891.488	14590
891.611	14484
891.734	14503
891.857	14594
891.98	14522
892.103	14484
892.226	14465
892.349	14450
892.471	14366
892.594	14446
892.717	14484
892.839	14431
892.962	14423
893.085	14526
893.207	14427
893.33	14343
893.452	14385
893.575	14503
893.697	14431
893.819	14644
893.941	14678
894.064	14613
894.186	14400
894.308	14393
894.43	14674
894.552	14549
894.674	14560
894.796	14541
894.918	14518
895.04	14434
895.161	14571
895.283	14621
895.405	14450
895.526	14598
895.648	14564
895.769	14568
895.891	14667
896.012	14724
896.134	14625
896.255	14617
896.376	14617
896.498	14583
896.619	14689
896.74	14594
896.861	14830
896.982	14906
897.103	15161
897.224	14891
897.345	14872
897.466	14800
897.587	14887
897.708	14906
897.828	14986
897.949	14914
898.07	14826
898.19	14921
898.311	14952
898.431	14880
898.552	14891
898.672	15039
898.792	15089
898.913	14925
899.033	14842
899.153	14705
899.273	14727
899.393	14777
899.513	14826
899.633	14701
899.753	14887
899.873	14762
899.993	14895
900.113	14746
900.232	14819
900.352	14781
900.472	14693
900.591	14594
900.711	14697
900.83	14686
900.95	14724
901.069	14746
901.189	14564
901.308	14415
901.427	14282
901.546	14427
901.665	14328
901.784	14415
901.904	14347
902.023	14149
902.141	13932
902.26	13879
902.379	13959
902.498	13925
902.617	13818
902.735	13940
902.854	13898
902.973	13818
903.091	13700
903.21	13605
903.328	13658
903.446	13575
903.565	13403
903.683	13460
903.801	13468
903.919	13480
904.038	13434
904.156	13297
904.274	13384
904.392	13255
904.51	13289
904.627	13247
904.745	13312
904.863	13320
904.981	13114
905.098	12939
905.216	12947
905.334	12996
905.451	12924
905.569	12939
905.686	13023
905.803	12905
905.921	12795
906.038	13019
906.155	12806
906.272	12734
906.389	12768
906.506	12547
906.623	12582
906.74	12471
906.857	12452
906.974	12506
907.091	12555
907.208	12684
907.324	12597
907.441	12563
907.557	12281
907.674	12239
907.79	12190
907.907	12289
908.023	12319
908.139	12296
908.256	12270
908.372	12186
908.488	12239
908.604	12171
908.72	11988
908.836	12114
908.952	11996
909.068	12072
909.184	12106
909.3	12091
909.415	12144
909.531	12102
909.647	11847
909.762	11786
909.878	11790
909.993	11821
910.108	11813
910.224	11729
910.339	11790
910.454	11813
910.57	11668
910.685	11581
910.8	11920
910.915	11855
911.03	11695
911.145	11608
911.259	11452
911.374	11497
911.489	11554
911.604	11440
911.718	11269
911.833	11364
911.947	11265
912.062	11128
912.176	11235
912.291	11288
912.405	11280
912.519	11414
912.633	11532
912.748	11212
912.862	11269
912.976	11105
913.09	10999
913.204	11083
913.318	11216
913.431	11288
913.545	11227
913.659	11220
913.772	11094
913.886	11041
914	10953
914.113	11102
914.226	11166
914.34	11109
914.453	11003
914.566	11113
914.68	11037
914.793	10965
914.906	10744
915.019	10809
915.132	10698
915.245	10752
915.358	10793
915.47	10831
915.583	10866
915.696	10793
915.809	10953
915.921	10877
916.034	10771
916.146	10725
916.259	10653
916.371	10820
916.483	10744
916.595	10740
916.708	10687
916.82	10672
916.932	10691
917.044	10702
917.156	10725
917.268	10599
917.38	10542
917.491	10569
917.603	10626
917.715	10706
917.826	10691
917.938	10668
918.049	10470
918.161	10584
918.272	10683
918.384	10687
918.495	10615
918.606	10443
918.717	10363
918.828	10413
918.939	10440
919.05	10413
919.161	10500
919.272	10280
919.383	10314
919.494	10550
919.604	10725
919.715	10542
919.826	10402
919.936	10459
920.047	10538
920.157	10489
920.267	10649
920.378	10558
920.488	10394
920.598	10691
920.708	10767
920.818	10607
920.928	10634
921.038	10809
921.148	10771
921.258	10474
921.368	10375
921.477	10322
921.587	10284
921.697	10227
921.806	10276
921.916	10253
922.025	10074
922.134	10032
922.244	9937
922.353	10006
922.462	9907
922.571	9873
922.68	9740
922.789	9671
922.898	9728
923.007	9690
923.116	9759
923.224	9660
923.333	9682
923.442	9549
923.55	9458
923.659	9618
923.767	9720
923.876	9606
923.984	9637
924.092	9473
924.201	9542
924.309	9580
924.417	9603
924.525	9507
924.633	9485
924.741	10295
924.849	9291
924.956	9500
925.064	9348
925.172	9253
925.279	9363
925.387	9363
925.494	9355
925.602	9488
925.709	9408
925.816	9214
925.924	9340
926.031	9367
926.138	9351
926.245	9348
926.352	9226
926.459	9355
926.566	9424
926.673	9332
926.779	9241
926.886	9253
926.993	9028
927.099	9020
927.206	9024
927.312	8960
927.419	9108
927.525	9039
927.631	9058
927.737	9013
927.843	8979
927.95	8883
928.056	8906
928.162	9005
928.267	9081
928.373	9644
928.479	9020
928.585	8777
928.69	8948
928.796	8998
928.901	8796
929.007	8731
929.112	8838
929.218	8830
929.323	8800
929.428	8758
929.533	8910
929.638	8708
929.743	8750
929.848	8849
929.953	8735
930.058	8727
930.163	8545
930.267	8568
930.372	8697
930.477	8488
930.581	8785
930.685	8659
930.79	8408
930.894	8556
930.998	8446
931.103	8674
931.207	8336
931.311	8237
931.415	8168
931.519	7974
931.623	8050
