Data from test_V78500241_208.txt Node
Date: Fri Mar 25 14:35:10 CST 2022
User: usil
Spectrometer: V785-0024
Trigger mode: 0
Integration Time (sec): 4.000000E-1
Scans to average: 1
Nonlinearity correction enabled: false
Boxcar width: 0
Storing dark spectrum: false
XAxis mode: Wavelengths
Number of Pixels in Spectrum: 1024
>>>>>Begin Spectral Data<<<<<
801.071	28002
801.214	27968
801.356	27629
801.499	27530
801.641	27496
801.783	27427
801.926	27405
802.068	27241
802.211	27420
802.353	27264
802.496	27051
802.638	26990
802.78	26963
802.923	26937
803.065	26876
803.208	26849
803.35	26910
803.492	27066
803.635	27036
803.777	27047
803.919	27020
804.061	27351
804.204	27066
804.346	26906
804.488	26910
804.63	27001
804.773	26902
804.915	26960
805.057	26982
805.199	26849
805.341	26956
805.483	27005
805.626	26986
805.768	26853
805.91	26887
806.052	27017
806.194	26925
806.336	27199
806.478	27074
806.62	27005
806.762	27093
806.904	27367
807.046	27431
807.188	27367
807.33	27450
807.472	27500
807.614	27344
807.756	27481
807.898	27408
808.04	27256
808.182	27355
808.324	27500
808.465	27622
808.607	27861
808.749	27911
808.891	28280
809.033	28204
809.174	28158
809.316	27975
809.458	27899
809.6	27861
809.741	27728
809.883	27755
810.025	27819
810.166	27717
810.308	27892
810.45	27656
810.591	27701
810.733	27450
810.875	27473
811.016	27336
811.158	27310
811.299	27351
811.441	27439
811.582	27427
811.724	27370
811.865	27332
812.007	27439
812.148	27359
812.29	27412
812.431	27523
812.573	27644
812.714	27637
812.855	27800
812.997	27914
813.138	27972
813.279	28021
813.421	27899
813.562	27720
813.703	27576
813.845	27351
813.986	27298
814.127	27077
814.268	27005
814.41	26998
814.551	26876
814.692	27047
814.833	26868
814.974	26910
815.115	26845
815.256	26807
815.397	26678
815.539	26762
815.68	26598
815.821	26549
815.962	26556
816.103	26655
816.244	26465
816.385	26301
816.526	26339
816.666	26161
816.807	25951
816.948	26050
817.089	26092
817.23	26122
817.371	26168
817.512	26062
817.653	25951
817.793	25909
817.934	25966
818.075	25864
818.216	25928
818.356	25936
818.497	25917
818.638	25693
818.778	25613
818.919	25814
819.06	25731
819.2	25860
819.341	25966
819.481	25757
819.622	25963
819.762	26062
819.903	26084
820.043	26027
820.184	25970
820.324	25917
820.465	26001
820.605	26024
820.746	26039
820.886	25746
821.026	25955
821.167	25864
821.307	25970
821.447	25750
821.588	25708
821.728	25681
821.868	25438
822.008	25274
822.149	25251
822.289	25308
822.429	25088
822.569	25072
822.709	25084
822.849	24817
822.99	24795
823.13	24764
823.27	24722
823.41	24483
823.55	24532
823.69	24665
823.83	24604
823.97	24540
824.11	24323
824.25	24304
824.389	24429
824.529	24304
824.669	24292
824.809	24418
824.949	24403
825.089	24456
825.228	24277
825.368	24133
825.508	24079
825.648	24102
825.787	24136
825.927	24213
826.067	24072
826.206	24003
826.346	24224
826.485	24087
826.625	24117
826.765	24258
826.904	24171
827.044	23961
827.183	23958
827.323	23691
827.462	23851
827.601	23760
827.741	23764
827.88	23737
828.02	23649
828.159	23756
828.298	23615
828.437	23874
828.577	23695
828.716	23878
828.855	23733
828.994	23524
829.134	23516
829.273	23573
829.412	23497
829.551	23345
829.69	23444
829.829	23444
829.968	23524
830.107	23467
830.246	23493
830.385	23452
830.524	23334
830.663	23220
830.802	23261
830.941	23037
831.08	23056
831.219	23136
831.357	23147
831.496	23261
831.635	22957
831.774	22892
831.913	22927
832.051	22797
832.19	22740
832.329	22790
832.467	22729
832.606	22626
832.744	22645
832.883	22611
833.022	22615
833.16	22717
833.299	22649
833.437	22656
833.576	22839
833.714	22755
833.852	22725
833.991	22767
834.129	22847
834.267	22801
834.406	22664
834.544	22698
834.682	22599
834.821	22668
834.959	22850
835.097	22569
835.235	22797
835.373	22679
835.511	22611
835.65	22470
835.788	22462
835.926	22348
836.064	22478
836.202	22276
836.34	22459
836.478	22577
836.615	22451
836.753	22455
836.891	22424
837.029	22542
837.167	22493
837.305	22360
837.443	22318
837.58	22265
837.718	22386
837.856	22348
837.993	22181
838.131	22246
838.269	22219
838.406	22215
838.544	22086
838.681	22013
838.819	21960
838.956	21804
839.094	21720
839.231	21854
839.369	21987
839.506	22074
839.643	21930
839.781	21656
839.918	21629
840.055	21732
840.193	21690
840.33	21648
840.467	21496
840.604	21732
840.742	21812
840.879	21523
841.016	21694
841.153	21469
841.29	21759
841.427	21542
841.564	21648
841.701	21682
841.838	21523
841.975	21469
842.112	21488
842.249	21466
842.385	21405
842.522	21466
842.659	21416
842.796	21443
842.933	21279
843.069	21321
843.206	21298
843.343	21329
843.479	21416
843.616	21329
843.752	21195
843.889	21165
844.025	21291
844.162	21070
844.298	21173
844.435	21123
844.571	21165
844.708	21066
844.844	21287
844.98	21214
845.117	21310
845.253	21135
845.389	21180
845.525	21146
845.661	21325
845.798	21408
845.934	21781
846.07	21644
846.206	21637
846.342	21564
846.478	21443
846.614	20975
846.75	20724
846.886	20716
847.022	20693
847.158	20629
847.294	20530
847.429	20533
847.565	20457
847.701	20739
847.837	20237
847.972	20282
848.108	20248
848.244	20237
848.379	20164
848.515	20073
848.65	20039
848.786	20008
848.921	20206
849.057	20199
849.192	20244
849.328	20050
849.463	20035
849.598	20142
849.734	20008
849.869	19860
850.004	19807
850.14	19917
850.275	19784
850.41	19807
850.545	19605
850.68	19814
850.815	19807
850.95	19712
851.085	19982
851.22	19890
851.355	19890
851.49	19795
851.625	19708
851.76	19746
851.895	19696
852.03	19742
852.165	19765
852.299	19875
852.434	19761
852.569	19693
852.703	19795
852.838	19860
852.973	19894
853.107	19940
853.242	19677
853.376	19727
853.511	19529
853.645	19472
853.78	19689
853.914	19670
854.048	19616
854.183	19601
854.317	19628
854.451	19936
854.585	19647
854.72	19704
854.854	19742
854.988	19521
855.122	19632
855.256	19457
855.39	19582
855.524	19632
855.658	19655
855.792	19609
855.926	19609
856.06	19613
856.194	19658
856.327	19575
856.461	19594
856.595	19548
856.729	19594
856.862	19616
856.996	19597
857.13	19613
857.263	19689
857.397	19651
857.53	19521
857.664	19681
857.797	19689
857.931	19651
858.064	19559
858.197	19643
858.331	19571
858.464	19480
858.597	19506
858.731	19540
858.864	19525
858.997	19537
859.13	19590
859.263	19521
859.396	19685
859.529	19506
859.662	19510
859.795	19487
859.928	19468
860.061	19761
860.194	19727
860.327	19552
860.46	19388
860.592	19700
860.725	19647
860.858	19548
860.99	19556
861.123	19434
861.256	19396
861.388	19441
861.521	20138
861.653	19411
861.786	19350
861.918	19506
862.05	19480
862.183	19586
862.315	19696
862.447	19624
862.58	19460
862.712	19346
862.844	19297
862.976	19384
863.108	19255
863.24	19590
863.372	19209
863.504	19232
863.636	19297
863.768	19194
863.9	19304
864.032	19118
864.164	19129
864.296	19320
864.428	19324
864.559	19221
864.691	19339
864.823	19270
864.954	19232
865.086	19293
865.217	19209
865.349	19042
865.48	19129
865.612	19141
865.743	19274
865.875	19225
866.006	19118
866.137	19038
866.269	19179
866.4	19198
866.531	19031
866.662	19023
866.793	19053
866.924	19091
867.055	19137
867.186	19133
867.317	18985
867.448	18962
867.579	18958
867.71	18935
867.841	18981
867.972	18981
868.103	19122
868.233	19053
868.364	19129
868.495	19244
868.625	19373
868.756	19476
868.886	19244
869.017	19365
869.147	19411
869.278	19392
869.408	19316
869.539	19232
869.669	19392
869.799	19350
869.929	19445
870.06	19419
870.19	19525
870.32	19559
870.45	19578
870.58	19742
870.71	19818
870.84	19791
870.97	19635
871.1	19681
871.23	19780
871.36	19883
871.489	19788
871.619	19944
871.749	19845
871.879	19902
872.008	20035
872.138	19936
872.267	19944
872.397	19708
872.526	19715
872.656	19677
872.785	19719
872.915	19852
873.044	20046
873.173	20024
873.303	20024
873.432	19978
873.561	20016
873.69	20039
873.819	19997
873.948	20073
874.077	20012
874.206	19978
874.335	19936
874.464	20039
874.593	20172
874.722	20176
874.851	20355
874.979	20210
875.108	20225
875.237	20210
875.365	20069
875.494	20164
875.623	20252
875.751	20100
875.88	20267
876.008	20370
876.136	20366
876.265	20568
876.393	20712
876.521	20731
876.65	20670
876.778	20667
876.906	20575
877.034	20484
877.162	20636
877.29	20526
877.418	20549
877.546	20625
877.674	20613
877.802	20526
877.93	20609
878.058	20537
878.185	20568
878.313	20537
878.441	20617
878.568	20377
878.696	20701
878.824	20746
878.951	20716
879.079	20815
879.206	21100
879.333	21013
879.461	21020
879.588	21135
879.715	21203
879.842	21131
879.97	20956
880.097	20762
880.224	20663
880.351	20606
880.478	20579
880.605	20442
880.732	20549
880.859	20743
880.986	20590
881.112	20461
881.239	20469
881.366	20256
881.493	20233
881.619	20126
881.746	20062
881.872	20191
881.999	20130
882.125	20073
882.252	20134
882.378	20046
882.505	20210
882.631	20100
882.757	19750
882.883	19974
883.01	19917
883.136	19875
883.262	19849
883.388	19757
883.514	19925
883.64	19917
883.766	19814
883.892	19734
884.018	19685
884.143	19883
884.269	19868
884.395	19594
884.52	19483
884.646	19468
884.772	19464
884.897	19533
885.023	19495
885.148	19658
885.274	19601
885.399	19571
885.524	19480
885.65	19571
885.775	19525
885.9	19533
886.025	19601
886.15	19590
886.275	19403
886.4	19407
886.525	19354
886.65	19354
886.775	19320
886.9	19487
887.025	19681
887.149	19594
887.274	19312
887.399	19285
887.523	19259
887.648	19183
887.773	19213
887.897	19270
888.021	19327
888.146	19156
888.27	19282
888.395	19331
888.519	19327
888.643	19324
888.767	19274
888.891	19152
889.015	19008
889.139	19008
889.263	19091
889.387	19091
889.511	19171
889.635	19076
889.759	19031
889.883	18970
890.006	18939
890.13	19057
890.254	18958
890.377	18905
890.501	18757
890.624	18722
890.748	18753
890.871	18650
890.995	18620
891.118	18506
891.241	18669
891.364	18654
891.488	18665
891.611	18688
891.734	18559
891.857	18627
891.98	18601
892.103	18757
892.226	18597
892.349	18551
892.471	18464
892.594	18521
892.717	18426
892.839	18540
892.962	18566
893.085	18620
893.207	18597
893.33	18441
893.452	18494
893.575	18642
893.697	18486
893.819	18661
893.941	18661
894.064	18654
894.186	18407
894.308	18437
894.43	18658
894.552	18677
894.674	18627
894.796	18464
894.918	18601
895.04	18467
895.161	18604
895.283	18563
895.405	18460
895.526	18437
895.648	18410
895.769	18502
895.891	18620
896.012	18650
896.134	18601
896.255	18642
896.376	18665
896.498	18574
896.619	18631
896.74	18623
896.861	18669
896.982	19015
897.103	19034
897.224	18962
897.345	18958
897.466	18715
897.587	18878
897.708	18973
897.828	18901
897.949	18821
898.07	18585
898.19	18798
898.311	18947
898.431	18852
898.552	18772
898.672	18935
898.792	18787
898.913	18844
899.033	18867
899.153	18814
899.273	18547
899.393	18521
899.513	18544
899.633	18471
899.753	18612
899.873	18460
899.993	18631
900.113	18448
900.232	18604
900.352	18574
900.472	18407
900.591	18330
900.711	18399
900.83	18251
900.95	18601
901.069	18483
901.189	18273
901.308	18140
901.427	17977
901.546	18038
901.665	18011
901.784	18007
901.904	17855
902.023	17767
902.141	17577
902.26	17551
902.379	17737
902.498	17551
902.617	17516
902.735	17478
902.854	17501
902.973	17444
903.091	17231
903.21	17189
903.328	17273
903.446	17071
903.565	16957
903.683	17071
903.801	16911
903.919	17147
904.038	16949
904.156	16771
904.274	16869
904.392	16641
904.51	16778
904.627	16763
904.745	16763
904.863	16790
904.981	16630
905.098	16474
905.216	16356
905.334	16470
905.451	16462
905.569	16474
905.686	16470
905.803	16421
905.921	16166
906.038	16371
906.155	16337
906.272	16059
906.389	16166
906.506	15941
906.623	15876
906.74	15937
906.857	15755
906.974	15892
907.091	15922
907.208	16071
907.324	16044
907.441	15865
907.557	15751
907.674	15698
907.79	15671
907.907	15576
908.023	15682
908.139	15652
908.256	15591
908.372	15416
908.488	15515
908.604	15443
908.72	15287
908.836	15386
908.952	15412
909.068	15397
909.184	15393
909.3	15370
909.415	15336
909.531	15233
909.647	15028
909.762	14990
909.878	15036
909.993	14982
910.108	15024
910.224	15085
910.339	14975
910.454	14895
910.57	14872
910.685	14712
910.8	15020
910.915	15043
911.03	14944
911.145	14663
911.259	14613
911.374	14640
911.489	14564
911.604	14552
911.718	14362
911.833	14336
911.947	14282
912.062	14195
912.176	14336
912.291	14263
912.405	14351
912.519	14514
912.633	14492
912.748	14396
912.862	14263
912.976	14180
913.09	14176
913.204	14218
913.318	14256
913.431	14301
913.545	14233
913.659	14298
913.772	14134
913.886	14031
914	14046
914.113	14119
914.226	14149
914.34	14088
914.453	13947
914.566	14069
914.68	13978
914.793	13925
914.906	13738
915.019	13731
915.132	13734
915.245	13715
915.358	13601
915.47	13719
915.583	13723
915.696	13750
915.809	13708
915.921	13811
916.034	13696
916.146	13647
916.259	13537
916.371	13746
916.483	13620
916.595	13525
916.708	13582
916.82	13502
916.932	13506
917.044	13426
917.156	13453
917.268	13403
917.38	13362
917.491	13407
917.603	13476
917.715	13483
917.826	13419
917.938	13350
918.049	13266
918.161	13384
918.272	13480
918.384	13400
918.495	13403
918.606	13213
918.717	13137
918.828	13255
918.939	13164
919.05	13019
919.161	13171
919.272	12970
919.383	12939
919.494	13217
919.604	13339
919.715	13103
919.826	13069
919.936	13110
920.047	13263
920.157	13202
920.267	13377
920.378	13129
920.488	13038
920.598	13282
920.708	13415
920.818	13240
920.928	13187
921.038	13518
921.148	13270
921.258	13122
921.368	13031
921.477	12894
921.587	12821
921.697	12787
921.806	12848
921.916	12764
922.025	12665
922.134	12540
922.244	12483
922.353	12513
922.462	12399
922.571	12384
922.68	12239
922.789	12213
922.898	12213
923.007	12136
923.116	12224
923.224	12239
923.333	12060
923.442	12053
923.55	12057
923.659	12026
923.767	11988
923.876	11958
923.984	12026
924.092	11889
924.201	11996
924.309	11996
924.417	11935
924.525	12022
924.633	11920
924.741	12783
924.849	11786
924.956	11729
925.064	11668
925.172	11642
925.279	11600
925.387	11691
925.494	11695
925.602	11817
925.709	11771
925.816	11611
925.924	11627
926.031	11676
926.138	11726
926.245	11760
926.352	11551
926.459	11646
926.566	11710
926.673	11562
926.779	11474
926.886	11471
926.993	11269
927.099	11292
927.206	11277
927.312	11254
927.419	11307
927.525	11307
927.631	11223
927.737	11246
927.843	11143
927.95	11109
928.056	11086
928.162	11094
928.267	11151
928.373	11752
928.479	11220
928.585	10873
928.69	11098
928.796	11140
928.901	11075
929.007	10828
929.112	10949
929.218	10919
929.323	10896
929.428	10854
929.533	10976
929.638	10767
929.743	10847
929.848	10889
929.953	10831
930.058	10649
930.163	10542
930.267	10561
930.372	10721
930.477	10573
930.581	10900
930.685	10573
930.79	10527
930.894	10504
930.998	10379
931.103	10550
931.207	10261
931.311	10196
931.415	10093
931.519	9945
931.623	9846
