Data from test_V78500241_80.txt Node
Date: Fri Mar 25 14:34:16 CST 2022
User: usil
Spectrometer: V785-0024
Trigger mode: 0
Integration Time (sec): 4.000000E-1
Scans to average: 1
Nonlinearity correction enabled: false
Boxcar width: 0
Storing dark spectrum: false
XAxis mode: Wavelengths
Number of Pixels in Spectrum: 1024
>>>>>Begin Spectral Data<<<<<
801.071	28961
801.214	28687
801.356	28557
801.499	28561
801.641	28352
801.783	28363
801.926	28325
802.068	28261
802.211	28116
802.353	28040
802.496	28063
802.638	28021
802.78	27941
802.923	27911
803.065	27854
803.208	27838
803.35	27941
803.492	28116
803.635	28116
803.777	27953
803.919	28032
804.061	28344
804.204	28143
804.346	27823
804.488	27835
804.63	27842
804.773	27671
804.915	27968
805.057	28154
805.199	27842
805.341	27956
805.483	27972
805.626	28010
805.768	27941
805.91	28048
806.052	28059
806.194	27945
806.336	28223
806.478	28059
806.62	27934
806.762	28196
806.904	28276
807.046	28352
807.188	28455
807.33	28265
807.472	28550
807.614	28242
807.756	28291
807.898	28318
808.04	28086
808.182	28238
808.324	28219
808.465	28135
808.607	28299
808.749	28565
808.891	28577
809.033	28717
809.174	28569
809.316	28557
809.458	28500
809.6	28538
809.741	28569
809.883	28816
810.025	28854
810.166	28847
810.308	28763
810.45	28786
810.591	28557
810.733	28546
810.875	28386
811.016	28432
811.158	28398
811.299	28538
811.441	28527
811.582	28497
811.724	28481
811.865	28333
812.007	28424
812.148	28474
812.29	28398
812.431	28649
812.573	28778
812.714	28835
812.855	29033
812.997	29102
813.138	29242
813.279	29124
813.421	28968
813.562	28961
813.703	28790
813.845	28630
813.986	28325
814.127	28204
814.268	28067
814.41	28131
814.551	28124
814.692	28082
814.833	28013
814.974	27934
815.115	28059
815.256	27781
815.397	27800
815.539	27800
815.68	27884
815.821	27800
815.962	27869
816.103	27766
816.244	27610
816.385	27591
816.526	27408
816.666	27298
816.807	27039
816.948	27195
817.089	27249
817.23	27180
817.371	27020
817.512	27138
817.653	27176
817.793	27089
817.934	27096
818.075	27104
818.216	27184
818.356	27070
818.497	27180
818.638	26781
818.778	26823
818.919	26701
819.06	26792
819.2	27009
819.341	27138
819.481	27074
819.622	27169
819.762	27389
819.903	27302
820.043	27283
820.184	27252
820.324	27036
820.465	27268
820.605	27047
820.746	27142
820.886	27047
821.026	27119
821.167	26937
821.307	26948
821.447	26925
821.588	26872
821.728	26796
821.868	26606
822.008	26324
822.149	26324
822.289	26278
822.429	26210
822.569	26119
822.709	25978
822.849	25978
822.99	25970
823.13	25811
823.27	25742
823.41	25712
823.55	25518
823.69	25715
823.83	25594
823.97	25533
824.11	25472
824.25	25426
824.389	25396
824.529	25529
824.669	25358
824.809	25514
824.949	25643
825.089	25556
825.228	25495
825.368	25232
825.508	25343
825.648	25145
825.787	25190
825.927	25308
826.067	25183
826.206	25312
826.346	25198
826.485	25168
826.625	25148
826.765	25335
826.904	25312
827.044	25114
827.183	24939
827.323	24837
827.462	25038
827.601	24840
827.741	25034
827.88	24924
828.02	24837
828.159	24867
828.298	24867
828.437	24989
828.577	24772
828.716	24939
828.855	24776
828.994	24635
829.134	24608
829.273	24711
829.412	24536
829.551	24456
829.69	24422
829.829	24532
829.968	24658
830.107	24574
830.246	24486
830.385	24475
830.524	24486
830.663	24319
830.802	24342
830.941	24174
831.08	24163
831.219	24228
831.357	24106
831.496	24342
831.635	24182
831.774	23992
831.913	23847
832.051	23874
832.19	23832
832.329	24038
832.467	23775
832.606	23684
832.744	23646
832.883	23783
833.022	23703
833.16	23687
833.299	23764
833.437	23863
833.576	23874
833.714	23798
833.852	23771
833.991	23798
834.129	23775
834.267	23931
834.406	23847
834.544	23870
834.682	23828
834.821	23646
834.959	23821
835.097	23615
835.235	23855
835.373	23783
835.511	23767
835.65	23596
835.788	23722
835.926	23421
836.064	23433
836.202	23383
836.34	23520
836.478	23638
836.615	23490
836.753	23638
836.891	23646
837.029	23596
837.167	23543
837.305	23497
837.443	23463
837.58	23345
837.718	23566
837.856	23547
837.993	23292
838.131	23341
838.269	23349
838.406	23376
838.544	23102
838.681	23025
838.819	23056
838.956	22778
839.094	22820
839.231	22900
839.369	23037
839.506	23189
839.643	23060
839.781	22946
839.918	22752
840.055	22729
840.193	22763
840.33	22683
840.467	22752
840.604	22790
840.742	22942
840.879	22527
841.016	22596
841.153	22649
841.29	22763
841.427	22664
841.564	22668
841.701	22649
841.838	22611
841.975	22557
842.112	22607
842.249	22325
842.385	22367
842.522	22531
842.659	22310
842.796	22284
842.933	22417
843.069	22299
843.206	22325
843.343	22394
843.479	22386
843.616	22318
843.752	22048
843.889	22173
844.025	22204
844.162	22154
844.298	22124
844.435	22139
844.571	22173
844.708	22150
844.844	22131
844.98	22219
845.117	22215
845.253	21926
845.389	21915
845.525	21998
845.661	21998
845.798	21899
845.934	21934
846.07	21827
846.206	21892
846.342	21907
846.478	21907
846.614	21660
846.75	21603
846.886	21519
847.022	21633
847.158	21424
847.294	21507
847.429	21618
847.565	21523
847.701	21698
847.837	21313
847.972	21085
848.108	21268
848.244	21291
848.379	21112
848.515	21123
848.65	20990
848.786	21089
848.921	20952
849.057	21135
849.192	21005
849.328	21135
849.463	21146
849.598	21013
849.734	20948
849.869	20815
850.004	20819
850.14	20845
850.275	20693
850.41	20708
850.545	20777
850.68	20708
850.815	20807
850.95	20659
851.085	20952
851.22	20906
851.355	20853
851.49	20686
851.625	20697
851.76	20678
851.895	20678
852.03	20686
852.165	20792
852.299	20834
852.434	20872
852.569	20762
852.703	20678
852.838	20785
852.973	20899
853.107	20872
853.242	20686
853.376	20629
853.511	20362
853.645	20537
853.78	20659
853.914	20594
854.048	20457
854.183	20587
854.317	20621
854.451	20773
854.585	20602
854.72	20446
854.854	20598
854.988	20499
855.122	20571
855.256	20385
855.39	20541
855.524	20629
855.658	20648
855.792	20473
855.926	20522
856.06	20712
856.194	20518
856.327	20545
856.461	20495
856.595	20469
856.729	20461
856.862	20564
856.996	20549
857.13	20651
857.263	20640
857.397	20663
857.53	20587
857.664	20518
857.797	20549
857.931	20545
858.064	20511
858.197	20693
858.331	20465
858.464	20446
858.597	20362
858.731	20473
858.864	20328
858.997	20530
859.13	20541
859.263	20495
859.396	20575
859.529	20381
859.662	20431
859.795	20499
859.928	20473
860.061	20602
860.194	20648
860.327	20461
860.46	20568
860.592	20590
860.725	20689
860.858	20609
860.99	20431
861.123	20427
861.256	20324
861.388	20526
861.521	21001
861.653	20351
861.786	20256
861.918	20415
862.05	20431
862.183	20457
862.315	20594
862.447	20568
862.58	20495
862.712	20248
862.844	20096
862.976	20290
863.108	20237
863.24	20507
863.372	20134
863.504	20199
863.636	20199
863.768	20324
863.9	20290
864.032	20031
864.164	20043
864.296	20153
864.428	20206
864.559	20202
864.691	20298
864.823	20096
864.954	20161
865.086	20164
865.217	20199
865.349	19989
865.48	19963
865.612	20058
865.743	20210
865.875	20050
866.006	20058
866.137	20024
866.269	20218
866.4	20050
866.531	20081
866.662	19951
866.793	19928
866.924	20001
867.055	20005
867.186	20046
867.317	20001
867.448	19864
867.579	19906
867.71	19940
867.841	19890
867.972	20039
868.103	19997
868.233	20073
868.364	20084
868.495	20031
868.625	20218
868.756	20370
868.886	20024
869.017	20244
869.147	20248
869.278	20457
869.408	20328
869.539	20271
869.669	20381
869.799	20278
869.929	20362
870.06	20328
870.19	20461
870.32	20488
870.45	20640
870.58	20644
870.71	20621
870.84	20689
870.97	20545
871.1	20613
871.23	20796
871.36	20800
871.489	20701
871.619	20750
871.749	20746
871.879	20819
872.008	20982
872.138	20811
872.267	20864
872.397	20716
872.526	20617
872.656	20613
872.785	20724
872.915	20769
873.044	20948
873.173	20899
873.303	20804
873.432	20823
873.561	21001
873.69	20811
873.819	20845
873.948	20872
874.077	20910
874.206	20921
874.335	20792
874.464	20982
874.593	21017
874.722	21017
874.851	21135
874.979	21131
875.108	21135
875.237	21077
875.365	21036
875.494	21017
875.623	21211
875.751	21055
875.88	21211
876.008	21169
876.136	21348
876.265	21553
876.393	21603
876.521	21641
876.65	21469
876.778	21435
876.906	21420
877.034	21408
877.162	21454
877.29	21397
877.418	21485
877.546	21526
877.674	21485
877.802	21435
877.93	21386
878.058	21450
878.185	21321
878.313	21466
878.441	21481
878.568	21378
878.696	21431
878.824	21469
878.951	21523
879.079	21652
879.206	21709
879.333	21633
879.461	21504
879.588	21504
879.715	21595
879.842	21629
879.97	21572
880.097	21310
880.224	21325
880.351	21245
880.478	21329
880.605	21154
880.732	21306
880.859	21519
880.986	21306
881.112	21241
881.239	21169
881.366	21055
881.493	21009
881.619	20838
881.746	20918
881.872	20853
881.999	20872
882.125	20769
882.252	20918
882.378	20876
882.505	20826
882.631	20746
882.757	20731
882.883	20693
883.01	20602
883.136	20659
883.262	20396
883.388	20556
883.514	20644
883.64	20594
883.766	20606
883.892	20347
884.018	20298
884.143	20537
884.269	20667
884.395	20320
884.52	20290
884.646	20286
884.772	20233
884.897	20244
885.023	20271
885.148	20320
885.274	20404
885.399	20400
885.524	20176
885.65	20202
885.775	20259
885.9	20172
886.025	20351
886.15	20324
886.275	20187
886.4	20142
886.525	20206
886.65	20187
886.775	20142
886.9	20396
887.025	20465
887.149	20126
887.274	19989
887.399	19982
887.523	20012
887.648	19917
887.773	19932
887.897	20058
888.021	20069
888.146	19959
888.27	20122
888.395	20016
888.519	20103
888.643	19856
888.767	20035
888.891	19909
889.015	19757
889.139	19890
889.263	19799
889.387	19909
889.511	19986
889.635	19883
889.759	19689
889.883	19795
890.006	19868
890.13	19875
890.254	19635
890.377	19742
890.501	19548
890.624	19438
890.748	19556
890.871	19502
890.995	19457
891.118	19339
891.241	19430
891.364	19449
891.488	19556
891.611	19362
891.734	19483
891.857	19453
891.98	19369
892.103	19346
892.226	19434
892.349	19331
892.471	19145
892.594	19251
892.717	19263
892.839	19228
892.962	19289
893.085	19403
893.207	19358
893.33	19247
893.452	19240
893.575	19365
893.697	19266
893.819	19438
893.941	19502
894.064	19563
894.186	19228
894.308	19236
894.43	19327
894.552	19483
894.674	19400
894.796	19240
894.918	19137
895.04	19251
895.161	19358
895.283	19346
895.405	19320
895.526	19415
895.648	19228
895.769	19244
895.891	19396
896.012	19472
896.134	19308
896.255	19278
896.376	19278
896.498	19411
896.619	19438
896.74	19339
896.861	19445
896.982	19674
897.103	19913
897.224	19677
897.345	19582
897.466	19563
897.587	19628
897.708	19575
897.828	19662
897.949	19430
898.07	19419
898.19	19434
898.311	19624
898.431	19704
898.552	19662
898.672	19753
898.792	19712
898.913	19597
899.033	19426
899.153	19392
899.273	19236
899.393	19312
899.513	19244
899.633	19270
899.753	19358
899.873	19270
899.993	19343
900.113	19209
900.232	19327
900.352	19232
900.472	19141
900.591	18973
900.711	19168
900.83	19126
900.95	19266
901.069	19198
901.189	19000
901.308	18787
901.427	18654
901.546	18688
901.665	18730
901.784	18703
901.904	18502
902.023	18604
902.141	18292
902.26	18232
902.379	18292
902.498	18144
902.617	18144
902.735	18281
902.854	18190
902.973	18007
903.091	17843
903.21	17866
903.328	17855
903.446	17722
903.565	17707
903.683	17726
903.801	17661
903.919	17737
904.038	17695
904.156	17455
904.274	17482
904.392	17474
904.51	17334
904.627	17436
904.745	17368
904.863	17448
904.981	17181
905.098	17105
905.216	17159
905.334	17132
905.451	16949
905.569	16957
905.686	17067
905.803	16987
905.921	16896
906.038	17022
906.155	16824
906.272	16767
906.389	16687
906.506	16725
906.623	16645
906.74	16500
906.857	16413
906.974	16634
907.091	16672
907.208	16725
907.324	16641
907.441	16462
907.557	16295
907.674	16249
907.79	16207
907.907	16299
908.023	16344
908.139	16276
908.256	16253
908.372	16226
908.488	16211
908.604	15937
908.72	15941
908.836	16032
908.952	15968
909.068	15975
909.184	15987
909.3	15983
909.415	15949
909.531	16059
909.647	15751
909.762	15717
909.878	15492
909.993	15614
910.108	15667
910.224	15561
910.339	15576
910.454	15496
910.57	15511
910.685	15367
910.8	15671
910.915	15633
911.03	15477
911.145	15283
911.259	15310
911.374	15252
911.489	15176
911.604	15154
911.718	14990
911.833	15005
911.947	14910
912.062	14941
912.176	14963
912.291	14914
912.405	15039
912.519	15028
912.633	15131
912.748	15032
912.862	14876
912.976	14819
913.09	14743
913.204	14773
913.318	14895
913.431	14838
913.545	14773
913.659	14826
913.772	14804
913.886	14667
914	14602
914.113	14773
914.226	14739
914.34	14689
914.453	14454
914.566	14590
914.68	14556
914.793	14495
914.906	14309
915.019	14275
915.132	14191
915.245	14149
915.358	14309
915.47	14317
915.583	14301
915.696	14278
915.809	14313
915.921	14366
916.034	14069
916.146	14233
916.259	14054
916.371	14187
916.483	14320
916.595	14084
916.708	14111
916.82	14058
916.932	14046
917.044	14107
917.156	14168
917.268	13993
917.38	13936
917.491	13921
917.603	13993
917.715	14031
917.826	14134
917.938	13849
918.049	13807
918.161	13928
918.272	13967
918.384	13887
918.495	13894
918.606	13681
918.717	13666
918.828	13788
918.939	13788
919.05	13575
919.161	13628
919.272	13407
919.383	13468
919.494	13731
919.604	13887
919.715	13666
919.826	13540
919.936	13586
920.047	13681
920.157	13628
920.267	13826
920.378	13563
920.488	13685
920.598	13841
920.708	13906
920.818	13742
920.928	13807
921.038	13928
921.148	13852
921.258	13533
921.368	13575
921.477	13445
921.587	13362
921.697	13251
921.806	13400
921.916	13335
922.025	13099
922.134	13069
922.244	12939
922.353	13057
922.462	12939
922.571	12932
922.68	12757
922.789	12669
922.898	12696
923.007	12658
923.116	12787
923.224	12692
923.333	12684
923.442	12513
923.55	12509
923.659	12486
923.767	12639
923.876	12391
923.984	12582
924.092	12448
924.201	12517
924.309	12422
924.417	12407
924.525	12342
924.633	12407
924.741	13034
924.849	12175
924.956	12304
925.064	12152
925.172	12076
925.279	12125
925.387	12228
925.494	12095
925.602	12239
925.709	12155
925.816	12076
925.924	12144
926.031	12232
926.138	12129
926.245	12216
926.352	12015
926.459	12167
926.566	12186
926.673	12011
926.779	11866
926.886	11916
926.993	11718
927.099	11840
927.206	11634
927.312	11802
927.419	11741
927.525	11790
927.631	11741
927.737	11570
927.843	11619
927.95	11482
928.056	11570
928.162	11547
928.267	11566
928.373	12140
928.479	11653
928.585	11402
928.69	11551
928.796	11512
928.901	11440
929.007	11356
929.112	11440
929.218	11387
929.323	11379
929.428	11315
929.533	11395
929.638	11223
929.743	11341
929.848	11334
929.953	11258
930.058	11231
930.163	10991
930.267	11083
930.372	11136
930.477	10900
930.581	11132
930.685	11056
930.79	10869
930.894	10896
930.998	10862
931.103	10949
931.207	10588
931.311	10580
931.415	10459
931.519	10390
931.623	10211
