Data from test_V78500241_3591.txt Node
Date: Fri Mar 25 14:58:43 CST 2022
User: usil
Spectrometer: V785-0024
Trigger mode: 0
Integration Time (sec): 4.000000E-1
Scans to average: 1
Nonlinearity correction enabled: false
Boxcar width: 0
Storing dark spectrum: false
XAxis mode: Wavelengths
Number of Pixels in Spectrum: 1024
>>>>>Begin Spectral Data<<<<<
801.071	21953
801.214	21819
801.356	21580
801.499	21405
801.641	21374
801.783	21268
801.926	21291
802.068	21256
802.211	21199
802.353	21081
802.496	20864
802.638	20826
802.78	20731
802.923	20670
803.065	20518
803.208	20621
803.35	20587
803.492	20804
803.635	20727
803.777	20606
803.919	20731
804.061	20933
804.204	20526
804.346	20530
804.488	20556
804.63	20583
804.773	20454
804.915	20454
805.057	20693
805.199	20396
805.341	20590
805.483	20587
805.626	20488
805.768	20431
805.91	20579
806.052	20442
806.194	20423
806.336	20590
806.478	20583
806.62	20549
806.762	20511
806.904	20575
807.046	20921
807.188	20746
807.33	20796
807.472	20906
807.614	20792
807.756	20609
807.898	20659
808.04	20446
808.182	20556
808.324	20507
808.465	20590
808.607	20838
808.749	20921
808.891	20941
809.033	21032
809.174	20967
809.316	20777
809.458	20830
809.6	20800
809.741	20925
809.883	20891
810.025	21039
810.166	20956
810.308	20948
810.45	20956
810.591	20880
810.733	20754
810.875	20720
811.016	20484
811.158	20503
811.299	20651
811.441	20739
811.582	20724
811.724	20678
811.865	20560
812.007	20514
812.148	20598
812.29	20632
812.431	20796
812.573	20960
812.714	21058
812.855	21066
812.997	21169
813.138	21291
813.279	21214
813.421	21169
813.562	21070
813.703	20845
813.845	20830
813.986	20522
814.127	20313
814.268	20275
814.41	20183
814.551	20111
814.692	20161
814.833	20153
814.974	20107
815.115	20248
815.256	20016
815.397	20012
815.539	20005
815.68	19852
815.821	19799
815.962	19765
816.103	19887
816.244	19685
816.385	19715
816.526	19578
816.666	19495
816.807	19335
816.948	19415
817.089	19396
817.23	19274
817.371	19301
817.512	19213
817.653	19247
817.793	19304
817.934	19282
818.075	19400
818.216	19251
818.356	19236
818.497	19084
818.638	18943
818.778	18901
818.919	19091
819.06	19031
819.2	19084
819.341	19198
819.481	19057
819.622	19438
819.762	19529
819.903	19373
820.043	19221
820.184	19331
820.324	19339
820.465	19301
820.605	19244
820.746	19327
820.886	19095
821.026	19247
821.167	19263
821.307	19354
821.447	19156
821.588	19042
821.728	19027
821.868	18783
822.008	18620
822.149	18658
822.289	18612
822.429	18437
822.569	18372
822.709	18380
822.849	18174
822.99	18235
823.13	18167
823.27	18129
823.41	18030
823.55	17893
823.69	17977
823.83	17965
823.97	17942
824.11	17832
824.25	17809
824.389	17726
824.529	17729
824.669	17729
824.809	17882
824.949	17805
825.089	17863
825.228	17771
825.368	17661
825.508	17554
825.648	17691
825.787	17570
825.927	17585
826.067	17482
826.206	17467
826.346	17600
826.485	17558
826.625	17539
826.765	17581
826.904	17474
827.044	17220
827.183	17360
827.323	17170
827.462	17292
827.601	17166
827.741	17277
827.88	17159
828.02	17098
828.159	17181
828.298	17337
828.437	17193
828.577	17094
828.716	17417
828.855	17269
828.994	16957
829.134	16965
829.273	16953
829.412	16900
829.551	16881
829.69	16942
829.829	16965
829.968	17090
830.107	17041
830.246	17010
830.385	16938
830.524	16908
830.663	16755
830.802	16725
830.941	16558
831.08	16584
831.219	16679
831.357	16611
831.496	16793
831.635	16752
831.774	16523
831.913	16558
832.051	16360
832.19	16318
832.329	16504
832.467	16261
832.606	16337
832.744	16371
832.883	16360
833.022	16291
833.16	16303
833.299	16242
833.437	16249
833.576	16318
833.714	16356
833.852	16318
833.991	16409
834.129	16428
834.267	16447
834.406	16390
834.544	16390
834.682	16382
834.821	16314
834.959	16527
835.097	16386
835.235	16546
835.373	16341
835.511	16379
835.65	16246
835.788	16211
835.926	16086
836.064	16036
836.202	16131
836.34	16299
836.478	16337
836.615	16310
836.753	16226
836.891	16341
837.029	16344
837.167	16128
837.305	16158
837.443	16185
837.58	16124
837.718	16287
837.856	16246
837.993	16101
838.131	16139
838.269	16082
838.406	16063
838.544	16078
838.681	15915
838.819	15895
838.956	15759
839.094	15667
839.231	15743
839.369	15880
839.506	16055
839.643	15941
839.781	15759
839.918	15751
840.055	15698
840.193	15759
840.33	15591
840.467	15705
840.604	15660
840.742	16036
840.879	15599
841.016	15629
841.153	15728
841.29	15869
841.427	15743
841.564	15766
841.701	15713
841.838	15629
841.975	15679
842.112	15698
842.249	15439
842.385	15469
842.522	15686
842.659	15496
842.796	15428
842.933	15454
843.069	15469
843.206	15450
843.343	15610
843.479	15606
843.616	15500
843.752	15298
843.889	15211
844.025	15428
844.162	15222
844.298	15340
844.435	15291
844.571	15165
844.708	15348
844.844	15431
844.98	15481
845.117	15367
845.253	15188
845.389	15180
845.525	15302
845.661	15154
845.798	14998
845.934	15180
846.07	14960
846.206	15097
846.342	15119
846.478	15058
846.614	14895
846.75	14773
846.886	14769
847.022	14971
847.158	14864
847.294	14838
847.429	14899
847.565	14887
847.701	15104
847.837	14629
847.972	14697
848.108	14674
848.244	14659
848.379	14541
848.515	14457
848.65	14457
848.786	14446
848.921	14438
849.057	14613
849.192	14651
849.328	14450
849.463	14549
849.598	14488
849.734	14347
849.869	14328
850.004	14301
850.14	14252
850.275	14252
850.41	14176
850.545	14088
850.68	14256
850.815	14229
850.95	14278
851.085	14377
851.22	14358
851.355	14263
851.49	14153
851.625	14134
851.76	14199
851.895	14084
852.03	14016
852.165	14161
852.299	14240
852.434	14263
852.569	14210
852.703	14187
852.838	14343
852.973	14358
853.107	14358
853.242	14123
853.376	14088
853.511	14058
853.645	14073
853.78	14233
853.914	14081
854.048	14039
854.183	14172
854.317	14149
854.451	14286
854.585	14065
854.72	14031
854.854	14126
854.988	14062
855.122	13997
855.256	14008
855.39	14073
855.524	14062
855.658	14195
855.792	14069
855.926	14107
856.06	14130
856.194	14180
856.327	14123
856.461	14077
856.595	14043
856.729	14016
856.862	14233
856.996	14119
857.13	14183
857.263	14237
857.397	14328
857.53	14062
857.664	14149
857.797	14229
857.931	14233
858.064	14187
858.197	14195
858.331	14218
858.464	14008
858.597	13856
858.731	14115
858.864	14103
858.997	14077
859.13	14065
859.263	14103
859.396	14142
859.529	14031
859.662	14142
859.795	14043
859.928	14088
860.061	14263
860.194	14263
860.327	14100
860.46	14069
860.592	14138
860.725	14180
860.858	14168
860.99	14084
861.123	13974
861.256	13970
861.388	14062
861.521	14872
861.653	14012
861.786	13993
861.918	13959
862.05	14020
862.183	13974
862.315	14088
862.447	14191
862.58	13967
862.712	13799
862.844	13769
862.976	13928
863.108	13890
863.24	14214
863.372	13807
863.504	13887
863.636	13883
863.768	13917
863.9	13852
864.032	13845
864.164	13856
864.296	13970
864.428	14012
864.559	14031
864.691	13963
864.823	13909
864.954	13887
865.086	13871
865.217	13852
865.349	13742
865.48	13837
865.612	13761
865.743	13917
865.875	13913
866.006	13822
866.137	13864
866.269	13894
866.4	13826
866.531	13845
866.662	13674
866.793	13746
866.924	13890
867.055	13890
867.186	13887
867.317	13841
867.448	13746
867.579	13837
867.71	13856
867.841	13830
867.972	13917
868.103	13913
868.233	13898
868.364	13917
868.495	13909
868.625	14046
868.756	14263
868.886	13947
869.017	14081
869.147	14275
869.278	14199
869.408	14103
869.539	14233
869.669	14206
869.799	14145
869.929	14149
870.06	14157
870.19	14438
870.32	14423
870.45	14434
870.58	14431
870.71	14613
870.84	14518
870.97	14522
871.1	14522
871.23	14644
871.36	14712
871.489	14556
871.619	14758
871.749	14838
871.879	14842
872.008	14861
872.138	14697
872.267	14659
872.397	14701
872.526	14632
872.656	14606
872.785	14571
872.915	14750
873.044	14762
873.173	14674
873.303	14838
873.432	14834
873.561	14842
873.69	14777
873.819	14773
873.948	14849
874.077	14731
874.206	14743
874.335	14819
874.464	14944
874.593	15017
874.722	14921
874.851	15138
874.979	15074
875.108	15036
875.237	14933
875.365	15043
875.494	15074
875.623	15222
875.751	14990
875.88	15169
876.008	15344
876.136	15332
876.265	15496
876.393	15599
876.521	15542
876.65	15523
876.778	15572
876.906	15397
877.034	15458
877.162	15526
877.29	15549
877.418	15526
877.546	15523
877.674	15591
877.802	15530
877.93	15561
878.058	15443
878.185	15420
878.313	15454
878.441	15519
878.568	15359
878.696	15519
878.824	15443
878.951	15580
879.079	15698
879.206	15800
879.333	15679
879.461	15526
879.588	15618
879.715	15701
879.842	15743
879.97	15606
880.097	15294
880.224	15344
880.351	15355
880.478	15378
880.605	15363
880.732	15351
880.859	15549
880.986	15302
881.112	15386
881.239	15264
881.366	15233
881.493	15108
881.619	15055
881.746	15036
881.872	15039
881.999	15013
882.125	14933
882.252	15028
882.378	15108
882.505	15157
882.631	14998
882.757	14823
882.883	14834
883.01	14967
883.136	14773
883.262	14731
883.388	14731
883.514	14902
883.64	14880
883.766	14826
883.892	14648
884.018	14670
884.143	14804
884.269	14944
884.395	14625
884.52	14465
884.646	14606
884.772	14476
884.897	14461
885.023	14564
885.148	14686
885.274	14651
885.399	14598
885.524	14533
885.65	14526
885.775	14549
885.9	14549
886.025	14727
886.15	14705
886.275	14537
886.4	14450
886.525	14492
886.65	14571
886.775	14511
886.9	14545
887.025	14739
887.149	14552
887.274	14343
887.399	14259
887.523	14404
887.648	14263
887.773	14320
887.897	14415
888.021	14431
888.146	14320
888.27	14423
888.395	14442
888.519	14419
888.643	14450
888.767	14385
888.891	14294
889.015	14275
889.139	14244
889.263	14286
889.387	14248
889.511	14366
889.635	14377
889.759	14153
889.883	14218
890.006	14229
890.13	14389
890.254	14183
890.377	14187
890.501	13963
890.624	14016
890.748	14183
890.871	13947
890.995	13928
891.118	13928
891.241	13970
891.364	14069
891.488	14012
891.611	13936
891.734	13982
891.857	14077
891.98	13989
892.103	14001
892.226	13925
892.349	13894
892.471	13784
892.594	13909
892.717	13936
892.839	13917
892.962	13986
893.085	13982
893.207	13856
893.33	13803
893.452	13837
893.575	14039
893.697	13944
893.819	14115
893.941	14191
894.064	14187
894.186	13814
894.308	13959
894.43	14092
894.552	14134
894.674	14107
894.796	14024
894.918	13997
895.04	13963
895.161	14134
895.283	14054
895.405	13970
895.526	13986
895.648	14107
895.769	14126
895.891	14153
896.012	14096
896.134	14221
896.255	14180
896.376	14157
896.498	14077
896.619	14081
896.74	14092
896.861	14199
896.982	14511
897.103	14537
897.224	14503
897.345	14415
897.466	14347
897.587	14362
897.708	14514
897.828	14461
897.949	14389
898.07	14282
898.19	14389
898.311	14503
898.431	14465
898.552	14629
898.672	14621
898.792	14674
898.913	14514
899.033	14488
899.153	14278
899.273	14229
899.393	14256
899.513	14454
899.633	14271
899.753	14419
899.873	14282
899.993	14358
900.113	14237
900.232	14438
900.352	14419
900.472	14256
900.591	14149
900.711	14233
900.83	14149
900.95	14237
901.069	14225
901.189	14115
901.308	13826
901.427	13883
901.546	13807
901.665	13898
901.784	13864
901.904	13700
902.023	13727
902.141	13506
902.26	13388
902.379	13540
902.498	13510
902.617	13415
902.735	13445
902.854	13419
902.973	13384
903.091	13168
903.21	13076
903.328	13118
903.446	13171
903.565	12996
903.683	13095
903.801	12981
903.919	12951
904.038	12996
904.156	12890
904.274	12947
904.392	12894
904.51	12798
904.627	12821
904.745	12863
904.863	12939
904.981	12593
905.098	12532
905.216	12574
905.334	12528
905.451	12547
905.569	12540
905.686	12574
905.803	12612
905.921	12285
906.038	12357
906.155	12388
906.272	12228
906.389	12273
906.506	12171
906.623	12106
906.74	12072
906.857	11969
906.974	12019
907.091	12121
907.208	12342
907.324	12182
907.441	12072
907.557	11809
907.674	11897
907.79	11802
907.907	11843
908.023	11973
908.139	11889
908.256	11767
908.372	11771
908.488	11752
908.604	11718
908.72	11680
908.836	11585
908.952	11581
909.068	11676
909.184	11832
909.3	11672
909.415	11676
909.531	11592
909.647	11493
909.762	11452
909.878	11368
909.993	11509
910.108	11463
910.224	11326
910.339	11383
910.454	11341
910.57	11288
910.685	11212
910.8	11372
910.915	11410
911.03	11174
911.145	11140
911.259	11064
911.374	11086
911.489	11018
911.604	10972
911.718	10850
911.833	10885
911.947	10797
912.062	10736
912.176	10786
912.291	10839
912.405	10816
912.519	11022
912.633	11083
912.748	10953
912.862	10908
912.976	10725
913.09	10603
913.204	10763
913.318	10694
913.431	10778
913.545	10889
913.659	10869
913.772	10694
913.886	10687
914	10618
914.113	10782
914.226	10740
914.34	10752
914.453	10546
914.566	10733
914.68	10580
914.793	10588
914.906	10352
915.019	10295
915.132	10310
915.245	10379
915.358	10436
915.47	10402
915.583	10265
915.696	10497
915.809	10489
915.921	10558
916.034	10390
916.146	10360
916.259	10314
916.371	10428
916.483	10489
916.595	10287
916.708	10322
916.82	10352
916.932	10344
917.044	10265
917.156	10261
917.268	10109
917.38	10253
917.491	10143
917.603	10215
917.715	10303
917.826	10341
917.938	10253
918.049	10128
918.161	10249
918.272	10402
918.384	10299
918.495	10223
918.606	10105
918.717	10021
918.828	10063
918.939	10211
919.05	9994
919.161	10059
919.272	9895
919.383	9922
919.494	10207
919.604	10344
919.715	10150
919.826	9972
919.936	10097
920.047	10188
920.157	10131
920.267	10322
920.378	10150
920.488	10143
920.598	10227
920.708	10394
920.818	10276
920.928	10306
921.038	10485
921.148	10424
921.258	10162
921.368	10055
921.477	9983
921.587	9937
921.697	9960
921.806	9945
921.916	9827
922.025	9736
922.134	9694
922.244	9584
922.353	9770
922.462	9587
922.571	9530
922.68	9367
922.789	9279
922.898	9367
923.007	9321
923.116	9393
923.224	9351
923.333	9431
923.442	9332
923.55	9291
923.659	9279
923.767	9332
923.876	9226
923.984	9374
924.092	9097
924.201	9211
924.309	9195
924.417	9199
924.525	9138
924.633	9218
924.741	10006
924.849	9051
924.956	9161
925.064	9001
925.172	8971
925.279	8998
925.387	9085
925.494	9066
925.602	9192
925.709	9112
925.816	8982
925.924	9017
926.031	9112
926.138	9077
926.245	9089
926.352	8979
926.459	9131
926.566	9081
926.673	8971
926.779	8853
926.886	8925
926.993	8804
927.099	8731
927.206	8716
927.312	8648
927.419	8811
927.525	8785
927.631	8823
927.737	8648
927.843	8617
927.95	8537
928.056	8610
928.162	8610
928.267	8697
928.373	9176
928.479	8712
928.585	8507
928.69	8670
928.796	8617
928.901	8541
929.007	8408
929.112	8571
929.218	8518
929.323	8533
929.428	8499
929.533	8667
929.638	8438
929.743	8419
929.848	8503
929.953	8415
930.058	8351
930.163	8259
930.267	8172
930.372	8408
930.477	8237
930.581	8457
930.685	8317
930.79	8157
930.894	8221
930.998	8172
931.103	8412
931.207	7959
931.311	7887
931.415	7875
931.519	7681
931.623	7647
