Data from test_V78500241_594.txt Node
Date: Fri Mar 25 14:37:51 CST 2022
User: usil
Spectrometer: V785-0024
Trigger mode: 0
Integration Time (sec): 4.000000E-1
Scans to average: 1
Nonlinearity correction enabled: false
Boxcar width: 0
Storing dark spectrum: false
XAxis mode: Wavelengths
Number of Pixels in Spectrum: 1024
>>>>>Begin Spectral Data<<<<<
801.071	27918
801.214	27926
801.356	27496
801.499	27526
801.641	27443
801.783	27313
801.926	27332
802.068	27237
802.211	27207
802.353	27043
802.496	26887
802.638	26883
802.78	26861
802.923	26937
803.065	26746
803.208	26819
803.35	26918
803.492	26921
803.635	27001
803.777	26952
803.919	27062
804.061	27412
804.204	27131
804.346	26918
804.488	27062
804.63	27001
804.773	27028
804.915	27070
805.057	27249
805.199	27222
805.341	27317
805.483	27226
805.626	27336
805.768	27397
805.91	27416
806.052	27568
806.194	27614
806.336	27804
806.478	27899
806.62	27987
806.762	28154
806.904	28569
807.046	29044
807.188	29018
807.33	29436
807.472	29893
807.614	30076
807.756	30920
807.898	31472
808.04	32469
808.182	33850
808.324	35638
808.465	37552
808.607	39835
808.749	41463
808.891	42783
809.033	42989
809.174	41832
809.316	39934
809.458	37483
809.6	35299
809.741	33462
809.883	32100
810.025	31350
810.166	30547
810.308	30022
810.45	29501
810.591	29162
810.733	28774
810.875	28630
811.016	28287
811.158	27972
811.299	28135
811.441	27987
811.582	27991
811.724	27766
811.865	27690
812.007	27614
812.148	27739
812.29	27488
812.431	27564
812.573	27785
812.714	27888
812.855	28048
812.997	27983
813.138	28112
813.279	27907
813.421	27751
813.562	27709
813.703	27523
813.845	27481
813.986	27131
814.127	26872
814.268	26640
814.41	26777
814.551	26701
814.692	26682
814.833	26606
814.974	26594
815.115	26667
815.256	26412
815.397	26457
815.539	26450
815.68	26214
815.821	26317
815.962	26145
816.103	26103
816.244	26210
816.385	25993
816.526	25989
816.666	25712
816.807	25575
816.948	25704
817.089	25738
817.23	25616
817.371	25575
817.512	25537
817.653	25521
817.793	25628
817.934	25586
818.075	25567
818.216	25639
818.356	25362
818.497	25377
818.638	25324
818.778	25331
818.919	25282
819.06	25285
819.2	25392
819.341	25575
819.481	25563
819.622	25525
819.762	25799
819.903	25799
820.043	25540
820.184	25285
820.324	25468
820.465	25571
820.605	25491
820.746	25415
820.886	25289
821.026	25430
821.167	25327
821.307	25415
821.447	25430
821.588	25217
821.728	25095
821.868	24913
822.008	24875
822.149	24650
822.289	24654
822.429	24384
822.569	24308
822.709	24391
822.849	24140
822.99	24117
823.13	24049
823.27	24038
823.41	23916
823.55	23832
823.69	23878
823.83	23790
823.97	23779
824.11	23657
824.25	23737
824.389	23611
824.529	23657
824.669	23672
824.809	23764
824.949	23767
825.089	23695
825.228	23630
825.368	23501
825.508	23581
825.648	23501
825.787	23467
825.927	23619
826.067	23372
826.206	23368
826.346	23478
826.485	23524
826.625	23436
826.765	23486
826.904	23501
827.044	23360
827.183	23200
827.323	23006
827.462	23166
827.601	23090
827.741	23029
827.88	23250
828.02	22938
828.159	23014
828.298	23109
828.437	23254
828.577	23018
828.716	23159
828.855	22919
828.994	22805
829.134	22908
829.273	22812
829.412	22729
829.551	22596
829.69	22755
829.829	22809
829.968	22866
830.107	22824
830.246	22740
830.385	22580
830.524	22649
830.663	22622
830.802	22443
830.941	22344
831.08	22428
831.219	22417
831.357	22554
831.496	22580
831.635	22394
831.774	22295
831.913	22333
832.051	22192
832.19	22192
832.329	22177
832.467	22192
832.606	22070
832.744	22253
832.883	22207
833.022	22200
833.16	22421
833.299	22500
833.437	22508
833.576	22607
833.714	22630
833.852	22797
833.991	22824
834.129	23022
834.267	22908
834.406	22828
834.544	22763
834.682	22698
834.821	22649
834.959	22740
835.097	22386
835.235	22265
835.373	22371
835.511	22299
835.65	22078
835.788	22082
835.926	21854
836.064	21755
836.202	21846
836.34	22097
836.478	21991
836.615	21846
836.753	21804
836.891	21968
837.029	21854
837.167	21876
837.305	21743
837.443	21778
837.58	21686
837.718	21690
837.856	21690
837.993	21534
838.131	21633
838.269	21644
838.406	21485
838.544	21477
838.681	21313
838.819	21222
838.956	21192
839.094	21024
839.231	21127
839.369	21313
839.506	21534
839.643	21302
839.781	20956
839.918	21062
840.055	21112
840.193	20979
840.33	21051
840.467	21017
840.604	21039
840.742	21359
840.879	20891
841.016	20906
841.153	20994
841.29	21074
841.427	20986
841.564	21013
841.701	20986
841.838	20941
841.975	20842
842.112	20861
842.249	20910
842.385	20651
842.522	20876
842.659	20830
842.796	20788
842.933	20895
843.069	20788
843.206	20887
843.343	20906
843.479	20727
843.616	20876
843.752	20823
843.889	20781
844.025	20876
844.162	20948
844.298	20982
844.435	20895
844.571	21127
844.708	21291
844.844	21622
844.98	22036
845.117	22188
845.253	22797
845.389	23954
845.525	26355
845.661	29946
845.798	34459
845.934	38001
846.07	39424
846.206	38571
846.342	35668
846.478	31183
846.614	27241
846.75	24403
846.886	22968
847.022	22051
847.158	21424
847.294	21119
847.429	20785
847.565	20590
847.701	20689
847.837	20161
847.972	20077
848.108	20077
848.244	20096
848.379	19921
848.515	19750
848.65	19765
848.786	19708
848.921	19700
849.057	19925
849.192	19727
849.328	19582
849.463	19635
849.598	19540
849.734	19540
849.869	19483
850.004	19373
850.14	19358
850.275	19441
850.41	19320
850.545	19312
850.68	19221
850.815	19324
850.95	19301
851.085	19556
851.22	19495
851.355	19263
851.49	19320
851.625	19346
851.76	19327
851.895	19232
852.03	19217
852.165	19365
852.299	19407
852.434	19419
852.569	19343
852.703	19434
852.838	19392
852.973	19540
853.107	19491
853.242	19282
853.376	19327
853.511	19225
853.645	19179
853.78	19343
853.914	19449
854.048	19445
854.183	19400
854.317	19460
854.451	19582
854.585	19510
854.72	19403
854.854	19468
854.988	19251
855.122	19369
855.256	19350
855.39	19255
855.524	19327
855.658	19316
855.792	19282
855.926	19278
856.06	19274
856.194	19320
856.327	19217
856.461	19118
856.595	19145
856.729	18989
856.862	19293
856.996	19114
857.13	19198
857.263	19187
857.397	19308
857.53	19072
857.664	19171
857.797	19118
857.931	19331
858.064	19080
858.197	19293
858.331	19118
858.464	19023
858.597	18954
858.731	19133
858.864	19076
858.997	18989
859.13	19027
859.263	19053
859.396	19046
859.529	19114
859.662	18973
859.795	18954
859.928	19008
860.061	19088
860.194	19145
860.327	19080
860.46	19031
860.592	19145
860.725	19152
860.858	19072
860.99	18993
861.123	18924
861.256	18958
861.388	18989
861.521	19639
861.653	18852
861.786	18749
861.918	18844
862.05	18989
862.183	18985
862.315	18970
862.447	18954
862.58	18954
862.712	18795
862.844	18696
862.976	18875
863.108	18840
863.24	19053
863.372	18779
863.504	18631
863.636	18730
863.768	18700
863.9	18764
864.032	18665
864.164	18578
864.296	18677
864.428	18730
864.559	18749
864.691	18738
864.823	18608
864.954	18741
865.086	18692
865.217	18658
865.349	18563
865.48	18627
865.612	18601
865.743	18738
865.875	18513
866.006	18456
866.137	18635
866.269	18616
866.4	18658
866.531	18528
866.662	18490
866.793	18604
866.924	18475
867.055	18589
867.186	18658
867.317	18540
867.448	18448
867.579	18437
867.71	18483
867.841	18414
867.972	18559
868.103	18593
868.233	18589
868.364	18585
868.495	18639
868.625	18783
868.756	18875
868.886	18753
869.017	18821
869.147	18837
869.278	18935
869.408	18768
869.539	18951
869.669	18833
869.799	18798
869.929	18973
870.06	18856
870.19	19270
870.32	19103
870.45	19209
870.58	19293
870.71	19297
870.84	19247
870.97	19232
871.1	19206
871.23	19468
871.36	19453
871.489	19289
871.619	19331
871.749	19529
871.879	19525
872.008	19632
872.138	19643
872.267	19533
872.397	19506
872.526	19377
872.656	19407
872.785	19396
872.915	19651
873.044	19731
873.173	19529
873.303	19632
873.432	19632
873.561	19723
873.69	19818
873.819	19765
873.948	19776
874.077	19670
874.206	19780
874.335	19750
874.464	19795
874.593	20065
874.722	19993
874.851	20195
874.979	20142
875.108	20145
875.237	20126
875.365	19963
875.494	20183
875.623	20153
875.751	20183
875.88	20366
876.008	20423
876.136	20442
876.265	20701
876.393	20975
876.521	20868
876.65	20902
876.778	20918
876.906	20910
877.034	20906
877.162	21150
877.29	20990
877.418	21161
877.546	21127
877.674	21226
877.802	21420
877.93	21454
878.058	21530
878.185	21606
878.313	21778
878.441	21873
878.568	22173
878.696	22554
878.824	23376
878.951	23843
879.079	25046
879.206	26438
879.333	27766
879.461	28957
879.588	29619
879.715	29676
879.842	29193
879.97	27705
880.097	26305
880.224	25244
880.351	24585
880.478	23828
880.605	23497
880.732	23242
880.859	23273
880.986	22889
881.112	22854
881.239	22668
881.366	22512
881.493	22421
881.619	22306
881.746	22535
881.872	22402
881.999	22497
882.125	22409
882.252	22516
882.378	22607
882.505	22752
882.631	22531
882.757	22280
882.883	22371
883.01	22371
883.136	22310
883.262	22162
883.388	22158
883.514	22322
883.64	22306
883.766	22166
883.892	22109
884.018	22074
884.143	22177
884.269	22421
884.395	22139
884.52	21880
884.646	22002
884.772	21964
884.897	21968
885.023	22074
885.148	22055
885.274	21956
885.399	21918
885.524	21880
885.65	21842
885.775	21781
885.9	21682
886.025	21568
886.15	21492
886.275	21249
886.4	21096
886.525	21032
886.65	20861
886.775	20914
886.9	20910
887.025	21108
887.149	20842
887.274	20549
887.399	20446
887.523	20427
887.648	20256
887.773	20298
887.897	20168
888.021	20256
888.146	20176
888.27	20263
888.395	20195
888.519	20149
888.643	20077
888.767	20012
888.891	19776
889.015	19765
889.139	19799
889.263	19765
889.387	19822
889.511	19803
889.635	19719
889.759	19715
889.883	19563
890.006	19651
890.13	19594
890.254	19510
890.377	19460
890.501	19187
890.624	19225
890.748	19301
890.871	19164
890.995	18993
891.118	18867
891.241	19038
891.364	18932
891.488	19103
891.611	18932
891.734	18913
891.857	19008
891.98	18894
892.103	19053
892.226	18909
892.349	18738
892.471	18635
892.594	18829
892.717	18779
892.839	18669
892.962	18760
893.085	18677
893.207	18650
893.33	18521
893.452	18486
893.575	18620
893.697	18467
893.819	18749
893.941	18745
894.064	18661
894.186	18498
894.308	18509
894.43	18639
894.552	18597
894.674	18658
894.796	18414
894.918	18327
895.04	18433
895.161	18479
895.283	18380
895.405	18410
895.526	18388
895.648	18445
895.769	18380
895.891	18361
896.012	18509
896.134	18429
896.255	18315
896.376	18388
896.498	18289
896.619	18342
896.74	18319
896.861	18498
896.982	18703
897.103	18810
897.224	18585
897.345	18646
897.466	18589
897.587	18597
897.708	18745
897.828	18700
897.949	18509
898.07	18407
898.19	18521
898.311	18604
898.431	18601
898.552	18506
898.672	18665
898.792	18631
898.913	18498
899.033	18357
899.153	18330
899.273	18300
899.393	18376
899.513	18403
899.633	18254
899.753	18365
899.873	18361
899.993	18323
900.113	18273
900.232	18429
900.352	18270
900.472	18277
900.591	18045
900.711	18148
900.83	18114
900.95	18372
901.069	18228
901.189	18095
901.308	17775
901.427	17741
901.546	17722
901.665	17745
901.784	17684
901.904	17653
902.023	17455
902.141	17246
902.26	17292
902.379	17269
902.498	17231
902.617	17105
902.735	17181
902.854	16968
902.973	17105
903.091	16820
903.21	16892
903.328	16843
903.446	16736
903.565	16664
903.683	16649
903.801	16489
903.919	16561
904.038	16588
904.156	16371
904.274	16436
904.392	16306
904.51	16314
904.627	16382
904.745	16500
904.863	16367
904.981	16253
905.098	16101
905.216	16036
905.334	16082
905.451	16082
905.569	15987
905.686	16036
905.803	15972
905.921	15880
906.038	15873
906.155	15884
906.272	15701
906.389	15770
906.506	15637
906.623	15519
906.74	15618
906.857	15363
906.974	15447
907.091	15526
907.208	15781
907.324	15454
907.441	15443
907.557	15230
907.674	15310
907.79	15199
907.907	15294
908.023	15184
908.139	15218
908.256	15165
908.372	15169
908.488	15180
908.604	14971
908.72	15013
908.836	15013
908.952	14899
909.068	14895
909.184	15093
909.3	14895
909.415	14891
909.531	14933
909.647	14735
909.762	14651
909.878	14636
909.993	14785
910.108	14579
910.224	14514
910.339	14617
910.454	14492
910.57	14541
910.685	14419
910.8	14640
910.915	14545
911.03	14442
911.145	14286
911.259	14252
911.374	14313
911.489	14180
911.604	14187
911.718	14039
911.833	14134
911.947	13936
912.062	13765
912.176	14027
912.291	14111
912.405	14035
912.519	14187
912.633	14210
912.748	14096
912.862	13940
912.976	13803
913.09	13731
913.204	13871
913.318	13917
913.431	14005
913.545	13993
913.659	13993
913.772	13902
913.886	13689
914	13723
914.113	13723
914.226	13742
914.34	13670
914.453	13647
914.566	13807
914.68	13670
914.793	13590
914.906	13491
915.019	13445
915.132	13335
915.245	13396
915.358	13419
915.47	13403
915.583	13422
915.696	13430
915.809	13521
915.921	13506
916.034	13392
916.146	13396
916.259	13377
916.371	13407
916.483	13247
916.595	13335
916.708	13289
916.82	13251
916.932	13285
917.044	13270
917.156	13343
917.268	13217
917.38	13183
917.491	13076
917.603	13133
917.715	13255
917.826	13171
917.938	13103
918.049	13034
918.161	13088
918.272	13141
918.384	13103
918.495	13072
918.606	12859
918.717	12814
918.828	12867
918.939	12833
919.05	12768
919.161	12852
919.272	12574
919.383	12817
919.494	12878
919.604	13061
919.715	12817
919.826	12772
919.936	12787
920.047	12886
920.157	12814
920.267	13088
920.378	12886
920.488	12890
920.598	13038
920.708	13110
920.818	12924
920.928	12966
921.038	13282
921.148	12996
921.258	12810
921.368	12722
921.477	12711
921.587	12547
921.697	12471
921.806	12566
921.916	12342
922.025	12289
922.134	12171
922.244	12239
922.353	12350
922.462	12163
922.571	12038
922.68	11939
922.789	11821
922.898	11847
923.007	11767
923.116	11866
923.224	11866
923.333	11855
923.442	11882
923.55	11676
923.659	11809
923.767	11786
923.876	11634
923.984	11828
924.092	11680
924.201	11672
924.309	11649
924.417	11680
924.525	11611
924.633	11661
924.741	12395
924.849	11379
924.956	11630
925.064	11429
925.172	11353
925.279	11383
925.387	11436
925.494	11452
925.602	11528
925.709	11436
925.816	11330
925.924	11341
926.031	11421
926.138	11417
926.245	11436
926.352	11273
926.459	11429
926.566	11478
926.673	11315
926.779	11227
926.886	11208
926.993	11022
927.099	11037
927.206	10961
927.312	10968
927.419	11052
927.525	11003
927.631	11083
927.737	10946
927.843	10896
927.95	10786
928.056	10847
928.162	10866
928.267	10919
928.373	11398
928.479	10957
928.585	10752
928.69	10839
928.796	10908
928.901	10752
929.007	10596
929.112	10691
929.218	10748
929.323	10706
929.428	10607
929.533	10797
929.638	10573
929.743	10687
929.848	10573
929.953	10504
930.058	10554
930.163	10356
930.267	10421
930.372	10443
930.477	10261
930.581	10535
930.685	10379
930.79	10219
930.894	10261
930.998	10257
931.103	10352
931.207	9956
931.311	9945
931.415	9808
931.519	9743
931.623	9724
