Data from test_V78500241_910.txt Node
Date: Fri Mar 25 14:40:03 CST 2022
User: usil
Spectrometer: V785-0024
Trigger mode: 0
Integration Time (sec): 4.000000E-1
Scans to average: 1
Nonlinearity correction enabled: false
Boxcar width: 0
Storing dark spectrum: false
XAxis mode: Wavelengths
Number of Pixels in Spectrum: 1024
>>>>>Begin Spectral Data<<<<<
801.071	24985
801.214	24833
801.356	24464
801.499	24429
801.641	24388
801.783	24251
801.926	24213
802.068	24129
802.211	24121
802.353	24034
802.496	23851
802.638	23859
802.78	23600
802.923	23653
803.065	23775
803.208	23570
803.35	23646
803.492	23714
803.635	23752
803.777	23570
803.919	23623
804.061	24018
804.204	23707
804.346	23600
804.488	23524
804.63	23680
804.773	23531
804.915	23722
805.057	23638
805.199	23718
805.341	23707
805.483	23718
805.626	23604
805.768	23653
805.91	23672
806.052	23665
806.194	23752
806.336	23855
806.478	23821
806.62	23885
806.762	24038
806.904	24121
807.046	24437
807.188	24464
807.33	24502
807.472	24772
807.614	24829
807.756	24886
807.898	25015
808.04	25301
808.182	25635
808.324	26077
808.465	26705
808.607	27416
808.749	27994
808.891	28322
809.033	28344
809.174	28078
809.316	27485
809.458	26902
809.6	26130
809.741	25784
809.883	25335
810.025	25316
810.166	25050
810.308	24882
810.45	24825
810.591	24486
810.733	24399
810.875	24311
811.016	24057
811.158	24060
811.299	24144
811.441	24232
811.582	24209
811.724	23999
811.865	23992
812.007	24018
812.148	23946
812.29	24003
812.431	24038
812.573	24327
812.714	24205
812.855	24407
812.997	24509
813.138	24681
813.279	24505
813.421	24395
813.562	24342
813.703	24144
813.845	23923
813.986	23646
814.127	23562
814.268	23425
814.41	23364
814.551	23360
814.692	23379
814.833	23318
814.974	23299
815.115	23425
815.256	23284
815.397	23242
815.539	23288
815.68	23105
815.821	23067
815.962	23117
816.103	23025
816.244	22915
816.385	22854
816.526	22767
816.666	22546
816.807	22508
816.948	22561
817.089	22660
817.23	22508
817.371	22527
817.512	22447
817.653	22516
817.793	22375
817.934	22474
818.075	22447
818.216	22493
818.356	22398
818.497	22306
818.638	22131
818.778	21968
818.919	22173
819.06	22223
819.2	22242
819.341	22322
819.481	22325
819.622	22367
819.762	22580
819.903	22462
820.043	22337
820.184	22360
820.324	22379
820.465	22523
820.605	22322
820.746	22371
820.886	22101
821.026	22360
821.167	22379
821.307	22371
821.447	22173
821.588	22093
821.728	22067
821.868	21831
822.008	21736
822.149	21660
822.289	21663
822.429	21568
822.569	21378
822.709	21408
822.849	21192
822.99	21188
823.13	21127
823.27	21184
823.41	20982
823.55	20967
823.69	21001
823.83	20956
823.97	20990
824.11	20708
824.25	20735
824.389	20861
824.529	20929
824.669	20834
824.809	20986
824.949	20872
825.089	20807
825.228	20819
825.368	20606
825.508	20568
825.648	20655
825.787	20621
825.927	20606
826.067	20526
826.206	20404
826.346	20530
826.485	20609
826.625	20488
826.765	20686
826.904	20598
827.044	20358
827.183	20313
827.323	20103
827.462	20332
827.601	20214
827.741	20225
827.88	20218
828.02	20016
828.159	20248
828.298	20275
828.437	20305
828.577	20119
828.716	20328
828.855	20065
828.994	19909
829.134	19925
829.273	19928
829.412	19879
829.551	19856
829.69	19898
829.829	19967
829.968	20001
830.107	19955
830.246	19932
830.385	19811
830.524	19826
830.663	19643
830.802	19552
830.941	19609
831.08	19403
831.219	19655
831.357	19575
831.496	19776
831.635	19392
831.774	19426
831.913	19308
832.051	19297
832.19	19331
832.329	19255
832.467	19038
832.606	19225
832.744	19190
832.883	19110
833.022	19171
833.16	19247
833.299	19377
833.437	19247
833.576	19381
833.714	19377
833.852	19419
833.991	19403
834.129	19441
834.267	19381
834.406	19335
834.544	19460
834.682	19358
834.821	19278
834.959	19422
835.097	19228
835.235	19339
835.373	19232
835.511	19179
835.65	19202
835.788	19133
835.926	18875
836.064	18863
836.202	18977
836.34	19110
836.478	19137
836.615	19034
836.753	19019
836.891	19103
837.029	19118
837.167	18932
837.305	18928
837.443	18993
837.58	18859
837.718	18973
837.856	18882
837.993	18779
838.131	18821
838.269	18840
838.406	18661
838.544	18650
838.681	18582
838.819	18559
838.956	18289
839.094	18502
839.231	18403
839.369	18525
839.506	18787
839.643	18471
839.781	18445
839.918	18357
840.055	18490
840.193	18239
840.33	18247
840.467	18388
840.604	18369
840.742	18608
840.879	18224
841.016	18197
841.153	18220
841.29	18456
841.427	18300
841.564	18334
841.701	18308
841.838	18251
841.975	18163
842.112	18167
842.249	18076
842.385	18041
842.522	18289
842.659	18068
842.796	18091
842.933	18117
843.069	17980
843.206	17980
843.343	18148
843.479	18216
843.616	18064
843.752	17802
843.889	17912
844.025	18064
844.162	17908
844.298	17950
844.435	18038
844.571	17988
844.708	18011
844.844	18216
844.98	18338
845.117	18292
845.253	18323
845.389	18601
845.525	19228
845.661	20180
845.798	21199
845.934	22337
846.07	22698
846.206	22580
846.342	21991
846.478	20701
846.614	19426
846.75	18509
846.886	18155
847.022	17912
847.158	17885
847.294	17634
847.429	17604
847.565	17433
847.701	17619
847.837	17181
847.972	17003
848.108	17265
848.244	17132
848.379	17037
848.515	16923
848.65	16930
848.786	17029
848.921	16904
849.057	17033
849.192	16938
849.328	16980
849.463	16793
849.598	16923
849.734	16847
849.869	16786
850.004	16793
850.14	16812
850.275	16656
850.41	16607
850.545	16599
850.68	16683
850.815	16565
850.95	16542
851.085	16782
851.22	16740
851.355	16641
851.49	16584
851.625	16622
851.76	16592
851.895	16523
852.03	16558
852.165	16611
852.299	16683
852.434	16740
852.569	16782
852.703	16645
852.838	16793
852.973	16812
853.107	16866
853.242	16702
853.376	16626
853.511	16470
853.645	16580
853.78	16694
853.914	16626
854.048	16516
854.183	16607
854.317	16626
854.451	16721
854.585	16538
854.72	16485
854.854	16672
854.988	16512
855.122	16611
855.256	16447
855.39	16626
855.524	16584
855.658	16561
855.792	16512
855.926	16584
856.06	16611
856.194	16653
856.327	16561
856.461	16470
856.595	16398
856.729	16519
856.862	16679
856.996	16504
857.13	16645
857.263	16607
857.397	16550
857.53	16603
857.664	16542
857.797	16546
857.931	16588
858.064	16474
858.197	16660
858.331	16493
858.464	16428
858.597	16500
858.731	16535
858.864	16531
858.997	16523
859.13	16474
859.263	16417
859.396	16485
859.529	16478
859.662	16402
859.795	16344
859.928	16455
860.061	16596
860.194	16702
860.327	16508
860.46	16284
860.592	16542
860.725	16500
860.858	16531
860.99	16474
861.123	16413
861.256	16436
861.388	16451
861.521	17048
861.653	16352
861.786	16398
861.918	16268
862.05	16299
862.183	16386
862.315	16443
862.447	16405
862.58	16394
862.712	16200
862.844	16192
862.976	16325
863.108	16181
863.24	16630
863.372	16120
863.504	16093
863.636	16211
863.768	16219
863.9	16166
864.032	16150
864.164	16158
864.296	16329
864.428	16230
864.559	16238
864.691	16219
864.823	16352
864.954	16192
865.086	16249
865.217	16200
865.349	16177
865.48	16147
865.612	16173
865.743	16306
865.875	16246
866.006	16071
866.137	16158
866.269	16128
866.4	16173
866.531	16063
866.662	16109
866.793	16192
866.924	16105
867.055	16177
867.186	16147
867.317	16109
867.448	16063
867.579	16158
867.71	15964
867.841	16074
867.972	16036
868.103	16177
868.233	16067
868.364	16074
868.495	16158
868.625	16344
868.756	16485
868.886	16265
869.017	16333
869.147	16447
869.278	16485
869.408	16428
869.539	16424
869.669	16519
869.799	16440
869.929	16508
870.06	16489
870.19	16641
870.32	16516
870.45	16782
870.58	16858
870.71	16862
870.84	16858
870.97	16733
871.1	16771
871.23	16896
871.36	16896
871.489	16824
871.619	16927
871.749	16904
871.879	17045
872.008	17003
872.138	17079
872.267	16881
872.397	16771
872.526	16771
872.656	16843
872.785	16862
872.915	16968
873.044	17166
873.173	17014
873.303	17037
873.432	17170
873.561	17045
873.69	17094
873.819	17010
873.948	17109
874.077	17136
874.206	17098
874.335	17132
874.464	17136
874.593	17330
874.722	17326
874.851	17512
874.979	17360
875.108	17414
875.237	17356
875.365	17360
875.494	17360
875.623	17452
875.751	17410
875.88	17562
876.008	17589
876.136	17638
876.265	17840
876.393	18091
876.521	17927
876.65	17893
876.778	17923
876.906	17969
877.034	17843
877.162	17901
877.29	17889
877.418	17977
877.546	18083
877.674	17969
877.802	17935
877.93	18076
878.058	18038
878.185	17980
878.313	18072
878.441	18125
878.568	18133
878.696	18460
878.824	18521
878.951	18741
879.079	19038
879.206	19483
879.333	19814
879.461	20115
879.588	20415
879.715	20484
879.842	20317
879.97	19913
880.097	19152
880.224	18875
880.351	18768
880.478	18555
880.605	18388
880.732	18448
880.859	18627
880.986	18338
881.112	18350
881.239	18121
881.366	18125
881.493	18019
881.619	17855
881.746	17942
881.872	18011
881.999	17863
882.125	17836
882.252	18034
882.378	17939
882.505	18076
882.631	17874
882.757	17802
882.883	17832
883.01	17809
883.136	17805
883.262	17695
883.388	17558
883.514	17668
883.64	17916
883.766	17665
883.892	17474
884.018	17577
884.143	17756
884.269	17923
884.395	17577
884.52	17467
884.646	17425
884.772	17326
884.897	17356
885.023	17528
885.148	17554
885.274	17467
885.399	17493
885.524	17440
885.65	17452
885.775	17414
885.9	17330
886.025	17535
886.15	17242
886.275	17162
886.4	17018
886.525	17178
886.65	17037
886.775	17117
886.9	17334
887.025	17315
887.149	17162
887.274	16965
887.399	16911
887.523	16904
887.648	16793
887.773	16774
887.897	16904
888.021	16991
888.146	16752
888.27	16904
888.395	16946
888.519	16786
888.643	16850
888.767	16748
888.891	16626
889.015	16535
889.139	16698
889.263	16554
889.387	16691
889.511	16702
889.635	16752
889.759	16672
889.883	16508
890.006	16645
890.13	16691
890.254	16413
890.377	16478
890.501	16348
890.624	16295
890.748	16440
890.871	16246
890.995	16177
891.118	16063
891.241	16204
891.364	16185
891.488	16352
891.611	16261
891.734	16128
891.857	16204
891.98	16097
892.103	16147
892.226	16124
892.349	16105
892.471	15998
892.594	16048
892.717	16181
892.839	16162
892.962	16086
893.085	16169
893.207	16158
893.33	15949
893.452	15953
893.575	16131
893.697	16044
893.819	16253
893.941	16158
894.064	16158
894.186	15994
894.308	16036
894.43	16013
894.552	16200
894.674	16101
894.796	15975
894.918	15998
895.04	15930
895.161	16097
895.283	16093
895.405	16010
895.526	16055
895.648	16128
895.769	16124
895.891	16177
896.012	16166
896.134	16207
896.255	16105
896.376	16036
896.498	16074
896.619	16116
896.74	16150
896.861	16219
896.982	16497
897.103	16675
897.224	16497
897.345	16402
897.466	16299
897.587	16531
897.708	16516
897.828	16360
897.949	16443
898.07	16238
898.19	16371
898.311	16436
898.431	16405
898.552	16466
898.672	16478
898.792	16516
898.913	16459
899.033	16447
899.153	16363
899.273	16253
899.393	16314
899.513	16306
899.633	16223
899.753	16280
899.873	16257
899.993	16379
900.113	16265
900.232	16440
900.352	16219
900.472	16223
900.591	16162
900.711	16185
900.83	16154
900.95	16265
901.069	16291
901.189	16044
901.308	15816
901.427	15747
901.546	15797
901.665	15850
901.784	15819
901.904	15648
902.023	15534
902.141	15420
902.26	15260
902.379	15287
902.498	15310
902.617	15272
902.735	15268
902.854	15344
902.973	15211
903.091	15131
903.21	14876
903.328	14982
903.446	14895
903.565	14765
903.683	14845
903.801	14689
903.919	14781
904.038	14796
904.156	14560
904.274	14648
904.392	14530
904.51	14514
904.627	14495
904.745	14663
904.863	14655
904.981	14351
905.098	14237
905.216	14218
905.334	14267
905.451	14252
905.569	14282
905.686	14240
905.803	14278
905.921	14031
906.038	14069
906.155	14092
906.272	13963
906.389	13963
906.506	13875
906.623	13826
906.74	13742
906.857	13719
906.974	13616
907.091	13776
907.208	13784
907.324	13780
907.441	13719
907.557	13537
907.674	13521
907.79	13407
907.907	13430
908.023	13533
908.139	13594
908.256	13407
908.372	13362
908.488	13308
908.604	13270
908.72	13133
908.836	13247
908.952	13187
909.068	13240
909.184	13228
909.3	13266
909.415	13221
909.531	13213
909.647	12981
909.762	12973
909.878	12966
909.993	12856
910.108	12947
910.224	12932
910.339	12932
910.454	12768
910.57	12730
910.685	12837
910.8	13004
910.915	12920
911.03	12806
911.145	12665
911.259	12608
911.374	12620
911.489	12525
911.604	12525
911.718	12410
911.833	12403
911.947	12251
912.062	12254
912.176	12395
912.291	12292
912.405	12350
912.519	12566
912.633	12616
912.748	12289
912.862	12296
912.976	12148
913.09	12102
913.204	12060
913.318	12262
913.431	12289
913.545	12296
913.659	12353
913.772	12281
913.886	12095
914	12034
914.113	12194
914.226	12266
914.34	12083
914.453	11965
914.566	12190
914.68	11969
914.793	11946
914.906	11874
915.019	11817
915.132	11676
915.245	11745
915.358	11859
915.47	11828
915.583	11931
915.696	11847
915.809	11893
915.921	11961
916.034	11710
916.146	11688
916.259	11699
916.371	11783
916.483	11836
916.595	11733
916.708	11779
916.82	11661
916.932	11627
917.044	11733
917.156	11634
917.268	11532
917.38	11634
917.491	11478
917.603	11566
917.715	11695
917.826	11703
917.938	11642
918.049	11467
918.161	11543
918.272	11672
918.384	11577
918.495	11596
918.606	11459
918.717	11414
918.828	11448
918.939	11490
919.05	11398
919.161	11410
919.272	11193
919.383	11299
919.494	11471
919.604	11642
919.715	11398
919.826	11318
919.936	11360
920.047	11414
920.157	11444
920.267	11611
920.378	11482
920.488	11345
920.598	11619
920.708	11756
920.818	11630
920.928	11581
921.038	11764
921.148	11714
921.258	11440
921.368	11448
921.477	11280
921.587	11235
921.697	11147
921.806	11231
921.916	11147
922.025	11003
922.134	10965
922.244	10927
922.353	11025
922.462	10911
922.571	10801
922.68	10714
922.789	10565
922.898	10618
923.007	10584
923.116	10656
923.224	10580
923.333	10626
923.442	10455
923.55	10478
923.659	10561
923.767	10519
923.876	10413
923.984	10550
924.092	10394
924.201	10466
924.309	10398
924.417	10512
924.525	10455
924.633	10394
924.741	11124
924.849	10143
924.956	10352
925.064	10238
925.172	10128
925.279	10200
925.387	10238
925.494	10246
925.602	10310
925.709	10284
925.816	10211
925.924	10196
926.031	10306
926.138	10158
926.245	10234
926.352	10158
926.459	10253
926.566	10192
926.673	10204
926.779	10021
926.886	10010
926.993	9911
927.099	9949
927.206	9804
927.312	9797
927.419	9915
927.525	9888
927.631	9934
927.737	9793
927.843	9774
927.95	9656
928.056	9759
928.162	9755
928.267	9880
928.373	10440
928.479	9842
928.585	9648
928.69	9819
928.796	9781
928.901	9759
929.007	9618
929.112	9606
929.218	9720
929.323	9526
929.428	9504
929.533	9629
929.638	9557
929.743	9572
929.848	9553
929.953	9507
930.058	9485
930.163	9268
930.267	9329
930.372	9424
930.477	9294
930.581	9515
930.685	9431
930.79	9203
930.894	9226
930.998	9188
931.103	9351
931.207	8994
931.311	8941
931.415	8861
931.519	8743
931.623	8712
