Data from test_V78500241_2448.txt Node
Date: Fri Mar 25 14:50:45 CST 2022
User: usil
Spectrometer: V785-0024
Trigger mode: 0
Integration Time (sec): 4.000000E-1
Scans to average: 1
Nonlinearity correction enabled: false
Boxcar width: 0
Storing dark spectrum: false
XAxis mode: Wavelengths
Number of Pixels in Spectrum: 1024
>>>>>Begin Spectral Data<<<<<
801.071	22173
801.214	22067
801.356	21743
801.499	21675
801.641	21595
801.783	21519
801.926	21622
802.068	21420
802.211	21351
802.353	21283
802.496	21116
802.638	20971
802.78	20994
802.923	20845
803.065	20800
803.208	20819
803.35	20891
803.492	20948
803.635	20914
803.777	20750
803.919	20895
804.061	21241
804.204	20948
804.346	20686
804.488	20739
804.63	20773
804.773	20667
804.915	20765
805.057	20891
805.199	20762
805.341	20735
805.483	20724
805.626	20830
805.768	20815
805.91	20724
806.052	20804
806.194	20651
806.336	20823
806.478	20579
806.62	20689
806.762	20724
806.904	20982
807.046	21214
807.188	21108
807.33	21150
807.472	21154
807.614	20918
807.756	20979
807.898	20861
808.04	20902
808.182	20735
808.324	20868
808.465	20899
808.607	21020
808.749	21226
808.891	21230
809.033	21325
809.174	21226
809.316	21112
809.458	21165
809.6	21066
809.741	21100
809.883	21222
810.025	21306
810.166	21207
810.308	21348
810.45	21192
810.591	21154
810.733	20998
810.875	21020
811.016	20815
811.158	20842
811.299	20861
811.441	20883
811.582	20948
811.724	20952
811.865	20910
812.007	20937
812.148	20872
812.29	20937
812.431	21039
812.573	21096
812.714	21363
812.855	21492
812.997	21424
813.138	21633
813.279	21401
813.421	21447
813.562	21393
813.703	21017
813.845	20990
813.986	20754
814.127	20545
814.268	20613
814.41	20427
814.551	20374
814.692	20522
814.833	20400
814.974	20317
815.115	20419
815.256	20332
815.397	20271
815.539	20202
815.68	20168
815.821	20126
815.962	20164
816.103	20069
816.244	20008
816.385	19883
816.526	19860
816.666	19715
816.807	19681
816.948	19563
817.089	19700
817.23	19655
817.371	19445
817.512	19502
817.653	19411
817.793	19491
817.934	19525
818.075	19502
818.216	19487
818.356	19590
818.497	19381
818.638	19289
818.778	19255
818.919	19133
819.06	19354
819.2	19396
819.341	19502
819.481	19457
819.622	19544
819.762	19765
819.903	19651
820.043	19578
820.184	19468
820.324	19537
820.465	19761
820.605	19502
820.746	19407
820.886	19346
821.026	19487
821.167	19499
821.307	19620
821.447	19453
821.588	19384
821.728	19320
821.868	19194
822.008	18935
822.149	19031
822.289	18859
822.429	18646
822.569	18597
822.709	18700
822.849	18464
822.99	18410
823.13	18517
823.27	18330
823.41	18281
823.55	18148
823.69	18266
823.83	18262
823.97	18262
824.11	17939
824.25	17942
824.389	18007
824.529	18125
824.669	18030
824.809	18106
824.949	18019
825.089	18064
825.228	18015
825.368	17737
825.508	17897
825.648	17764
825.787	17824
825.927	17824
826.067	17737
826.206	17794
826.346	17828
826.485	17710
826.625	17665
826.765	17916
826.904	17752
827.044	17611
827.183	17661
827.323	17501
827.462	17505
827.601	17505
827.741	17376
827.88	17562
828.02	17372
828.159	17490
828.298	17535
828.437	17577
828.577	17448
828.716	17592
828.855	17436
828.994	17250
829.134	17170
829.273	17174
829.412	17265
829.551	17170
829.69	17231
829.829	17261
829.968	17307
830.107	17311
830.246	17269
830.385	17071
830.524	17178
830.663	17071
830.802	16987
830.941	16782
831.08	16911
831.219	16835
831.357	16908
831.496	17056
831.635	16839
831.774	16763
831.913	16710
832.051	16596
832.19	16706
832.329	16573
832.467	16584
832.606	16603
832.744	16618
832.883	16577
833.022	16546
833.16	16455
833.299	16542
833.437	16500
833.576	16535
833.714	16512
833.852	16542
833.991	16630
834.129	16573
834.267	16599
834.406	16542
834.544	16603
834.682	16592
834.821	16500
834.959	16752
835.097	16535
835.235	16588
835.373	16561
835.511	16649
835.65	16542
835.788	16561
835.926	16219
836.064	16390
836.202	16333
836.34	16489
836.478	16489
836.615	16421
836.753	16405
836.891	16504
837.029	16538
837.167	16390
837.305	16428
837.443	16325
837.58	16382
837.718	16337
837.856	16398
837.993	16310
838.131	16306
838.269	16333
838.406	16291
838.544	16162
838.681	16086
838.819	15911
838.956	15922
839.094	15857
839.231	15846
839.369	15960
839.506	16333
839.643	16139
839.781	15983
839.918	15812
840.055	15907
840.193	15899
840.33	15888
840.467	15903
840.604	15994
840.742	16211
840.879	15812
841.016	15816
841.153	15747
841.29	15994
841.427	15964
841.564	16017
841.701	15991
841.838	15804
841.975	15816
842.112	15793
842.249	15800
842.385	15675
842.522	15857
842.659	15682
842.796	15644
842.933	15709
843.069	15534
843.206	15641
843.343	15751
843.479	15667
843.616	15701
843.752	15523
843.889	15496
844.025	15618
844.162	15488
844.298	15538
844.435	15496
844.571	15291
844.708	15545
844.844	15667
844.98	15584
845.117	15507
845.253	15408
845.389	15386
845.525	15344
845.661	15287
845.798	15325
845.934	15393
846.07	15188
846.206	15329
846.342	15348
846.478	15306
846.614	15077
846.75	14906
846.886	14929
847.022	15199
847.158	15039
847.294	15062
847.429	15077
847.565	15055
847.701	15294
847.837	14815
847.972	14686
848.108	14944
848.244	14914
848.379	14625
848.515	14522
848.65	14545
848.786	14678
848.921	14579
849.057	14769
849.192	14716
849.328	14689
849.463	14632
849.598	14541
849.734	14549
849.869	14446
850.004	14434
850.14	14454
850.275	14438
850.41	14374
850.545	14313
850.68	14252
850.815	14488
850.95	14343
851.085	14575
851.22	14484
851.355	14362
851.49	14328
851.625	14328
851.76	14381
851.895	14317
852.03	14267
852.165	14431
852.299	14469
852.434	14461
852.569	14457
852.703	14370
852.838	14427
852.973	14564
853.107	14598
853.242	14351
853.376	14252
853.511	14088
853.645	14286
853.78	14396
853.914	14267
854.048	14301
854.183	14286
854.317	14225
854.451	14480
854.585	14298
854.72	14240
854.854	14271
854.988	14233
855.122	14225
855.256	14161
855.39	14290
855.524	14286
855.658	14320
855.792	14218
855.926	14263
856.06	14423
856.194	14298
856.327	14355
856.461	14237
856.595	14206
856.729	14149
856.862	14324
856.996	14301
857.13	14400
857.263	14427
857.397	14298
857.53	14252
857.664	14332
857.797	14309
857.931	14415
858.064	14324
858.197	14377
858.331	14351
858.464	14218
858.597	14050
858.731	14286
858.864	14195
858.997	14271
859.13	14267
859.263	14294
859.396	14305
859.529	14339
859.662	14195
859.795	14176
859.928	14244
860.061	14530
860.194	14480
860.327	14328
860.46	14282
860.592	14377
860.725	14317
860.858	14412
860.99	14199
861.123	14221
861.256	14191
861.388	14206
861.521	14804
861.653	14164
861.786	14035
861.918	14157
862.05	14145
862.183	14218
862.315	14237
862.447	14267
862.58	14195
862.712	14043
862.844	13951
862.976	14123
863.108	14142
863.24	14381
863.372	13947
863.504	14054
863.636	13978
863.768	14027
863.9	14126
864.032	14050
864.164	14005
864.296	14046
864.428	14225
864.559	14218
864.691	14206
864.823	14142
864.954	13959
865.086	14092
865.217	13959
865.349	14062
865.48	14077
865.612	14062
865.743	14161
865.875	14024
866.006	14016
866.137	14039
866.269	14058
866.4	14008
866.531	13925
866.662	14046
866.793	14065
866.924	14027
867.055	14107
867.186	13982
867.317	14065
867.448	13963
867.579	13982
867.71	13944
867.841	13845
867.972	13932
868.103	14012
868.233	14073
868.364	13974
868.495	14130
868.625	14225
868.756	14347
868.886	14195
869.017	14290
869.147	14389
869.278	14457
869.408	14336
869.539	14206
869.669	14336
869.799	14240
869.929	14278
870.06	14396
870.19	14575
870.32	14663
870.45	14545
870.58	14602
870.71	14724
870.84	14712
870.97	14640
871.1	14571
871.23	14891
871.36	14925
871.489	14788
871.619	14967
871.749	14800
871.879	14845
872.008	14982
872.138	14857
872.267	14891
872.397	14659
872.526	14648
872.656	14743
872.785	14693
872.915	14937
873.044	14899
873.173	14921
873.303	15013
873.432	15039
873.561	14891
873.69	14918
873.819	14952
873.948	14971
874.077	14963
874.206	14918
874.335	14864
874.464	15131
874.593	15256
874.722	15062
874.851	15207
874.979	15294
875.108	15287
875.237	15108
875.365	15135
875.494	15268
875.623	15291
875.751	15332
875.88	15275
876.008	15454
876.136	15416
876.265	15610
876.393	15819
876.521	15667
876.65	15778
876.778	15652
876.906	15610
877.034	15545
877.162	15644
877.29	15709
877.418	15667
877.546	15671
877.674	15625
877.802	15618
877.93	15663
878.058	15675
878.185	15408
878.313	15492
878.441	15686
878.568	15507
878.696	15523
878.824	15587
878.951	15755
879.079	15842
879.206	15979
879.333	15846
879.461	15724
879.588	15728
879.715	15869
879.842	15998
879.97	15747
880.097	15557
880.224	15488
880.351	15545
880.478	15542
880.605	15462
880.732	15458
880.859	15686
880.986	15431
881.112	15496
881.239	15344
881.366	15192
881.493	15165
881.619	15062
881.746	15180
881.872	15237
881.999	15138
882.125	15077
882.252	15142
882.378	15161
882.505	15302
882.631	15093
882.757	14925
882.883	15009
883.01	15020
883.136	14857
883.262	14864
883.388	14895
883.514	14952
883.64	14979
883.766	14925
883.892	14838
884.018	14834
884.143	15020
884.269	15112
884.395	14689
884.52	14617
884.646	14762
884.772	14594
884.897	14503
885.023	14712
885.148	14769
885.274	14857
885.399	14800
885.524	14716
885.65	14659
885.775	14689
885.9	14648
886.025	14815
886.15	14765
886.275	14655
886.4	14514
886.525	14564
886.65	14659
886.775	14636
886.9	14838
887.025	14830
887.149	14731
887.274	14511
887.399	14465
887.523	14545
887.648	14385
887.773	14374
887.897	14613
888.021	14495
888.146	14320
888.27	14579
888.395	14689
888.519	14568
888.643	14575
888.767	14590
888.891	14492
889.015	14374
889.139	14412
889.263	14434
889.387	14617
889.511	14587
889.635	14556
889.759	14423
889.883	14423
890.006	14355
890.13	14431
890.254	14381
890.377	14244
890.501	14142
890.624	14134
890.748	14290
890.871	14206
890.995	14065
891.118	13902
891.241	13986
891.364	14046
891.488	14206
891.611	14027
891.734	14081
891.857	14134
891.98	14126
892.103	14164
892.226	14123
892.349	13982
892.471	13940
892.594	14092
892.717	14077
892.839	14103
892.962	14069
893.085	14206
893.207	14100
893.33	14020
893.452	13921
893.575	14073
893.697	14016
893.819	14248
893.941	14271
894.064	14180
894.186	14050
894.308	13970
894.43	14195
894.552	14278
894.674	14267
894.796	14126
894.918	14103
895.04	14206
895.161	14180
895.283	14221
895.405	14084
895.526	14199
895.648	14278
895.769	14256
895.891	14202
896.012	14263
896.134	14263
896.255	14317
896.376	14180
896.498	14328
896.619	14324
896.74	14252
896.861	14286
896.982	14629
897.103	14708
897.224	14476
897.345	14446
897.466	14476
897.587	14533
897.708	14617
897.828	14526
897.949	14499
898.07	14298
898.19	14484
898.311	14697
898.431	14457
898.552	14629
898.672	14651
898.792	14651
898.913	14621
899.033	14613
899.153	14476
899.273	14317
899.393	14400
899.513	14499
899.633	14533
899.753	14545
899.873	14415
899.993	14492
900.113	14495
900.232	14571
900.352	14374
900.472	14377
900.591	14336
900.711	14282
900.83	14229
900.95	14434
901.069	14313
901.189	14199
901.308	14035
901.427	13947
901.546	13951
901.665	13986
901.784	13986
901.904	13811
902.023	13750
902.141	13578
902.26	13544
902.379	13567
902.498	13605
902.617	13411
902.735	13613
902.854	13624
902.973	13384
903.091	13312
903.21	13232
903.328	13308
903.446	13263
903.565	13126
903.683	13213
903.801	12993
903.919	13099
904.038	13053
904.156	13031
904.274	13027
904.392	12970
904.51	12928
904.627	12958
904.745	12962
904.863	12996
904.981	12662
905.098	12631
905.216	12616
905.334	12688
905.451	12620
905.569	12669
905.686	12658
905.803	12654
905.921	12418
906.038	12604
906.155	12506
906.272	12327
906.389	12330
906.506	12243
906.623	12304
906.74	12285
906.857	12087
906.974	12106
907.091	12262
907.208	12407
907.324	12311
907.441	12175
907.557	12003
907.674	11954
907.79	11836
907.907	11916
908.023	11916
908.139	12019
908.256	11935
908.372	11950
908.488	11847
908.604	11779
908.72	11699
908.836	11710
908.952	11691
909.068	11733
909.184	11843
909.3	11737
909.415	11859
909.531	11703
909.647	11543
909.762	11509
909.878	11486
909.993	11440
910.108	11547
910.224	11417
910.339	11512
910.454	11376
910.57	11360
910.685	11315
910.8	11573
910.915	11493
911.03	11360
911.145	11159
911.259	11212
911.374	11208
911.489	11121
911.604	11132
911.718	10953
911.833	11045
911.947	10957
912.062	10824
912.176	10938
912.291	10980
912.405	10972
912.519	11212
912.633	11254
912.748	11014
912.862	10995
912.976	10866
913.09	10721
913.204	10774
913.318	10854
913.431	10919
913.545	10930
913.659	10968
913.772	10866
913.886	10679
914	10714
914.113	10858
914.226	10828
914.34	10809
914.453	10603
914.566	10828
914.68	10698
914.793	10615
914.906	10451
915.019	10398
915.132	10417
915.245	10413
915.358	10455
915.47	10516
915.583	10443
915.696	10474
915.809	10634
915.921	10580
916.034	10424
916.146	10405
916.259	10413
916.371	10542
916.483	10436
916.595	10417
916.708	10405
916.82	10409
916.932	10367
917.044	10424
917.156	10371
917.268	10234
917.38	10287
917.491	10314
917.603	10363
917.715	10333
917.826	10394
917.938	10192
918.049	10166
918.161	10181
918.272	10375
918.384	10489
918.495	10329
918.606	10139
918.717	10032
918.828	10230
918.939	10192
919.05	10082
919.161	10074
919.272	10040
919.383	10006
919.494	10238
919.604	10318
919.715	10223
919.826	10101
919.936	10310
920.047	10295
920.157	10135
920.267	10390
920.378	10238
920.488	10177
920.598	10436
920.708	10546
920.818	10360
920.928	10443
921.038	10565
921.148	10546
921.258	10204
921.368	10147
921.477	10109
921.587	10059
921.697	9911
921.806	10036
921.916	10032
922.025	9759
922.134	9759
922.244	9679
922.353	9751
922.462	9652
922.571	9492
922.68	9435
922.789	9454
922.898	9496
923.007	9412
923.116	9511
923.224	9500
923.333	9397
923.442	9279
923.55	9329
923.659	9317
923.767	9443
923.876	9283
923.984	9378
924.092	9260
924.201	9416
924.309	9389
924.417	9367
924.525	9298
924.633	9275
924.741	10017
924.849	9070
924.956	9230
925.064	9112
925.172	9032
925.279	9066
925.387	9100
925.494	9138
925.602	9214
925.709	9138
925.816	9036
925.924	9138
926.031	9135
926.138	9077
926.245	9176
926.352	8998
926.459	9138
926.566	9226
926.673	9062
926.779	9047
926.886	8921
926.993	8887
927.099	8849
927.206	8777
927.312	8785
927.419	8902
927.525	8781
927.631	8819
927.737	8773
927.843	8720
927.95	8587
928.056	8769
928.162	8724
928.267	8731
928.373	9428
928.479	8785
928.585	8659
928.69	8629
928.796	8743
928.901	8594
929.007	8484
929.112	8621
929.218	8674
929.323	8488
929.428	8473
929.533	8727
929.638	8518
929.743	8522
929.848	8594
929.953	8526
930.058	8473
930.163	8320
930.267	8317
930.372	8469
930.477	8248
930.581	8575
930.685	8317
930.79	8218
930.894	8252
930.998	8248
931.103	8366
931.207	8073
931.311	7982
931.415	7921
931.519	7807
931.623	7727
