Data from test_V78500241_1999.txt Node
Date: Fri Mar 25 14:47:37 CST 2022
User: usil
Spectrometer: V785-0024
Trigger mode: 0
Integration Time (sec): 4.000000E-1
Scans to average: 1
Nonlinearity correction enabled: false
Boxcar width: 0
Storing dark spectrum: false
XAxis mode: Wavelengths
Number of Pixels in Spectrum: 1024
>>>>>Begin Spectral Data<<<<<
801.071	22169
801.214	21972
801.356	21717
801.499	21644
801.641	21530
801.783	21629
801.926	21454
802.068	21287
802.211	21268
802.353	21222
802.496	21085
802.638	21009
802.78	20967
802.923	20754
803.065	20883
803.208	20861
803.35	20788
803.492	21066
803.635	20990
803.777	20807
803.919	20826
804.061	21214
804.204	20944
804.346	20773
804.488	20697
804.63	20686
804.773	20575
804.915	20716
805.057	20830
805.199	20590
805.341	20762
805.483	20910
805.626	20826
805.768	20682
805.91	20956
806.052	20872
806.194	20697
806.336	20864
806.478	20739
806.62	20693
806.762	20800
806.904	21070
807.046	21066
807.188	20990
807.33	21096
807.472	20971
807.614	20937
807.756	20925
807.898	20834
808.04	20678
808.182	20792
808.324	20781
808.465	20815
808.607	20998
808.749	21013
808.891	21074
809.033	21321
809.174	21180
809.316	21127
809.458	21074
809.6	21039
809.741	21108
809.883	21146
810.025	21233
810.166	21272
810.308	21199
810.45	21192
810.591	21089
810.733	21039
810.875	20944
811.016	20823
811.158	20804
811.299	20876
811.441	21085
811.582	20994
811.724	20921
811.865	20819
812.007	20891
812.148	20956
812.29	20823
812.431	21024
812.573	21116
812.714	21272
812.855	21363
812.997	21447
813.138	21504
813.279	21450
813.421	21325
813.562	21283
813.703	21108
813.845	20944
813.986	20651
814.127	20632
814.268	20514
814.41	20499
814.551	20351
814.692	20454
814.833	20404
814.974	20355
815.115	20244
815.256	20278
815.397	20358
815.539	20317
815.68	20058
815.821	20157
815.962	20142
816.103	20058
816.244	19982
816.385	19883
816.526	19909
816.666	19685
816.807	19586
816.948	19658
817.089	19685
817.23	19556
817.371	19563
817.512	19559
817.653	19544
817.793	19396
817.934	19533
818.075	19464
818.216	19575
818.356	19487
818.497	19358
818.638	19194
818.778	19270
818.919	19179
819.06	19152
819.2	19324
819.341	19422
819.481	19381
819.622	19624
819.762	19761
819.903	19799
820.043	19639
820.184	19567
820.324	19525
820.465	19552
820.605	19616
820.746	19400
820.886	19339
821.026	19422
821.167	19624
821.307	19613
821.447	19495
821.588	19419
821.728	19198
821.868	19183
822.008	18977
822.149	18996
822.289	18951
822.429	18582
822.569	18654
822.709	18601
822.849	18445
822.99	18407
823.13	18369
823.27	18475
823.41	18266
823.55	18209
823.69	18277
823.83	18247
823.97	18167
824.11	18041
824.25	18057
824.389	17916
824.529	17973
824.669	18026
824.809	18076
824.949	18106
825.089	18136
825.228	17946
825.368	17847
825.508	17767
825.648	17767
825.787	17824
825.927	17855
826.067	17672
826.206	17729
826.346	17840
826.485	17809
826.625	17726
826.765	17821
826.904	17870
827.044	17630
827.183	17532
827.323	17467
827.462	17600
827.601	17364
827.741	17474
827.88	17490
828.02	17303
828.159	17471
828.298	17478
828.437	17661
828.577	17474
828.716	17562
828.855	17486
828.994	17330
829.134	17216
829.273	17189
829.412	17216
829.551	17174
829.69	17227
829.829	17208
829.968	17360
830.107	17311
830.246	17216
830.385	17124
830.524	17166
830.663	16980
830.802	17025
830.941	16892
831.08	16809
831.219	17006
831.357	16869
831.496	17113
831.635	16908
831.774	16809
831.913	16767
832.051	16771
832.19	16588
832.329	16626
832.467	16622
832.606	16306
832.744	16634
832.883	16577
833.022	16527
833.16	16584
833.299	16565
833.437	16626
833.576	16546
833.714	16626
833.852	16675
833.991	16679
834.129	16725
834.267	16607
834.406	16554
834.544	16596
834.682	16538
834.821	16603
834.959	16740
835.097	16607
835.235	16706
835.373	16637
835.511	16611
835.65	16440
835.788	16500
835.926	16394
836.064	16356
836.202	16329
836.34	16519
836.478	16649
836.615	16459
836.753	16527
836.891	16599
837.029	16668
837.167	16413
837.305	16516
837.443	16447
837.58	16432
837.718	16421
837.856	16405
837.993	16405
838.131	16493
838.269	16295
838.406	16375
838.544	16204
838.681	16082
838.819	16105
838.956	15983
839.094	15827
839.231	16006
839.369	16116
839.506	16390
839.643	16219
839.781	16029
839.918	15888
840.055	16017
840.193	15945
840.33	15899
840.467	15880
840.604	15911
840.742	16188
840.879	15861
841.016	15930
841.153	15781
841.29	16040
841.427	15975
841.564	15930
841.701	15930
841.838	15884
841.975	15888
842.112	15865
842.249	15720
842.385	15698
842.522	15880
842.659	15812
842.796	15663
842.933	15682
843.069	15701
843.206	15720
843.343	15732
843.479	15850
843.616	15679
843.752	15496
843.889	15587
844.025	15644
844.162	15408
844.298	15660
844.435	15553
844.571	15485
844.708	15534
844.844	15641
844.98	15622
845.117	15644
845.253	15466
845.389	15386
845.525	15473
845.661	15317
845.798	15416
845.934	15275
846.07	15363
846.206	15351
846.342	15389
846.478	15332
846.614	15150
846.75	15104
846.886	15074
847.022	15184
847.158	15058
847.294	15104
847.429	15070
847.565	15104
847.701	15336
847.837	14785
847.972	14925
848.108	14887
848.244	14845
848.379	14670
848.515	14727
848.65	14549
848.786	14617
848.921	14659
849.057	14857
849.192	14800
849.328	14754
849.463	14720
849.598	14590
849.734	14579
849.869	14549
850.004	14514
850.14	14484
850.275	14438
850.41	14431
850.545	14408
850.68	14454
850.815	14488
850.95	14492
851.085	14533
851.22	14552
851.355	14450
851.49	14457
851.625	14438
851.76	14465
851.895	14374
852.03	14404
852.165	14298
852.299	14537
852.434	14526
852.569	14488
852.703	14412
852.838	14530
852.973	14594
853.107	14568
853.242	14408
853.376	14400
853.511	14134
853.645	14259
853.78	14370
853.914	14347
854.048	14286
854.183	14298
854.317	14305
854.451	14442
854.585	14309
854.72	14336
854.854	14396
854.988	14259
855.122	14275
855.256	14119
855.39	14282
855.524	14408
855.658	14336
855.792	14309
855.926	14324
856.06	14362
856.194	14385
856.327	14301
856.461	14275
856.595	14240
856.729	14263
856.862	14366
856.996	14370
857.13	14328
857.263	14434
857.397	14393
857.53	14324
857.664	14564
857.797	14438
857.931	14442
858.064	14396
858.197	14412
858.331	14358
858.464	14328
858.597	14282
858.731	14317
858.864	14294
858.997	14240
859.13	14263
859.263	14320
859.396	14408
859.529	14286
859.662	14271
859.795	14298
859.928	14317
860.061	14438
860.194	14423
860.327	14313
860.46	14301
860.592	14499
860.725	14480
860.858	14389
860.99	14347
861.123	14237
861.256	14248
861.388	14313
861.521	14982
861.653	14123
861.786	14149
861.918	14206
862.05	14290
862.183	14259
862.315	14320
862.447	14317
862.58	14313
862.712	14107
862.844	14005
862.976	14168
863.108	14176
863.24	14396
863.372	14046
863.504	14077
863.636	14062
863.768	14134
863.9	14103
864.032	14069
864.164	14039
864.296	14130
864.428	14199
864.559	14161
864.691	14187
864.823	14145
864.954	14130
865.086	14115
865.217	14126
865.349	14119
865.48	14100
865.612	14077
865.743	14301
865.875	14100
866.006	14039
866.137	14084
866.269	14103
866.4	14069
866.531	14001
866.662	13955
866.793	14012
866.924	14123
867.055	14046
867.186	14001
867.317	14077
867.448	14027
867.579	13986
867.71	14027
867.841	14039
867.972	14191
868.103	14088
868.233	14191
868.364	14180
868.495	14130
868.625	14324
868.756	14427
868.886	14187
869.017	14298
869.147	14377
869.278	14442
869.408	14408
869.539	14317
869.669	14461
869.799	14393
869.929	14454
870.06	14457
870.19	14621
870.32	14644
870.45	14655
870.58	14754
870.71	14872
870.84	14857
870.97	14724
871.1	14682
871.23	14918
871.36	14895
871.489	14815
871.619	14941
871.749	14872
871.879	14941
872.008	15089
872.138	14918
872.267	14933
872.397	14754
872.526	14724
872.656	14765
872.785	14845
872.915	14891
873.044	14944
873.173	15001
873.303	14990
873.432	15013
873.561	15005
873.69	14998
873.819	14929
873.948	15028
874.077	14933
874.206	15017
874.335	14979
874.464	15127
874.593	15317
874.722	15188
874.851	15367
874.979	15176
875.108	15329
875.237	15176
875.365	15207
875.494	15279
875.623	15325
875.751	15294
875.88	15386
876.008	15408
876.136	15443
876.265	15720
876.393	15823
876.521	15709
876.65	15854
876.778	15759
876.906	15667
877.034	15728
877.162	15644
877.29	15568
877.418	15781
877.546	15701
877.674	15698
877.802	15739
877.93	15816
878.058	15568
878.185	15641
878.313	15705
878.441	15637
878.568	15614
878.696	15622
878.824	15766
878.951	15808
879.079	15918
879.206	16055
879.333	15922
879.461	15819
879.588	15797
879.715	15884
879.842	16017
879.97	15694
880.097	15656
880.224	15599
880.351	15580
880.478	15519
880.605	15587
880.732	15500
880.859	15739
880.986	15561
881.112	15572
881.239	15458
881.366	15306
881.493	15310
881.619	15195
881.746	15233
881.872	15135
881.999	15199
882.125	15100
882.252	15237
882.378	15207
882.505	15298
882.631	15104
882.757	15005
882.883	15062
883.01	15047
883.136	14960
883.262	14914
883.388	14834
883.514	15013
883.64	15135
883.766	14960
883.892	14765
884.018	14895
884.143	15074
884.269	15066
884.395	14769
884.52	14735
884.646	14670
884.772	14610
884.897	14644
885.023	14838
885.148	14902
885.274	14895
885.399	14743
885.524	14758
885.65	14701
885.775	14777
885.9	14697
886.025	14887
886.15	14876
886.275	14716
886.4	14545
886.525	14651
886.65	14720
886.775	14636
886.9	14769
887.025	14982
887.149	14769
887.274	14602
887.399	14457
887.523	14526
887.648	14541
887.773	14499
887.897	14667
888.021	14579
888.146	14484
888.27	14682
888.395	14682
888.519	14670
888.643	14659
888.767	14667
888.891	14396
889.015	14396
889.139	14412
889.263	14454
889.387	14526
889.511	14606
889.635	14492
889.759	14389
889.883	14450
890.006	14530
890.13	14488
890.254	14408
890.377	14343
890.501	14202
890.624	14164
890.748	14313
890.871	14237
890.995	14069
891.118	14065
891.241	14119
891.364	14126
891.488	14225
891.611	14058
891.734	14134
891.857	14134
891.98	14126
892.103	14244
892.226	14202
892.349	14050
892.471	13940
892.594	14145
892.717	14111
892.839	14142
892.962	14138
893.085	14210
893.207	14161
893.33	14012
893.452	14054
893.575	14248
893.697	14065
893.819	14324
893.941	14358
894.064	14317
894.186	14100
894.308	14134
894.43	14233
894.552	14389
894.674	14282
894.796	14001
894.918	14168
895.04	14103
895.161	14355
895.283	14191
895.405	14191
895.526	14237
895.648	14301
895.769	14240
895.891	14290
896.012	14301
896.134	14286
896.255	14393
896.376	14248
896.498	14366
896.619	14240
896.74	14343
896.861	14355
896.982	14621
897.103	14743
897.224	14632
897.345	14590
897.466	14583
897.587	14560
897.708	14750
897.828	14507
897.949	14541
898.07	14434
898.19	14518
898.311	14655
898.431	14552
898.552	14594
898.672	14693
898.792	14750
898.913	14724
899.033	14663
899.153	14427
899.273	14454
899.393	14511
899.513	14514
899.633	14434
899.753	14503
899.873	14454
899.993	14583
900.113	14560
900.232	14522
900.352	14499
900.472	14419
900.591	14271
900.711	14396
900.83	14313
900.95	14533
901.069	14450
901.189	14339
901.308	14073
901.427	13989
901.546	13982
901.665	14027
901.784	14100
901.904	13871
902.023	13837
902.141	13548
902.26	13613
902.379	13742
902.498	13613
902.617	13540
902.735	13677
902.854	13655
902.973	13453
903.091	13297
903.21	13297
903.328	13384
903.446	13285
903.565	13149
903.683	13156
903.801	13050
903.919	13084
904.038	13080
904.156	12996
904.274	13069
904.392	13015
904.51	12943
904.627	12989
904.745	13129
904.863	13027
904.981	12772
905.098	12738
905.216	12578
905.334	12673
905.451	12734
905.569	12681
905.686	12673
905.803	12642
905.921	12467
906.038	12631
906.155	12597
906.272	12467
906.389	12414
906.506	12315
906.623	12262
906.74	12159
906.857	12121
906.974	12205
907.091	12395
907.208	12372
907.324	12342
907.441	12197
907.557	12068
907.674	12049
907.79	11908
907.907	11908
908.023	12091
908.139	11984
908.256	11912
908.372	11950
908.488	11942
908.604	11786
908.72	11703
908.836	11893
908.952	11695
909.068	11790
909.184	11878
909.3	11752
909.415	11874
909.531	11805
909.647	11539
909.762	11577
909.878	11520
909.993	11570
910.108	11562
910.224	11554
910.339	11585
910.454	11429
910.57	11414
910.685	11353
910.8	11615
910.915	11562
911.03	11467
911.145	11239
911.259	11261
911.374	11269
911.489	11189
911.604	11178
911.718	11083
911.833	10999
911.947	10930
912.062	10774
912.176	10987
912.291	10987
912.405	10980
912.519	11204
912.633	11227
912.748	11056
912.862	11075
912.976	10976
913.09	10759
913.204	10809
913.318	10862
913.431	10968
913.545	10919
913.659	11014
913.772	10915
913.886	10847
914	10698
914.113	10797
914.226	10862
914.34	10877
914.453	10630
914.566	10809
914.68	10725
914.793	10660
914.906	10527
915.019	10481
915.132	10500
915.245	10519
915.358	10508
915.47	10519
915.583	10531
915.696	10538
915.809	10596
915.921	10599
916.034	10428
916.146	10493
916.259	10478
916.371	10493
916.483	10504
916.595	10409
916.708	10546
916.82	10474
916.932	10451
917.044	10462
917.156	10386
917.268	10371
917.38	10356
917.491	10306
917.603	10341
917.715	10447
917.826	10455
917.938	10360
918.049	10223
918.161	10280
918.272	10485
918.384	10405
918.495	10341
918.606	10280
918.717	10181
918.828	10280
918.939	10223
919.05	10120
919.161	10249
919.272	10025
919.383	10116
919.494	10249
919.604	10481
919.715	10173
919.826	10147
919.936	10166
920.047	10284
920.157	10253
920.267	10352
920.378	10322
920.488	10192
920.598	10417
920.708	10611
920.818	10360
920.928	10390
921.038	10573
921.148	10584
921.258	10314
921.368	10223
921.477	10139
921.587	10147
921.697	9983
921.806	10147
921.916	10051
922.025	9842
922.134	9816
922.244	9762
922.353	9823
922.462	9751
922.571	9644
922.68	9485
922.789	9568
922.898	9545
923.007	9447
923.116	9526
923.224	9488
923.333	9515
923.442	9447
923.55	9294
923.659	9370
923.767	9272
923.876	9344
923.984	9420
924.092	9325
924.201	9405
924.309	9336
924.417	9268
924.525	9340
924.633	9302
924.741	10227
924.849	9074
924.956	9279
925.064	9116
925.172	9089
925.279	9081
925.387	9169
925.494	9165
925.602	9279
925.709	9192
925.816	9108
925.924	9161
926.031	9291
926.138	9127
926.245	9214
926.352	9036
926.459	9222
926.566	9131
926.673	9135
926.779	9017
926.886	8982
926.993	8914
927.099	8842
927.206	8826
927.312	8815
927.419	8967
927.525	8899
927.631	8895
927.737	8811
927.843	8697
927.95	8606
928.056	8724
928.162	8731
928.267	8811
928.373	9424
928.479	8906
928.585	8629
928.69	8731
928.796	8739
928.901	8731
929.007	8522
929.112	8678
929.218	8629
929.323	8636
929.428	8560
929.533	8686
929.638	8564
929.743	8492
929.848	8644
929.953	8560
930.058	8434
930.163	8339
930.267	8377
930.372	8495
930.477	8309
930.581	8583
930.685	8423
930.79	8313
930.894	8332
930.998	8271
931.103	8419
931.207	8126
931.311	7978
931.415	7932
931.519	7769
931.623	7780
