Data from test_V78500241_2889.txt Node
Date: Fri Mar 25 14:53:49 CST 2022
User: usil
Spectrometer: V785-0024
Trigger mode: 0
Integration Time (sec): 4.000000E-1
Scans to average: 1
Nonlinearity correction enabled: false
Boxcar width: 0
Storing dark spectrum: false
XAxis mode: Wavelengths
Number of Pixels in Spectrum: 1024
>>>>>Begin Spectral Data<<<<<
801.071	22040
801.214	21994
801.356	21656
801.499	21599
801.641	21443
801.783	21515
801.926	21389
802.068	21466
802.211	21389
802.353	21207
802.496	21032
802.638	20864
802.78	20838
802.923	20792
803.065	20823
803.208	20857
803.35	20872
803.492	20914
803.635	20925
803.777	20762
803.919	20819
804.061	20990
804.204	20762
804.346	20701
804.488	20571
804.63	20864
804.773	20632
804.915	20750
805.057	20796
805.199	20682
805.341	20720
805.483	20724
805.626	20678
805.768	20606
805.91	20731
806.052	20777
806.194	20625
806.336	20807
806.478	20712
806.62	20693
806.762	20731
806.904	20876
807.046	21043
807.188	21093
807.33	21096
807.472	21074
807.614	20956
807.756	20998
807.898	20842
808.04	20777
808.182	20629
808.324	20781
808.465	20762
808.607	21116
808.749	21100
808.891	21157
809.033	21252
809.174	21020
809.316	21176
809.458	21119
809.6	21020
809.741	21222
809.883	21085
810.025	21317
810.166	21237
810.308	21211
810.45	20975
810.591	21028
810.733	20899
810.875	20876
811.016	20731
811.158	20815
811.299	20838
811.441	20956
811.582	20929
811.724	20960
811.865	20815
812.007	20731
812.148	20895
812.29	20895
812.431	20963
812.573	21154
812.714	21252
812.855	21340
812.997	21405
813.138	21610
813.279	21439
813.421	21408
813.562	21241
813.703	21074
813.845	20921
813.986	20682
814.127	20518
814.268	20362
814.41	20480
814.551	20358
814.692	20336
814.833	20248
814.974	20404
815.115	20374
815.256	20248
815.397	20202
815.539	20256
815.68	20145
815.821	20008
815.962	20077
816.103	20084
816.244	20005
816.385	19788
816.526	19849
816.666	19613
816.807	19499
816.948	19620
817.089	19590
817.23	19590
817.371	19491
817.512	19441
817.653	19472
817.793	19510
817.934	19430
818.075	19510
818.216	19559
818.356	19403
818.497	19274
818.638	19114
818.778	19221
818.919	19156
819.06	19266
819.2	19285
819.341	19396
819.481	19343
819.622	19502
819.762	19616
819.903	19594
820.043	19499
820.184	19540
820.324	19411
820.465	19563
820.605	19548
820.746	19510
820.886	19396
821.026	19388
821.167	19362
821.307	19510
821.447	19403
821.588	19259
821.728	19232
821.868	19057
822.008	18859
822.149	18943
822.289	18833
822.429	18627
822.569	18616
822.709	18540
822.849	18388
822.99	18407
823.13	18334
823.27	18232
823.41	18235
823.55	18133
823.69	18121
823.83	18292
823.97	18068
824.11	17977
824.25	17809
824.389	17901
824.529	18038
824.669	17942
824.809	18041
824.949	17992
825.089	18072
825.228	17901
825.368	17714
825.508	17718
825.648	17745
825.787	17741
825.927	17729
826.067	17695
826.206	17745
826.346	17718
826.485	17710
826.625	17638
826.765	17851
826.904	17733
827.044	17581
827.183	17474
827.323	17463
827.462	17528
827.601	17474
827.741	17509
827.88	17383
828.02	17288
828.159	17417
828.298	17383
828.437	17543
828.577	17341
828.716	17509
828.855	17269
828.994	17098
829.134	17239
829.273	17193
829.412	17162
829.551	17105
829.69	17204
829.829	17140
829.968	17170
830.107	17185
830.246	17113
830.385	17147
830.524	17128
830.663	16930
830.802	16934
830.941	16866
831.08	16675
831.219	16858
831.357	16816
831.496	16991
831.635	16786
831.774	16790
831.913	16668
832.051	16459
832.19	16584
832.329	16577
832.467	16504
832.606	16447
832.744	16497
832.883	16371
833.022	16462
833.16	16432
833.299	16455
833.437	16398
833.576	16417
833.714	16493
833.852	16626
833.991	16573
834.129	16599
834.267	16710
834.406	16565
834.544	16542
834.682	16474
834.821	16561
834.959	16641
835.097	16481
835.235	16637
835.373	16519
835.511	16615
835.65	16512
835.788	16421
835.926	16261
836.064	16207
836.202	16246
836.34	16443
836.478	16462
836.615	16402
836.753	16417
836.891	16493
837.029	16478
837.167	16405
837.305	16333
837.443	16398
837.58	16242
837.718	16341
837.856	16337
837.993	16265
838.131	16291
838.269	16185
838.406	16238
838.544	16120
838.681	16040
838.819	15987
838.956	15819
839.094	15812
839.231	15937
839.369	15918
839.506	16147
839.643	16055
839.781	15812
839.918	15762
840.055	15778
840.193	15857
840.33	15755
840.467	15838
840.604	15819
840.742	16154
840.879	15728
841.016	15739
841.153	15789
841.29	15983
841.427	15846
841.564	15770
841.701	15743
841.838	15736
841.975	15724
842.112	15789
842.249	15603
842.385	15568
842.522	15835
842.659	15743
842.796	15564
842.933	15610
843.069	15576
843.206	15663
843.343	15671
843.479	15625
843.616	15603
843.752	15420
843.889	15450
844.025	15496
844.162	15431
844.298	15507
844.435	15386
844.571	15302
844.708	15424
844.844	15580
844.98	15526
845.117	15587
845.253	15351
845.389	15298
845.525	15283
845.661	15268
845.798	15188
845.934	15310
846.07	15119
846.206	15321
846.342	15340
846.478	15192
846.614	14982
846.75	14868
846.886	14853
847.022	15085
847.158	14979
847.294	15001
847.429	15051
847.565	14933
847.701	15161
847.837	14708
847.972	14697
848.108	14902
848.244	14811
848.379	14617
848.515	14488
848.65	14598
848.786	14533
848.921	14583
849.057	14621
849.192	14670
849.328	14648
849.463	14701
849.598	14556
849.734	14511
849.869	14511
850.004	14438
850.14	14377
850.275	14412
850.41	14252
850.545	14298
850.68	14370
850.815	14389
850.95	14332
851.085	14556
851.22	14450
851.355	14408
851.49	14370
851.625	14294
851.76	14286
851.895	14119
852.03	14199
852.165	14336
852.299	14328
852.434	14385
852.569	14332
852.703	14301
852.838	14427
852.973	14484
853.107	14408
853.242	14366
853.376	14282
853.511	14024
853.645	14187
853.78	14343
853.914	14214
854.048	14145
854.183	14126
854.317	14138
854.451	14419
854.585	14195
854.72	14221
854.854	14328
854.988	14103
855.122	14180
855.256	14115
855.39	14142
855.524	14404
855.658	14218
855.792	14275
855.926	14252
856.06	14180
856.194	14301
856.327	14187
856.461	14191
856.595	14123
856.729	14214
856.862	14298
856.996	14298
857.13	14248
857.263	14267
857.397	14271
857.53	14229
857.664	14282
857.797	14263
857.931	14298
858.064	14267
858.197	14343
858.331	14115
858.464	14256
858.597	14100
858.731	14244
858.864	14081
858.997	14164
859.13	14206
859.263	14180
859.396	14290
859.529	14126
859.662	14157
859.795	14199
859.928	14252
860.061	14438
860.194	14358
860.327	14263
860.46	14077
860.592	14259
860.725	14320
860.858	14278
860.99	14123
861.123	14043
861.256	14058
861.388	14206
861.521	14853
861.653	14016
861.786	14096
861.918	14043
862.05	14111
862.183	14096
862.315	14206
862.447	14218
862.58	14259
862.712	14035
862.844	13887
862.976	14058
863.108	13955
863.24	14317
863.372	13986
863.504	14039
863.636	14012
863.768	14035
863.9	14111
864.032	13940
864.164	13970
864.296	14050
864.428	14054
864.559	14039
864.691	14088
864.823	14031
864.954	14031
865.086	14134
865.217	13955
865.349	13978
865.48	14016
865.612	13936
865.743	14126
865.875	13944
866.006	13963
866.137	13959
866.269	13993
866.4	13982
866.531	13841
866.662	13955
866.793	13887
866.924	13951
867.055	14020
867.186	14005
867.317	13860
867.448	13913
867.579	13868
867.71	13818
867.841	13932
867.972	14008
868.103	13887
868.233	13902
868.364	13993
868.495	13986
868.625	14126
868.756	14263
868.886	14130
869.017	14195
869.147	14393
869.278	14278
869.408	14267
869.539	14275
869.669	14271
869.799	14263
869.929	14320
870.06	14290
870.19	14583
870.32	14419
870.45	14461
870.58	14651
870.71	14807
870.84	14610
870.97	14480
871.1	14484
871.23	14842
871.36	14819
871.489	14743
871.619	14785
871.749	14781
871.879	14902
872.008	14944
872.138	14765
872.267	14826
872.397	14617
872.526	14659
872.656	14602
872.785	14674
872.915	14864
873.044	14933
873.173	14880
873.303	14842
873.432	15020
873.561	14941
873.69	14861
873.819	14823
873.948	14952
874.077	14868
874.206	14834
874.335	14872
874.464	14975
874.593	15135
874.722	15104
874.851	15245
874.979	15173
875.108	15188
875.237	15112
875.365	15055
875.494	15100
875.623	15260
875.751	15070
875.88	15214
876.008	15306
876.136	15405
876.265	15641
876.393	15682
876.521	15686
876.65	15755
876.778	15580
876.906	15477
877.034	15614
877.162	15656
877.29	15542
877.418	15663
877.546	15576
877.674	15610
877.802	15542
877.93	15515
878.058	15549
878.185	15485
878.313	15500
878.441	15545
878.568	15466
878.696	15496
878.824	15511
878.951	15690
879.079	15713
879.206	15895
879.333	15698
879.461	15648
879.588	15785
879.715	15911
879.842	15876
879.97	15804
880.097	15393
880.224	15428
880.351	15420
880.478	15397
880.605	15485
880.732	15412
880.859	15755
880.986	15462
881.112	15477
881.239	15408
881.366	15161
881.493	15154
881.619	15013
881.746	15097
881.872	15157
881.999	15100
882.125	15017
882.252	15036
882.378	15058
882.505	15294
882.631	15070
882.757	14895
882.883	15066
883.01	14845
883.136	14811
883.262	14693
883.388	14804
883.514	14952
883.64	14956
883.766	14845
883.892	14693
884.018	14804
884.143	14910
884.269	14971
884.395	14678
884.52	14511
884.646	14568
884.772	14514
884.897	14511
885.023	14682
885.148	14777
885.274	14872
885.399	14693
885.524	14621
885.65	14678
885.775	14571
885.9	14560
886.025	14781
886.15	14583
886.275	14511
886.4	14545
886.525	14587
886.65	14514
886.775	14545
886.9	14720
887.025	14811
887.149	14564
887.274	14514
887.399	14393
887.523	14469
887.648	14431
887.773	14389
887.897	14442
888.021	14556
888.146	14507
888.27	14613
888.395	14598
888.519	14495
888.643	14526
888.767	14571
888.891	14393
889.015	14389
889.139	14484
889.263	14339
889.387	14484
889.511	14484
889.635	14514
889.759	14180
889.883	14351
890.006	14336
890.13	14419
890.254	14313
890.377	14259
890.501	14088
890.624	14088
890.748	14275
890.871	13967
890.995	13978
891.118	13993
891.241	13997
891.364	14111
891.488	14164
891.611	13951
891.734	13890
891.857	14039
891.98	13928
892.103	14077
892.226	14077
892.349	14065
892.471	13944
892.594	14001
892.717	14001
892.839	14050
892.962	13917
893.085	14084
893.207	14111
893.33	13955
893.452	13902
893.575	14069
893.697	14008
893.819	14210
893.941	14305
894.064	14065
894.186	14043
894.308	14005
894.43	14202
894.552	14229
894.674	14183
894.796	14054
894.918	14081
895.04	13913
895.161	14176
895.283	14073
895.405	14031
895.526	14077
895.648	14214
895.769	14172
895.891	14259
896.012	14343
896.134	14164
896.255	14077
896.376	14142
896.498	14267
896.619	14191
896.74	14157
896.861	14153
896.982	14568
897.103	14705
897.224	14575
897.345	14374
897.466	14415
897.587	14415
897.708	14655
897.828	14446
897.949	14419
898.07	14355
898.19	14339
898.311	14549
898.431	14488
898.552	14499
898.672	14625
898.792	14670
898.913	14640
899.033	14541
899.153	14415
899.273	14343
899.393	14412
899.513	14457
899.633	14377
899.753	14473
899.873	14339
899.993	14431
900.113	14530
900.232	14400
900.352	14499
900.472	14263
900.591	14267
900.711	14282
900.83	14244
900.95	14362
901.069	14343
901.189	14252
901.308	14024
901.427	13898
901.546	13989
901.665	13947
901.784	13970
901.904	13822
902.023	13833
902.141	13567
902.26	13457
902.379	13613
902.498	13499
902.617	13464
902.735	13578
902.854	13464
902.973	13460
903.091	13240
903.21	13228
903.328	13304
903.446	13183
903.565	13103
903.683	13099
903.801	13038
903.919	13008
904.038	13053
904.156	12973
904.274	12989
904.392	12985
904.51	12886
904.627	12958
904.745	12966
904.863	13019
904.981	12707
905.098	12604
905.216	12604
905.334	12650
905.451	12677
905.569	12604
905.686	12692
905.803	12509
905.921	12391
906.038	12528
906.155	12441
906.272	12334
906.389	12350
906.506	12190
906.623	12129
906.74	12121
906.857	12148
906.974	12102
907.091	12289
907.208	12319
907.324	12254
907.441	12095
907.557	11973
907.674	11931
907.79	11897
907.907	11923
908.023	12007
908.139	11893
908.256	11984
908.372	11836
908.488	11916
908.604	11752
908.72	11661
908.836	11646
908.952	11691
909.068	11707
909.184	11832
909.3	11699
909.415	11665
909.531	11805
909.647	11501
909.762	11467
909.878	11406
909.993	11467
910.108	11486
910.224	11414
910.339	11467
910.454	11330
910.57	11334
910.685	11216
910.8	11520
910.915	11570
911.03	11296
911.145	11162
911.259	11185
911.374	11181
911.489	11105
911.604	11003
911.718	10911
911.833	10915
911.947	10820
912.062	10801
912.176	10938
912.291	10930
912.405	10965
912.519	11117
912.633	11121
912.748	10949
912.862	10972
912.976	10809
913.09	10706
913.204	10786
913.318	10786
913.431	10889
913.545	10915
913.659	10915
913.772	10786
913.886	10653
914	10809
914.113	10767
914.226	10790
914.34	10744
914.453	10626
914.566	10725
914.68	10645
914.793	10588
914.906	10493
915.019	10382
915.132	10360
915.245	10394
915.358	10436
915.47	10508
915.583	10481
915.696	10428
915.809	10550
915.921	10466
916.034	10421
916.146	10421
916.259	10421
916.371	10489
916.483	10470
916.595	10409
916.708	10356
916.82	10375
916.932	10382
917.044	10371
917.156	10363
917.268	10219
917.38	10284
917.491	10204
917.603	10242
917.715	10310
917.826	10318
917.938	10215
918.049	10120
918.161	10329
918.272	10360
918.384	10322
918.495	10280
918.606	10181
918.717	10078
918.828	10166
918.939	10177
919.05	10029
919.161	10093
919.272	9956
919.383	10051
919.494	10227
919.604	10325
919.715	10234
919.826	10025
919.936	10143
920.047	10261
920.157	10154
920.267	10375
920.378	10204
920.488	10207
920.598	10386
920.708	10516
920.818	10314
920.928	10303
921.038	10500
921.148	10485
921.258	10246
921.368	10128
921.477	10040
921.587	9968
921.697	9960
921.806	10082
921.916	9884
922.025	9770
922.134	9762
922.244	9663
922.353	9690
922.462	9641
922.571	9625
922.68	9428
922.789	9454
922.898	9500
923.007	9359
923.116	9428
923.224	9393
923.333	9386
923.442	9378
923.55	9306
923.659	9332
923.767	9302
923.876	9249
923.984	9359
924.092	9195
924.201	9260
924.309	9272
924.417	9336
924.525	9169
924.633	9218
924.741	10181
924.849	9116
924.956	9230
925.064	9116
925.172	8986
925.279	9036
925.387	9097
925.494	9081
925.602	9226
925.709	9135
925.816	8975
925.924	9070
926.031	9165
926.138	9066
926.245	9043
926.352	8990
926.459	9146
926.566	9233
926.673	9009
926.779	8925
926.886	8895
926.993	8826
927.099	8807
927.206	8720
927.312	8731
927.419	8807
927.525	8804
927.631	8830
927.737	8735
927.843	8659
927.95	8651
928.056	8697
928.162	8678
928.267	8731
928.373	9302
928.479	8766
928.585	8522
928.69	8682
928.796	8724
928.901	8655
929.007	8526
929.112	8648
929.218	8610
929.323	8526
929.428	8568
929.533	8632
929.638	8465
929.743	8450
929.848	8556
929.953	8480
930.058	8442
930.163	8248
930.267	8305
930.372	8377
930.477	8282
930.581	8457
930.685	8355
930.79	8202
930.894	8298
930.998	8195
931.103	8396
931.207	8012
931.311	7967
931.415	7898
931.519	7776
931.623	7708
