Data from test_V78500241_1747.txt Node
Date: Fri Mar 25 14:45:52 CST 2022
User: usil
Spectrometer: V785-0024
Trigger mode: 0
Integration Time (sec): 4.000000E-1
Scans to average: 1
Nonlinearity correction enabled: false
Boxcar width: 0
Storing dark spectrum: false
XAxis mode: Wavelengths
Number of Pixels in Spectrum: 1024
>>>>>Begin Spectral Data<<<<<
801.071	22207
801.214	22124
801.356	21903
801.499	21713
801.641	21625
801.783	21515
801.926	21622
802.068	21633
802.211	21462
802.353	21485
802.496	21252
802.638	21173
802.78	21036
802.923	21001
803.065	20925
803.208	20899
803.35	21009
803.492	21142
803.635	21077
803.777	20998
803.919	21032
804.061	21294
804.204	20998
804.346	20883
804.488	20739
804.63	20899
804.773	20769
804.915	20902
805.057	20937
805.199	20864
805.341	20956
805.483	21036
805.626	20819
805.768	20739
805.91	20845
806.052	20781
806.194	20686
806.336	20925
806.478	20842
806.62	20868
806.762	20815
806.904	21150
807.046	21203
807.188	21211
807.33	21173
807.472	21230
807.614	21096
807.756	21028
807.898	21001
808.04	20914
808.182	20902
808.324	20933
808.465	20902
808.607	21123
808.749	21325
808.891	21378
809.033	21351
809.174	21313
809.316	21226
809.458	21241
809.6	21104
809.741	21313
809.883	21336
810.025	21485
810.166	21389
810.308	21488
810.45	21424
810.591	21302
810.733	21188
810.875	21131
811.016	20971
811.158	20944
811.299	21108
811.441	21074
811.582	21108
811.724	21036
811.865	20952
812.007	20967
812.148	20921
812.29	21051
812.431	21024
812.573	21359
812.714	21420
812.855	21515
812.997	21557
813.138	21709
813.279	21724
813.421	21393
813.562	21378
813.703	21241
813.845	21252
813.986	20941
814.127	20678
814.268	20575
814.41	20697
814.551	20556
814.692	20575
814.833	20446
814.974	20507
815.115	20503
815.256	20396
815.397	20396
815.539	20278
815.68	20221
815.821	20271
815.962	20415
816.103	20180
816.244	20069
816.385	20081
816.526	20081
816.666	19925
816.807	19696
816.948	19757
817.089	19826
817.23	19746
817.371	19715
817.512	19681
817.653	19704
817.793	19662
817.934	19799
818.075	19582
818.216	19670
818.356	19635
818.497	19609
818.638	19373
818.778	19392
818.919	19320
819.06	19369
819.2	19457
819.341	19582
819.481	19567
819.622	19742
819.762	19868
819.903	19769
820.043	19719
820.184	19712
820.324	19658
820.465	19753
820.605	19769
820.746	19628
820.886	19525
821.026	19616
821.167	19632
821.307	19689
821.447	19548
821.588	19514
821.728	19354
821.868	19232
822.008	19069
822.149	19213
822.289	19084
822.429	18871
822.569	18726
822.709	18837
822.849	18566
822.99	18669
823.13	18517
823.27	18509
823.41	18388
823.55	18357
823.69	18311
823.83	18338
823.97	18289
824.11	18155
824.25	18174
824.389	18163
824.529	18254
824.669	18182
824.809	18285
824.949	18273
825.089	18273
825.228	18258
825.368	17988
825.508	17980
825.648	18064
825.787	17984
825.927	17973
826.067	18011
826.206	17847
826.346	17939
826.485	18102
826.625	17961
826.765	18068
826.904	18003
827.044	17695
827.183	17627
827.323	17676
827.462	17783
827.601	17535
827.741	17551
827.88	17600
828.02	17532
828.159	17554
828.298	17627
828.437	17745
828.577	17676
828.716	17653
828.855	17646
828.994	17478
829.134	17372
829.273	17448
829.412	17337
829.551	17387
829.69	17387
829.829	17406
829.968	17455
830.107	17345
830.246	17273
830.385	17345
830.524	17223
830.663	17273
830.802	17143
830.941	16942
831.08	17003
831.219	16991
831.357	17105
831.496	17261
831.635	16995
831.774	17025
831.913	16919
832.051	16873
832.19	16729
832.329	16835
832.467	16691
832.606	16577
832.744	16637
832.883	16729
833.022	16710
833.16	16649
833.299	16744
833.437	16797
833.576	16824
833.714	16698
833.852	16801
833.991	16713
834.129	16710
834.267	16839
834.406	16782
834.544	16896
834.682	16771
834.821	16858
834.959	16896
835.097	16725
835.235	16809
835.373	16733
835.511	16626
835.65	16675
835.788	16706
835.926	16599
836.064	16462
836.202	16428
836.34	16675
836.478	16664
836.615	16630
836.753	16713
836.891	16782
837.029	16706
837.167	16634
837.305	16637
837.443	16523
837.58	16459
837.718	16542
837.856	16527
837.993	16478
838.131	16561
838.269	16466
838.406	16489
838.544	16265
838.681	16147
838.819	16249
838.956	16124
839.094	15998
839.231	16162
839.369	16246
839.506	16436
839.643	16341
839.781	16139
839.918	16013
840.055	16105
840.193	16017
840.33	15998
840.467	16105
840.604	16036
840.742	16325
840.879	15922
841.016	15964
841.153	15934
841.29	16219
841.427	16051
841.564	16029
841.701	16109
841.838	15956
841.975	15884
842.112	15774
842.249	15884
842.385	15842
842.522	16002
842.659	15857
842.796	15884
842.933	15880
843.069	15778
843.206	15755
843.343	15937
843.479	15857
843.616	15926
843.752	15641
843.889	15580
844.025	15781
844.162	15603
844.298	15698
844.435	15587
844.571	15629
844.708	15720
844.844	15850
844.98	15736
845.117	15751
845.253	15462
845.389	15481
845.525	15606
845.661	15564
845.798	15500
845.934	15500
846.07	15412
846.206	15504
846.342	15618
846.478	15511
846.614	15275
846.75	15207
846.886	15203
847.022	15291
847.158	15306
847.294	15161
847.429	15291
847.565	15199
847.701	15420
847.837	14944
847.972	14807
848.108	15074
848.244	14994
848.379	14838
848.515	14807
848.65	14857
848.786	14788
848.921	14815
849.057	14800
849.192	14899
849.328	14762
849.463	14785
849.598	14765
849.734	14632
849.869	14659
850.004	14579
850.14	14587
850.275	14640
850.41	14518
850.545	14556
850.68	14518
850.815	14541
850.95	14636
851.085	14674
851.22	14655
851.355	14571
851.49	14526
851.625	14511
851.76	14587
851.895	14381
852.03	14461
852.165	14549
852.299	14530
852.434	14568
852.569	14648
852.703	14636
852.838	14644
852.973	14701
853.107	14697
853.242	14518
853.376	14404
853.511	14282
853.645	14419
853.78	14606
853.914	14423
854.048	14499
854.183	14412
854.317	14412
854.451	14636
854.585	14374
854.72	14434
854.854	14400
854.988	14480
855.122	14457
855.256	14385
855.39	14442
855.524	14545
855.658	14549
855.792	14419
855.926	14434
856.06	14583
856.194	14457
856.327	14400
856.461	14434
856.595	14385
856.729	14370
856.862	14583
856.996	14507
857.13	14469
857.263	14488
857.397	14560
857.53	14434
857.664	14431
857.797	14499
857.931	14587
858.064	14385
858.197	14530
858.331	14423
858.464	14385
858.597	14324
858.731	14450
858.864	14381
858.997	14370
859.13	14480
859.263	14465
859.396	14533
859.529	14351
859.662	14438
859.795	14313
859.928	14492
860.061	14617
860.194	14663
860.327	14434
860.46	14396
860.592	14579
860.725	14560
860.858	14590
860.99	14469
861.123	14400
861.256	14259
861.388	14381
861.521	15154
861.653	14320
861.786	14259
861.918	14320
862.05	14431
862.183	14393
862.315	14423
862.447	14499
862.58	14419
862.712	14259
862.844	14164
862.976	14157
863.108	14305
863.24	14419
863.372	14195
863.504	14180
863.636	14225
863.768	14248
863.9	14103
864.032	14134
864.164	14043
864.296	14259
864.428	14370
864.559	14252
864.691	14317
864.823	14298
864.954	14294
865.086	14164
865.217	14187
865.349	14218
865.48	14145
865.612	14077
865.743	14286
865.875	14199
866.006	14191
866.137	14195
866.269	14168
866.4	14271
866.531	14145
866.662	14107
866.793	14081
866.924	14096
867.055	14214
867.186	14153
867.317	14107
867.448	14149
867.579	14149
867.71	13921
867.841	14081
867.972	14187
868.103	14077
868.233	14202
868.364	14206
868.495	14290
868.625	14389
868.756	14446
868.886	14301
869.017	14381
869.147	14495
869.278	14480
869.408	14522
869.539	14419
869.669	14526
869.799	14427
869.929	14613
870.06	14434
870.19	14800
870.32	14705
870.45	14727
870.58	14880
870.71	14937
870.84	14895
870.97	14872
871.1	14864
871.23	15058
871.36	15039
871.489	14838
871.619	15047
871.749	14979
871.879	14929
872.008	15116
872.138	14994
872.267	14960
872.397	14861
872.526	14815
872.656	14849
872.785	14819
872.915	15005
873.044	15047
873.173	15100
873.303	15070
873.432	15119
873.561	15199
873.69	15127
873.819	15024
873.948	15180
874.077	15085
874.206	15097
874.335	15009
874.464	15294
874.593	15298
874.722	15389
874.851	15462
874.979	15382
875.108	15435
875.237	15237
875.365	15287
875.494	15332
875.623	15382
875.751	15306
875.88	15447
876.008	15564
876.136	15595
876.265	15819
876.393	15937
876.521	15903
876.65	15865
876.778	15892
876.906	15778
877.034	15804
877.162	15717
877.29	15713
877.418	15797
877.546	15781
877.674	15785
877.802	15876
877.93	15838
878.058	15751
878.185	15625
878.313	15778
878.441	15641
878.568	15713
878.696	15728
878.824	15846
878.951	15850
879.079	15998
879.206	16048
879.333	15964
879.461	15778
879.588	15945
879.715	16040
879.842	16131
879.97	15854
880.097	15648
880.224	15599
880.351	15656
880.478	15675
880.605	15549
880.732	15724
880.859	15861
880.986	15614
881.112	15701
881.239	15580
881.366	15454
881.493	15283
881.619	15256
881.746	15359
881.872	15275
881.999	15226
882.125	15348
882.252	15363
882.378	15268
882.505	15424
882.631	15184
882.757	15138
882.883	15135
883.01	15188
883.136	15039
883.262	14967
883.388	14857
883.514	15081
883.64	15047
883.766	15062
883.892	15009
884.018	14982
884.143	15055
884.269	15131
884.395	14914
884.52	14743
884.646	14830
884.772	14773
884.897	14663
885.023	14712
885.148	14906
885.274	15058
885.399	14899
885.524	14792
885.65	14800
885.775	14845
885.9	14823
886.025	14990
886.15	14941
886.275	14800
886.4	14705
886.525	14720
886.65	14785
886.775	14727
886.9	14857
887.025	15055
887.149	14982
887.274	14640
887.399	14606
887.523	14613
887.648	14663
887.773	14431
887.897	14750
888.021	14621
888.146	14590
888.27	14762
888.395	14845
888.519	14617
888.643	14724
888.767	14720
888.891	14583
889.015	14461
889.139	14575
889.263	14473
889.387	14720
889.511	14686
889.635	14560
889.759	14495
889.883	14446
890.006	14564
890.13	14682
890.254	14446
890.377	14408
890.501	14396
890.624	14336
890.748	14374
890.871	14237
890.995	14092
891.118	14035
891.241	14252
891.364	14138
891.488	14267
891.611	14191
891.734	14210
891.857	14278
891.98	14267
892.103	14370
892.226	14237
892.349	14126
892.471	14054
892.594	14142
892.717	14195
892.839	14062
892.962	14275
893.085	14286
893.207	14233
893.33	14096
893.452	14130
893.575	14240
893.697	14202
893.819	14332
893.941	14347
894.064	14377
894.186	14195
894.308	14119
894.43	14294
894.552	14381
894.674	14358
894.796	14172
894.918	14123
895.04	14187
895.161	14298
895.283	14347
895.405	14092
895.526	14343
895.648	14396
895.769	14377
895.891	14313
896.012	14366
896.134	14328
896.255	14343
896.376	14301
896.498	14317
896.619	14374
896.74	14317
896.861	14423
896.982	14769
897.103	14849
897.224	14613
897.345	14648
897.466	14579
897.587	14587
897.708	14781
897.828	14632
897.949	14587
898.07	14492
898.19	14610
898.311	14689
898.431	14636
898.552	14655
898.672	14765
898.792	14792
898.913	14720
899.033	14636
899.153	14568
899.273	14419
899.393	14625
899.513	14613
899.633	14579
899.753	14568
899.873	14522
899.993	14545
900.113	14507
900.232	14629
900.352	14579
900.472	14526
900.591	14415
900.711	14465
900.83	14427
900.95	14511
901.069	14602
901.189	14381
901.308	14199
901.427	14077
901.546	14008
901.665	14111
901.784	14157
901.904	13913
902.023	13898
902.141	13708
902.26	13769
902.379	13727
902.498	13658
902.617	13670
902.735	13616
902.854	13628
902.973	13537
903.091	13384
903.21	13422
903.328	13495
903.446	13198
903.565	13206
903.683	13190
903.801	13198
903.919	13175
904.038	13221
904.156	13129
904.274	13053
904.392	13095
904.51	13042
904.627	13042
904.745	13053
904.863	13076
904.981	12878
905.098	12772
905.216	12707
905.334	12783
905.451	12791
905.569	12760
905.686	12897
905.803	12715
905.921	12650
906.038	12639
906.155	12540
906.272	12506
906.389	12426
906.506	12376
906.623	12376
906.74	12407
906.857	12167
906.974	12270
907.091	12475
907.208	12441
907.324	12395
907.441	12277
907.557	12057
907.674	12068
907.79	12083
907.907	12121
908.023	12155
908.139	12087
908.256	12076
908.372	11992
908.488	12038
908.604	11885
908.72	11885
908.836	11847
908.952	11817
909.068	11760
909.184	11942
909.3	11847
909.415	11866
909.531	11958
909.647	11585
909.762	11577
909.878	11611
909.993	11672
910.108	11577
910.224	11524
910.339	11539
910.454	11497
910.57	11486
910.685	11414
910.8	11642
910.915	11649
911.03	11467
911.145	11330
911.259	11341
911.374	11345
911.489	11269
911.604	11166
911.718	11075
911.833	11064
911.947	10953
912.062	10900
912.176	11052
912.291	11067
912.405	11083
912.519	11170
912.633	11197
912.748	11105
912.862	11083
912.976	10938
913.09	10801
913.204	10923
913.318	10946
913.431	11075
913.545	10984
913.659	11083
913.772	10946
913.886	10790
914	10831
914.113	10930
914.226	10919
914.34	10896
914.453	10721
914.566	10953
914.68	10748
914.793	10782
914.906	10611
915.019	10459
915.132	10527
915.245	10603
915.358	10611
915.47	10599
915.583	10588
915.696	10596
915.809	10698
915.921	10748
916.034	10485
916.146	10481
916.259	10535
916.371	10637
916.483	10538
916.595	10455
916.708	10497
916.82	10516
916.932	10421
917.044	10459
917.156	10500
917.268	10413
917.38	10459
917.491	10413
917.603	10428
917.715	10421
917.826	10546
917.938	10436
918.049	10276
918.161	10405
918.272	10466
918.384	10500
918.495	10348
918.606	10242
918.717	10257
918.828	10223
918.939	10280
919.05	10234
919.161	10169
919.272	10112
919.383	10112
919.494	10382
919.604	10542
919.715	10299
919.826	10162
919.936	10215
920.047	10367
920.157	10352
920.267	10493
920.378	10337
920.488	10314
920.598	10402
920.708	10664
920.818	10470
920.928	10421
921.038	10641
921.148	10588
921.258	10352
921.368	10280
921.477	10177
921.587	10071
921.697	10021
921.806	10162
921.916	10048
922.025	9869
922.134	9804
922.244	9797
922.353	9926
922.462	9736
922.571	9603
922.68	9572
922.789	9515
922.898	9545
923.007	9511
923.116	9557
923.224	9496
923.333	9603
923.442	9401
923.55	9412
923.659	9500
923.767	9526
923.876	9412
923.984	9424
924.092	9294
924.201	9363
924.309	9397
924.417	9431
924.525	9294
924.633	9317
924.741	10318
924.849	9184
924.956	9401
925.064	9184
925.172	9127
925.279	9123
925.387	9237
925.494	9249
925.602	9325
925.709	9188
925.816	9081
925.924	9180
926.031	9348
926.138	9180
926.245	9302
926.352	9150
926.459	9218
926.566	9321
926.673	9157
926.779	9176
926.886	9047
926.993	8906
927.099	8872
927.206	8792
927.312	8792
927.419	8914
927.525	8918
927.631	8937
927.737	8800
927.843	8788
927.95	8648
928.056	8735
928.162	8826
928.267	8838
928.373	9408
928.479	8864
928.585	8640
928.69	8754
928.796	8834
928.901	8708
929.007	8568
929.112	8727
929.218	8651
929.323	8655
929.428	8594
929.533	8708
929.638	8492
929.743	8541
929.848	8651
929.953	8625
930.058	8457
930.163	8298
930.267	8351
930.372	8495
930.477	8370
930.581	8590
930.685	8488
930.79	8279
930.894	8320
930.998	8256
931.103	8427
931.207	8172
931.311	8123
931.415	7947
931.519	7811
931.623	7807
