Data from test_V78500241_522.txt Node
Date: Fri Mar 25 14:37:21 CST 2022
User: usil
Spectrometer: V785-0024
Trigger mode: 0
Integration Time (sec): 4.000000E-1
Scans to average: 1
Nonlinearity correction enabled: false
Boxcar width: 0
Storing dark spectrum: false
XAxis mode: Wavelengths
Number of Pixels in Spectrum: 1024
>>>>>Begin Spectral Data<<<<<
801.071	26861
801.214	26727
801.356	26667
801.499	26495
801.641	26503
801.783	26275
801.926	26248
802.068	26336
802.211	26119
802.353	26115
802.496	25799
802.638	25799
802.78	25940
802.923	25909
803.065	25765
803.208	25849
803.35	25769
803.492	25921
803.635	26050
803.777	25890
803.919	25849
804.061	26142
804.204	25856
804.346	25887
804.488	25761
804.63	25868
804.773	25860
804.915	25849
805.057	25841
805.199	25955
805.341	25940
805.483	25993
805.626	26073
805.768	25833
805.91	25906
806.052	25887
806.194	25986
806.336	26164
806.478	26084
806.62	26161
806.762	26343
806.904	26545
807.046	26868
807.188	26701
807.33	26842
807.472	26940
807.614	27005
807.756	27211
807.898	27275
808.04	27477
808.182	27903
808.324	28527
808.465	29109
808.607	29832
808.749	30319
808.891	30825
809.033	31061
809.174	30471
809.316	29798
809.458	29166
809.6	28500
809.741	28162
809.883	27675
810.025	27625
810.166	27313
810.308	27272
810.45	26910
810.591	26849
810.733	26765
810.875	26682
811.016	26450
811.158	26320
811.299	26640
811.441	26492
811.582	26552
811.724	26305
811.865	26309
812.007	26389
812.148	26343
812.29	26408
812.431	26473
812.573	26530
812.714	26568
812.855	26644
812.997	26845
813.138	27039
813.279	26826
813.421	26629
813.562	26530
813.703	26476
813.845	26366
813.986	26149
814.127	25917
814.268	25769
814.41	25708
814.551	25887
814.692	25772
814.833	25632
814.974	25609
815.115	25597
815.256	25609
815.397	25601
815.539	25597
815.68	25491
815.821	25453
815.962	25506
816.103	25453
816.244	25316
816.385	25259
816.526	25046
816.666	24947
816.807	24932
816.948	24852
817.089	24989
817.23	24878
817.371	24696
817.512	24829
817.653	24817
817.793	24700
817.934	24681
818.075	24764
818.216	24837
818.356	24646
818.497	24525
818.638	24426
818.778	24407
818.919	24513
819.06	24490
819.2	24749
819.341	24661
819.481	24700
819.622	24810
819.762	24863
819.903	24913
820.043	24867
820.184	24757
820.324	24924
820.465	24935
820.605	24635
820.746	24772
820.886	24654
821.026	24608
821.167	24700
821.307	24817
821.447	24502
821.588	24555
821.728	24422
821.868	24228
822.008	24003
822.149	24148
822.289	24053
822.429	23969
822.569	23745
822.709	23817
822.849	23493
822.99	23558
823.13	23414
823.27	23387
823.41	23395
823.55	23200
823.69	23299
823.83	23265
823.97	23242
824.11	23079
824.25	23132
824.389	23075
824.529	23022
824.669	23003
824.809	23151
824.949	23197
825.089	23109
825.228	23029
825.368	22892
825.508	22786
825.648	22889
825.787	22869
825.927	22767
826.067	22786
826.206	22809
826.346	22995
826.485	22923
826.625	22927
826.765	22972
826.904	22797
827.044	22603
827.183	22527
827.323	22603
827.462	22500
827.601	22535
827.741	22443
827.88	22577
828.02	22379
828.159	22577
828.298	22538
828.437	22565
828.577	22432
828.716	22740
828.855	22344
828.994	22188
829.134	22299
829.273	22234
829.412	22211
829.551	22109
829.69	22169
829.829	22238
829.968	22196
830.107	22200
830.246	22215
830.385	22177
830.524	22120
830.663	22078
830.802	21941
830.941	21766
831.08	21743
831.219	21789
831.357	21922
831.496	21888
831.635	21709
831.774	21564
831.913	21625
832.051	21523
832.19	21564
832.329	21701
832.467	21538
832.606	21374
832.744	21447
832.883	21667
833.022	21374
833.16	21580
833.299	21747
833.437	21667
833.576	21633
833.714	21610
833.852	21804
833.991	21667
834.129	21720
834.267	21876
834.406	21667
834.544	21610
834.682	21614
834.821	21667
834.959	21747
835.097	21583
835.235	21595
835.373	21485
835.511	21553
835.65	21340
835.788	21374
835.926	21226
836.064	21150
836.202	21055
836.34	21199
836.478	21428
836.615	21249
836.753	21287
836.891	21363
837.029	21291
837.167	21317
837.305	21252
837.443	21165
837.58	21146
837.718	21218
837.856	21211
837.993	21085
838.131	21165
838.269	21062
838.406	21081
838.544	20956
838.681	20800
838.819	20758
838.956	20598
839.094	20579
839.231	20785
839.369	20781
839.506	20853
839.643	20788
839.781	20598
839.918	20480
840.055	20522
840.193	20636
840.33	20339
840.467	20549
840.604	20598
840.742	20727
840.879	20389
841.016	20301
841.153	20370
841.29	20511
841.427	20549
841.564	20473
841.701	20564
841.838	20419
841.975	20336
842.112	20355
842.249	20168
842.385	20278
842.522	20537
842.659	20317
842.796	20221
842.933	20233
843.069	20248
843.206	20282
843.343	20324
843.479	20157
843.616	20271
843.752	20035
843.889	20161
844.025	20183
844.162	20100
844.298	20309
844.435	20035
844.571	20088
844.708	20252
844.844	20412
844.98	20393
845.117	20514
845.253	20636
845.389	20910
845.525	21595
845.661	22542
845.798	23661
845.934	24783
846.07	25145
846.206	24943
846.342	24403
846.478	22976
846.614	21709
846.75	20792
846.886	20385
847.022	20096
847.158	19875
847.294	19674
847.429	19757
847.565	19715
847.701	19803
847.837	19274
847.972	19297
848.108	19308
848.244	19297
848.379	19133
848.515	19114
848.65	19076
848.786	19129
848.921	19088
849.057	19065
849.192	19107
849.328	19206
849.463	18954
849.598	18951
849.734	18913
849.869	18932
850.004	18787
850.14	18772
850.275	18734
850.41	18684
850.545	18829
850.68	18688
850.815	18894
850.95	18764
851.085	18996
851.22	18768
851.355	18696
851.49	18840
851.625	18745
851.76	18703
851.895	18730
852.03	18673
852.165	18757
852.299	18844
852.434	18882
852.569	18688
852.703	18844
852.838	18791
852.973	18943
853.107	18875
853.242	18745
853.376	18696
853.511	18612
853.645	18604
853.78	18859
853.914	18665
854.048	18696
854.183	18601
854.317	18665
854.451	18890
854.585	18658
854.72	18665
854.854	18741
854.988	18532
855.122	18711
855.256	18525
855.39	18612
855.524	18582
855.658	18692
855.792	18593
855.926	18665
856.06	18715
856.194	18639
856.327	18635
856.461	18551
856.595	18593
856.729	18502
856.862	18627
856.996	18661
857.13	18589
857.263	18570
857.397	18684
857.53	18608
857.664	18559
857.797	18582
857.931	18730
858.064	18597
858.197	18593
858.331	18509
858.464	18479
858.597	18437
858.731	18445
858.864	18608
858.997	18452
859.13	18589
859.263	18544
859.396	18574
859.529	18517
859.662	18467
859.795	18433
859.928	18509
860.061	18620
860.194	18608
860.327	18525
860.46	18490
860.592	18642
860.725	18665
860.858	18582
860.99	18513
861.123	18315
861.256	18502
861.388	18403
861.521	19289
861.653	18350
861.786	18270
861.918	18365
862.05	18528
862.183	18593
862.315	18490
862.447	18532
862.58	18544
862.712	18258
862.844	18114
862.976	18395
863.108	18277
863.24	18768
863.372	18296
863.504	18262
863.636	18194
863.768	18350
863.9	18224
864.032	18178
864.164	18121
864.296	18369
864.428	18319
864.559	18129
864.691	18232
864.823	18388
864.954	18197
865.086	18235
865.217	18213
865.349	18064
865.48	18117
865.612	18239
865.743	18178
865.875	18060
866.006	18114
866.137	18106
866.269	18125
866.4	18159
866.531	18205
866.662	18155
866.793	18117
866.924	18155
867.055	18159
867.186	18038
867.317	17980
867.448	18007
867.579	17908
867.71	18159
867.841	18076
867.972	18235
868.103	18053
868.233	18155
868.364	18159
868.495	18144
868.625	18407
868.756	18330
868.886	18228
869.017	18289
869.147	18445
869.278	18414
869.408	18342
869.539	18338
869.669	18388
869.799	18395
869.929	18479
870.06	18346
870.19	18745
870.32	18597
870.45	18608
870.58	18719
870.71	18741
870.84	18757
870.97	18673
871.1	18749
871.23	18848
871.36	18954
871.489	18700
871.619	18875
871.749	18905
871.879	18996
872.008	19034
872.138	18970
872.267	18996
872.397	18856
872.526	18749
872.656	18852
872.785	18856
872.915	18951
873.044	19133
873.173	18867
873.303	19012
873.432	19091
873.561	19084
873.69	18970
873.819	19084
873.948	19038
874.077	19050
874.206	19057
874.335	19053
874.464	19114
874.593	19339
874.722	19346
874.851	19377
874.979	19457
875.108	19430
875.237	19282
875.365	19354
875.494	19400
875.623	19468
875.751	19381
875.88	19350
876.008	19559
876.136	19620
876.265	19841
876.393	19993
876.521	19868
876.65	20016
876.778	19928
876.906	19750
877.034	19814
877.162	19921
877.29	19898
877.418	19913
877.546	19944
877.674	20027
877.802	19921
877.93	20001
878.058	19993
878.185	19947
878.313	19951
878.441	20237
878.568	20119
878.696	20317
878.824	20568
878.951	20735
879.079	21131
879.206	21568
879.333	21797
879.461	22128
879.588	22375
879.715	22561
879.842	22451
879.97	21915
880.097	21252
880.224	20975
880.351	20834
880.478	20655
880.605	20408
880.732	20461
880.859	20480
880.986	20263
881.112	20442
881.239	20187
881.366	20199
881.493	19833
881.619	19807
881.746	19898
881.872	19993
881.999	19955
882.125	19982
882.252	20122
882.378	20035
882.505	20073
882.631	19890
882.757	19750
882.883	19841
883.01	19852
883.136	19704
883.262	19677
883.388	19499
883.514	19693
883.64	19791
883.766	19753
883.892	19434
884.018	19658
884.143	19712
884.269	19761
884.395	19495
884.52	19441
884.646	19472
884.772	19304
884.897	19343
885.023	19533
885.148	19544
885.274	19601
885.399	19403
885.524	19244
885.65	19346
885.775	19449
885.9	19202
886.025	19369
886.15	19331
886.275	19148
886.4	19080
886.525	19080
886.65	19000
886.775	18897
886.9	19171
887.025	19206
887.149	19072
887.274	18825
887.399	18802
887.523	18856
887.648	18730
887.773	18585
887.897	18840
888.021	18734
888.146	18768
888.27	18684
888.395	18741
888.519	18703
888.643	18684
888.767	18795
888.891	18604
889.015	18418
889.139	18620
889.263	18384
889.387	18578
889.511	18566
889.635	18513
889.759	18384
889.883	18414
890.006	18391
890.13	18448
890.254	18330
890.377	18338
890.501	18091
890.624	18178
890.748	18235
890.871	18174
890.995	18015
891.118	17958
891.241	18053
891.364	17988
891.488	18068
891.611	18087
891.734	17946
891.857	17973
891.98	17923
892.103	17999
892.226	17942
892.349	17866
892.471	17779
892.594	17836
892.717	17893
892.839	17923
892.962	17878
893.085	17832
893.207	17840
893.33	17771
893.452	17752
893.575	17817
893.697	17851
893.819	17961
893.941	17870
894.064	17897
894.186	17691
894.308	17824
894.43	17882
894.552	17996
894.674	17889
894.796	17802
894.918	17760
895.04	17760
895.161	17855
895.283	17794
895.405	17687
895.526	17764
895.648	17851
895.769	17794
895.891	17802
896.012	17885
896.134	17855
896.255	17737
896.376	17775
896.498	17847
896.619	17893
896.74	17832
896.861	17893
896.982	18194
897.103	18304
897.224	18026
897.345	17969
897.466	17927
897.587	18015
897.708	18079
897.828	18098
897.949	17942
898.07	17950
898.19	17923
898.311	18144
898.431	18060
898.552	18030
898.672	18072
898.792	18140
898.913	18095
899.033	17783
899.153	17904
899.273	17710
899.393	17866
899.513	17931
899.633	17824
899.753	17897
899.873	17832
899.993	17764
900.113	17775
900.232	17756
900.352	17775
900.472	17676
900.591	17608
900.711	17718
900.83	17646
900.95	17756
901.069	17798
901.189	17581
901.308	17356
901.427	17197
901.546	17299
901.665	17322
901.784	17299
901.904	17197
902.023	16965
902.141	16835
902.26	16809
902.379	16908
902.498	16706
902.617	16778
902.735	16725
902.854	16740
902.973	16641
903.091	16405
903.21	16409
903.328	16371
903.446	16352
903.565	16356
903.683	16348
903.801	16143
903.919	16295
904.038	16147
904.156	15991
904.274	16131
904.392	15983
904.51	15979
904.627	16051
904.745	16078
904.863	16029
904.981	15739
905.098	15755
905.216	15800
905.334	15709
905.451	15671
905.569	15709
905.686	15698
905.803	15614
905.921	15431
906.038	15519
906.155	15473
906.272	15302
906.389	15428
906.506	15207
906.623	15241
906.74	15306
906.857	15135
906.974	15180
907.091	15275
907.208	15329
907.324	15268
907.441	15154
907.557	14967
907.674	15005
907.79	14849
907.907	14880
908.023	14967
908.139	14944
908.256	14910
908.372	14773
908.488	14819
908.604	14629
908.72	14689
908.836	14579
908.952	14648
909.068	14629
909.184	14754
909.3	14655
909.415	14701
909.531	14655
909.647	14434
909.762	14385
909.878	14385
909.993	14358
910.108	14290
910.224	14256
910.339	14351
910.454	14339
910.57	14210
910.685	14073
910.8	14332
910.915	14366
911.03	14248
911.145	14043
911.259	13986
911.374	13925
911.489	13864
911.604	13833
911.718	13788
911.833	13788
911.947	13620
912.062	13457
912.176	13670
912.291	13734
912.405	13742
912.519	13909
912.633	13898
912.748	13849
912.862	13727
912.976	13594
913.09	13578
913.204	13575
913.318	13578
913.431	13636
913.545	13567
913.659	13666
913.772	13537
913.886	13430
914	13472
914.113	13491
914.226	13422
914.34	13426
914.453	13297
914.566	13415
914.68	13324
914.793	13324
914.906	13107
915.019	13126
915.132	13000
915.245	12977
915.358	13118
915.47	13034
915.583	13129
915.696	13137
915.809	13293
915.921	13198
916.034	13118
916.146	13031
916.259	12977
916.371	13110
916.483	13012
916.595	12920
916.708	13034
916.82	13072
916.932	13031
917.044	12875
917.156	12993
917.268	12863
917.38	12852
917.491	12734
917.603	12817
917.715	12897
917.826	12806
917.938	12738
918.049	12631
918.161	12776
918.272	12852
918.384	12875
918.495	12806
918.606	12612
918.717	12589
918.828	12639
918.939	12616
919.05	12517
919.161	12502
919.272	12319
919.383	12506
919.494	12578
919.604	12783
919.715	12612
919.826	12471
919.936	12563
920.047	12578
920.157	12650
920.267	12730
920.378	12623
920.488	12540
920.598	12738
920.708	12882
920.818	12726
920.928	12658
921.038	12840
921.148	12844
921.258	12540
921.368	12452
921.477	12372
921.587	12346
921.697	12308
921.806	12369
921.916	12117
922.025	12038
922.134	11992
922.244	11984
922.353	12057
922.462	11828
922.571	11870
922.68	11703
922.789	11691
922.898	11729
923.007	11634
923.116	11672
923.224	11623
923.333	11619
923.442	11512
923.55	11493
923.659	11589
923.767	11562
923.876	11490
923.984	11532
924.092	11440
924.201	11421
924.309	11562
924.417	11478
924.525	11410
924.633	11482
924.741	12121
924.849	11288
924.956	11322
925.064	11258
925.172	11140
925.279	11121
925.387	11220
925.494	11288
925.602	11307
925.709	11280
925.816	11094
925.924	11117
926.031	11254
926.138	11132
926.245	11223
926.352	11109
926.459	11250
926.566	11242
926.673	11220
926.779	11014
926.886	10961
926.993	10873
927.099	10805
927.206	10843
927.312	10786
927.419	10831
927.525	10847
927.631	10847
927.737	10702
927.843	10637
927.95	10573
928.056	10626
928.162	10710
928.267	10733
928.373	11299
928.479	10850
928.585	10504
928.69	10649
928.796	10702
928.901	10634
929.007	10504
929.112	10527
929.218	10493
929.323	10493
929.428	10409
929.533	10497
929.638	10337
929.743	10394
929.848	10447
929.953	10432
930.058	10329
930.163	10128
930.267	10116
930.372	10337
930.477	10150
930.581	10261
930.685	10207
930.79	9964
930.894	10074
930.998	10029
931.103	10192
931.207	9850
931.311	9690
931.415	9576
931.519	9549
931.623	9469
