Data from test_V78500241_1526.txt Node
Date: Fri Mar 25 14:44:20 CST 2022
User: usil
Spectrometer: V785-0024
Trigger mode: 0
Integration Time (sec): 4.000000E-1
Scans to average: 1
Nonlinearity correction enabled: false
Boxcar width: 0
Storing dark spectrum: false
XAxis mode: Wavelengths
Number of Pixels in Spectrum: 1024
>>>>>Begin Spectral Data<<<<<
801.071	22424
801.214	22268
801.356	22032
801.499	21873
801.641	21972
801.783	21835
801.926	21785
802.068	21656
802.211	21641
802.353	21473
802.496	21275
802.638	21321
802.78	21188
802.923	21093
803.065	21013
803.208	21165
803.35	21036
803.492	21188
803.635	21138
803.777	21058
803.919	21135
804.061	21473
804.204	21188
804.346	21112
804.488	21062
804.63	21146
804.773	20960
804.915	21127
805.057	21161
805.199	21005
805.341	21077
805.483	21112
805.626	21135
805.768	21062
805.91	21001
806.052	20979
806.194	20853
806.336	21184
806.478	20986
806.62	21005
806.762	21036
806.904	21096
807.046	21416
807.188	21408
807.33	21298
807.472	21477
807.614	21363
807.756	21378
807.898	21249
808.04	21226
808.182	21256
808.324	21233
808.465	21313
808.607	21355
808.749	21568
808.891	21797
809.033	21838
809.174	21595
809.316	21622
809.458	21549
809.6	21530
809.741	21488
809.883	21644
810.025	21701
810.166	21671
810.308	21572
810.45	21641
810.591	21443
810.733	21275
810.875	21287
811.016	21161
811.158	21142
811.299	21256
811.441	21374
811.582	21397
811.724	21138
811.865	21127
812.007	21199
812.148	21275
812.29	21154
812.431	21526
812.573	21542
812.714	21557
812.855	21686
812.997	21812
813.138	21964
813.279	21892
813.421	21774
813.562	21644
813.703	21439
813.845	21401
813.986	21096
814.127	20872
814.268	20785
814.41	20864
814.551	20693
814.692	20876
814.833	20636
814.974	20804
815.115	20686
815.256	20682
815.397	20606
815.539	20564
815.68	20526
815.821	20396
815.962	20396
816.103	20469
816.244	20271
816.385	20294
816.526	20282
816.666	20103
816.807	19868
816.948	20031
817.089	20069
817.23	20008
817.371	20027
817.512	19940
817.653	20081
817.793	19769
817.934	20012
818.075	20062
818.216	19852
818.356	19826
818.497	19738
818.638	19563
818.778	19647
818.919	19616
819.06	19594
819.2	19674
819.341	19814
819.481	19776
819.622	19871
819.762	20031
819.903	20062
820.043	19940
820.184	19997
820.324	19814
820.465	19955
820.605	19978
820.746	19830
820.886	19696
821.026	19932
821.167	19936
821.307	19951
821.447	19807
821.588	19780
821.728	19628
821.868	19540
822.008	19369
822.149	19346
822.289	19270
822.429	19038
822.569	18951
822.709	19012
822.849	18798
822.99	18722
823.13	18658
823.27	18711
823.41	18593
823.55	18582
823.69	18551
823.83	18570
823.97	18471
824.11	18418
824.25	18315
824.389	18384
824.529	18506
824.669	18330
824.809	18418
824.949	18448
825.089	18460
825.228	18319
825.368	18216
825.508	18129
825.648	18152
825.787	18201
825.927	18133
826.067	18159
826.206	18076
826.346	18213
826.485	18148
826.625	18072
826.765	18205
826.904	18003
827.044	17920
827.183	17863
827.323	17790
827.462	17863
827.601	17649
827.741	17836
827.88	17805
828.02	17699
828.159	17729
828.298	17961
828.437	17870
828.577	17771
828.716	17954
828.855	17783
828.994	17539
829.134	17646
829.273	17642
829.412	17459
829.551	17398
829.69	17627
829.829	17589
829.968	17638
830.107	17657
830.246	17547
830.385	17509
830.524	17448
830.663	17379
830.802	17345
830.941	17204
831.08	17098
831.219	17284
831.357	17288
831.496	17433
831.635	17151
831.774	17056
831.913	17037
832.051	16930
832.19	16946
832.329	17003
832.467	16934
832.606	16812
832.744	16862
832.883	16873
833.022	16869
833.16	16847
833.299	16923
833.437	16908
833.576	16904
833.714	16919
833.852	16915
833.991	16934
834.129	17025
834.267	16900
834.406	16923
834.544	16930
834.682	17014
834.821	16946
834.959	17033
835.097	16767
835.235	17022
835.373	16927
835.511	16976
835.65	16854
835.788	16713
835.926	16698
836.064	16580
836.202	16554
836.34	16801
836.478	16831
836.615	16869
836.753	16881
836.891	16858
837.029	16896
837.167	16763
837.305	16759
837.443	16618
837.58	16577
837.718	16759
837.856	16675
837.993	16569
838.131	16649
838.269	16440
838.406	16618
838.544	16531
838.681	16257
838.819	16265
838.956	16143
839.094	16162
839.231	16261
839.369	16417
839.506	16603
839.643	16402
839.781	16306
839.918	16131
840.055	16280
840.193	16192
840.33	16135
840.467	16169
840.604	16291
840.742	16535
840.879	16128
841.016	16059
841.153	16124
841.29	16360
841.427	16268
841.564	16162
841.701	16234
841.838	16101
841.975	16048
842.112	16188
842.249	15964
842.385	15873
842.522	16238
842.659	15937
842.796	15991
842.933	15979
843.069	15968
843.206	15865
843.343	16017
843.479	16025
843.616	16040
843.752	15759
843.889	15759
844.025	15934
844.162	15633
844.298	15823
844.435	15568
844.571	15736
844.708	15770
844.844	15888
844.98	15899
845.117	15899
845.253	15781
845.389	15709
845.525	15739
845.661	15652
845.798	15660
845.934	15850
846.07	15709
846.206	15747
846.342	15892
846.478	15694
846.614	15428
846.75	15298
846.886	15233
847.022	15462
847.158	15302
847.294	15332
847.429	15408
847.565	15275
847.701	15511
847.837	14975
847.972	15066
848.108	15169
848.244	15119
848.379	14925
848.515	14975
848.65	15005
848.786	14963
848.921	14975
849.057	15058
849.192	15009
849.328	15009
849.463	14921
849.598	14895
849.734	14838
849.869	14842
850.004	14777
850.14	14876
850.275	14823
850.41	14651
850.545	14636
850.68	14712
850.815	14842
850.95	14610
851.085	14925
851.22	14765
851.355	14708
851.49	14708
851.625	14670
851.76	14712
851.895	14522
852.03	14651
852.165	14594
852.299	14826
852.434	14720
852.569	14701
852.703	14670
852.838	14792
852.973	14845
853.107	14842
853.242	14705
853.376	14568
853.511	14404
853.645	14522
853.78	14720
853.914	14640
854.048	14522
854.183	14644
854.317	14644
854.451	14716
854.585	14549
854.72	14473
854.854	14613
854.988	14427
855.122	14587
855.256	14545
855.39	14552
855.524	14678
855.658	14602
855.792	14667
855.926	14648
856.06	14636
856.194	14670
856.327	14629
856.461	14560
856.595	14564
856.729	14629
856.862	14701
856.996	14716
857.13	14640
857.263	14648
857.397	14674
857.53	14575
857.664	14674
857.797	14720
857.931	14724
858.064	14648
858.197	14705
858.331	14678
858.464	14533
858.597	14499
858.731	14552
858.864	14610
858.997	14571
859.13	14571
859.263	14625
859.396	14697
859.529	14522
859.662	14621
859.795	14655
859.928	14590
860.061	14781
860.194	14785
860.327	14552
860.46	14610
860.592	14693
860.725	14743
860.858	14678
860.99	14549
861.123	14560
861.256	14511
861.388	14613
861.521	15268
861.653	14427
861.786	14427
861.918	14427
862.05	14625
862.183	14518
862.315	14594
862.447	14613
862.58	14514
862.712	14370
862.844	14240
862.976	14431
863.108	14400
863.24	14880
863.372	14286
863.504	14343
863.636	14355
863.768	14419
863.9	14301
864.032	14317
864.164	14370
864.296	14408
864.428	14400
864.559	14389
864.691	14469
864.823	14377
864.954	14404
865.086	14328
865.217	14366
865.349	14278
865.48	14305
865.612	14332
865.743	14476
865.875	14343
866.006	14336
866.137	14355
866.269	14385
866.4	14256
866.531	14355
866.662	14221
866.793	14336
866.924	14221
867.055	14324
867.186	14298
867.317	14298
867.448	14256
867.579	14366
867.71	14290
867.841	14324
867.972	14282
868.103	14351
868.233	14336
868.364	14317
868.495	14431
868.625	14648
868.756	14632
868.886	14541
869.017	14522
869.147	14720
869.278	14705
869.408	14575
869.539	14549
869.669	14724
869.799	14632
869.929	14674
870.06	14712
870.19	14872
870.32	14830
870.45	15039
870.58	14971
870.71	15169
870.84	15062
870.97	14925
871.1	14941
871.23	15108
871.36	15138
871.489	15017
871.619	15077
871.749	15192
871.879	15245
872.008	15306
872.138	15241
872.267	15150
872.397	15085
872.526	14979
872.656	14948
872.785	15055
872.915	15279
873.044	15199
873.173	15192
873.303	15279
873.432	15245
873.561	15313
873.69	15241
873.819	15344
873.948	15279
874.077	15222
874.206	15241
874.335	15374
874.464	15443
874.593	15530
874.722	15374
874.851	15504
874.979	15519
875.108	15625
875.237	15519
875.365	15408
875.494	15515
875.623	15534
875.751	15545
875.88	15557
876.008	15648
876.136	15774
876.265	15964
876.393	16097
876.521	16021
876.65	16044
876.778	15941
876.906	15922
877.034	15903
877.162	15930
877.29	15865
877.418	15873
877.546	15915
877.674	16059
877.802	15956
877.93	15994
878.058	15972
878.185	15857
878.313	15854
878.441	15979
878.568	15873
878.696	15873
878.824	16025
878.951	16078
879.079	16181
879.206	16310
879.333	16188
879.461	16055
879.588	16230
879.715	16173
879.842	16261
879.97	16162
880.097	15793
880.224	15911
880.351	15987
880.478	15857
880.605	15850
880.732	15766
880.859	16051
880.986	15835
881.112	15888
881.239	15751
881.366	15633
881.493	15606
881.619	15447
881.746	15477
881.872	15530
881.999	15515
882.125	15515
882.252	15481
882.378	15564
882.505	15542
882.631	15420
882.757	15359
882.883	15466
883.01	15283
883.136	15298
883.262	15173
883.388	15085
883.514	15431
883.64	15363
883.766	15291
883.892	15100
884.018	15112
884.143	15283
884.269	15302
884.395	14956
884.52	15009
884.646	14948
884.772	14963
884.897	14944
885.023	14990
885.148	15100
885.274	15131
885.399	15161
885.524	15013
885.65	15058
885.775	15051
885.9	14941
886.025	15146
886.15	14952
886.275	14925
886.4	14834
886.525	14952
886.65	14902
886.775	14906
886.9	15154
887.025	15195
887.149	14952
887.274	14750
887.399	14769
887.523	14746
887.648	14678
887.773	14667
887.897	14849
888.021	14861
888.146	14769
888.27	14937
888.395	15005
888.519	14845
888.643	14838
888.767	14830
888.891	14693
889.015	14621
889.139	14682
889.263	14598
889.387	14823
889.511	14872
889.635	14708
889.759	14682
889.883	14686
890.006	14727
890.13	14826
890.254	14564
890.377	14598
890.501	14469
890.624	14423
890.748	14583
890.871	14530
890.995	14320
891.118	14218
891.241	14370
891.364	14385
891.488	14396
891.611	14400
891.734	14294
891.857	14400
891.98	14381
892.103	14454
892.226	14423
892.349	14343
892.471	14157
892.594	14278
892.717	14404
892.839	14286
892.962	14454
893.085	14415
893.207	14332
893.33	14218
893.452	14336
893.575	14408
893.697	14248
893.819	14488
893.941	14495
894.064	14579
894.186	14332
894.308	14408
894.43	14545
894.552	14564
894.674	14492
894.796	14419
894.918	14343
895.04	14442
895.161	14492
895.283	14480
895.405	14366
895.526	14423
895.648	14393
895.769	14613
895.891	14552
896.012	14488
896.134	14495
896.255	14423
896.376	14495
896.498	14450
896.619	14518
896.74	14507
896.861	14564
896.982	14937
897.103	15039
897.224	14800
897.345	14716
897.466	14746
897.587	14746
897.708	14838
897.828	14853
897.949	14811
898.07	14579
898.19	14743
898.311	14929
898.431	14819
898.552	14842
898.672	14994
898.792	14944
898.913	14944
899.033	14857
899.153	14781
899.273	14682
899.393	14743
899.513	14724
899.633	14644
899.753	14708
899.873	14648
899.993	14708
900.113	14712
900.232	14750
900.352	14731
900.472	14610
900.591	14469
900.711	14560
900.83	14442
900.95	14644
901.069	14667
901.189	14473
901.308	14259
901.427	14221
901.546	14271
901.665	14305
901.784	14298
901.904	14168
902.023	14077
902.141	13833
902.26	13852
902.379	13921
902.498	13772
902.617	13769
902.735	13921
902.854	13822
902.973	13704
903.091	13460
903.21	13559
903.328	13601
903.446	13415
903.565	13396
903.683	13441
903.801	13343
903.919	13438
904.038	13331
904.156	13198
904.274	13198
904.392	13247
904.51	13168
904.627	13149
904.745	13247
904.863	13183
904.981	13012
905.098	12802
905.216	12913
905.334	12886
905.451	12958
905.569	12852
905.686	12867
905.803	12848
905.921	12726
906.038	12810
906.155	12722
906.272	12585
906.389	12635
906.506	12486
906.623	12384
906.74	12433
906.857	12391
906.974	12399
907.091	12532
907.208	12612
907.324	12498
907.441	12304
907.557	12346
907.674	12190
907.79	12140
907.907	12190
908.023	12266
908.139	12201
908.256	12110
908.372	12205
908.488	12175
908.604	11882
908.72	11908
908.836	11958
908.952	11878
909.068	12030
909.184	12076
909.3	11950
909.415	11992
909.531	11950
909.647	11798
909.762	11680
909.878	11729
909.993	11703
910.108	11665
910.224	11688
910.339	11665
910.454	11646
910.57	11535
910.685	11467
910.8	11779
910.915	11684
911.03	11638
911.145	11444
911.259	11326
911.374	11372
911.489	11414
911.604	11296
911.718	11166
911.833	11220
911.947	11056
912.062	10976
912.176	11159
912.291	11181
912.405	11235
912.519	11334
912.633	11398
912.748	11189
912.862	11102
912.976	11071
913.09	10999
913.204	10980
913.318	11029
913.431	11067
913.545	11086
913.659	11185
913.772	11060
913.886	10938
914	10972
914.113	10972
914.226	11052
914.34	11003
914.453	10930
914.566	10995
914.68	10862
914.793	10965
914.906	10740
915.019	10599
915.132	10626
915.245	10660
915.358	10691
915.47	10672
915.583	10790
915.696	10744
915.809	10721
915.921	10782
916.034	10656
916.146	10679
916.259	10573
916.371	10664
916.483	10615
916.595	10675
916.708	10607
916.82	10664
916.932	10622
917.044	10546
917.156	10573
917.268	10504
917.38	10569
917.491	10527
917.603	10516
917.715	10535
917.826	10626
917.938	10432
918.049	10405
918.161	10546
918.272	10664
918.384	10630
918.495	10481
918.606	10436
918.717	10329
918.828	10409
918.939	10451
919.05	10306
919.161	10394
919.272	10284
919.383	10261
919.494	10432
919.604	10675
919.715	10440
919.826	10322
919.936	10363
920.047	10402
920.157	10512
920.267	10607
920.378	10447
920.488	10367
920.598	10584
920.708	10797
920.818	10653
920.928	10535
921.038	10748
921.148	10714
921.258	10504
921.368	10348
921.477	10333
921.587	10280
921.697	10116
921.806	10310
921.916	10196
922.025	10025
922.134	9956
922.244	9876
922.353	10074
922.462	9911
922.571	9778
922.68	9625
922.789	9660
922.898	9701
923.007	9606
923.116	9690
923.224	9625
923.333	9644
923.442	9557
923.55	9504
923.659	9591
923.767	9667
923.876	9500
923.984	9572
924.092	9443
924.201	9515
924.309	9599
924.417	9553
924.525	9408
924.633	9405
924.741	10337
924.849	9321
924.956	9466
925.064	9325
925.172	9241
925.279	9408
925.387	9329
925.494	9275
925.602	9481
925.709	9420
925.816	9264
925.924	9264
926.031	9389
926.138	9344
926.245	9302
926.352	9344
926.459	9408
926.566	9359
926.673	9275
926.779	9173
926.886	9176
926.993	9097
927.099	8994
927.206	9001
927.312	8914
927.419	9017
927.525	8944
927.631	9051
927.737	8971
927.843	8880
927.95	8777
928.056	8967
928.162	8967
928.267	8941
928.373	9511
928.479	9028
928.585	8739
928.69	8845
928.796	9009
928.901	8861
929.007	8716
929.112	8864
929.218	8804
929.323	8701
929.428	8727
929.533	8861
929.638	8667
929.743	8727
929.848	8758
929.953	8746
930.058	8613
930.163	8503
930.267	8514
930.372	8655
930.477	8488
930.581	8701
930.685	8590
930.79	8374
930.894	8396
930.998	8488
931.103	8606
931.207	8225
931.311	8172
931.415	8092
931.519	7906
931.623	7936
