Data from test_V78500241_549.txt Node
Date: Fri Mar 25 14:37:32 CST 2022
User: usil
Spectrometer: V785-0024
Trigger mode: 0
Integration Time (sec): 4.000000E-1
Scans to average: 1
Nonlinearity correction enabled: false
Boxcar width: 0
Storing dark spectrum: false
XAxis mode: Wavelengths
Number of Pixels in Spectrum: 1024
>>>>>Begin Spectral Data<<<<<
801.071	27606
801.214	27447
801.356	27150
801.499	27150
801.641	26982
801.783	27047
801.926	27020
802.068	26895
802.211	26807
802.353	26674
802.496	26495
802.638	26598
802.78	26480
802.923	26526
803.065	26358
803.208	26396
803.35	26514
803.492	26663
803.635	26701
803.777	26537
803.919	26575
804.061	26842
804.204	26579
804.346	26419
804.488	26415
804.63	26579
804.773	26503
804.915	26613
805.057	26823
805.199	26644
805.341	26758
805.483	26754
805.626	26788
805.768	26807
805.91	26788
806.052	26758
806.194	26739
806.336	27188
806.478	27062
806.62	27135
806.762	27408
806.904	27561
807.046	28010
807.188	27918
807.33	28166
807.472	28500
807.614	28713
807.756	29162
807.898	29471
808.04	30129
808.182	31065
808.324	32157
808.465	33488
808.607	34866
808.749	36053
808.891	36817
809.033	36947
809.174	36068
809.316	34691
809.458	33249
809.6	31925
809.741	30738
809.883	30011
810.025	29372
810.166	28930
810.308	28645
810.45	28325
810.591	28131
810.733	27827
810.875	27698
811.016	27462
811.158	27359
811.299	27386
811.441	27496
811.582	27344
811.724	27096
811.865	27005
812.007	27154
812.148	27062
812.29	27032
812.431	27241
812.573	27321
812.714	27302
812.855	27355
812.997	27526
813.138	27538
813.279	27424
813.421	27439
813.562	27252
813.703	27142
813.845	27093
813.986	26594
814.127	26503
814.268	26320
814.41	26343
814.551	26301
814.692	26495
814.833	26199
814.974	26237
815.115	26256
815.256	25997
815.397	26031
815.539	25982
815.68	25978
815.821	25917
815.962	25944
816.103	25947
816.244	25738
816.385	25693
816.526	25556
816.666	25365
816.807	25297
816.948	25312
817.089	25518
817.23	25384
817.371	25228
817.512	25065
817.653	25304
817.793	25244
817.934	25187
818.075	25274
818.216	25221
818.356	25171
818.497	24992
818.638	24882
818.778	24844
818.919	25000
819.06	24916
819.2	25015
819.341	25103
819.481	25206
819.622	25160
819.762	25487
819.903	25312
820.043	25373
820.184	25217
820.324	25152
820.465	25270
820.605	25217
820.746	25148
820.886	24954
821.026	25152
821.167	25213
821.307	25110
821.447	25084
821.588	24909
821.728	24806
821.868	24745
822.008	24475
822.149	24353
822.289	24505
822.429	24277
822.569	24076
822.709	24117
822.849	23847
822.99	23901
823.13	23836
823.27	23901
823.41	23771
823.55	23695
823.69	23741
823.83	23604
823.97	23573
824.11	23429
824.25	23448
824.389	23360
824.529	23425
824.669	23452
824.809	23493
824.949	23478
825.089	23478
825.228	23398
825.368	23315
825.508	23269
825.648	23341
825.787	23239
825.927	23242
826.067	23223
826.206	23193
826.346	23356
826.485	23250
826.625	23140
826.765	23345
826.904	23307
827.044	22919
827.183	23067
827.323	22824
827.462	22949
827.601	22900
827.741	22896
827.88	22980
828.02	22858
828.159	22782
828.298	22850
828.437	22858
828.577	22847
828.716	22942
828.855	22744
828.994	22599
829.134	22531
829.273	22607
829.412	22588
829.551	22573
829.69	22592
829.829	22592
829.968	22630
830.107	22649
830.246	22489
830.385	22516
830.524	22546
830.663	22398
830.802	22379
830.941	22238
831.08	22105
831.219	22219
831.357	22181
831.496	22417
831.635	22154
831.774	22154
831.913	22166
832.051	21975
832.19	21941
832.329	22105
832.467	21983
832.606	21808
832.744	21998
832.883	21838
833.022	21991
833.16	22105
833.299	22059
833.437	22109
833.576	22207
833.714	22242
833.852	22310
833.991	22360
834.129	22409
834.267	22394
834.406	22318
834.544	22246
834.682	22306
834.821	22215
834.959	22268
835.097	21960
835.235	22120
835.373	22010
835.511	21975
835.65	21819
835.788	21717
835.926	21637
836.064	21504
836.202	21595
836.34	21660
836.478	21660
836.615	21724
836.753	21637
836.891	21705
837.029	21644
837.167	21523
837.305	21553
837.443	21469
837.58	21515
837.718	21629
837.856	21492
837.993	21496
838.131	21504
838.269	21287
838.406	21313
838.544	21344
838.681	21176
838.819	21032
838.956	20952
839.094	20796
839.231	20925
839.369	21100
839.506	21272
839.643	21157
839.781	20899
839.918	20883
840.055	20868
840.193	20815
840.33	20952
840.467	20800
840.604	20819
840.742	21047
840.879	20701
841.016	20762
841.153	20746
841.29	20864
841.427	20857
841.564	20956
841.701	20777
841.838	20815
841.975	20727
842.112	20708
842.249	20659
842.385	20590
842.522	20781
842.659	20670
842.796	20575
842.933	20598
843.069	20621
843.206	20617
843.343	20598
843.479	20621
843.616	20648
843.752	20400
843.889	20412
844.025	20530
844.162	20537
844.298	20651
844.435	20564
844.571	20556
844.708	20975
844.844	21165
844.98	21313
845.117	21412
845.253	21778
845.389	22363
845.525	23798
845.661	26126
845.798	29079
845.934	31259
846.07	32180
846.206	31769
846.342	29969
846.478	27070
846.614	24525
846.75	22774
846.886	21682
847.022	21195
847.158	20651
847.294	20495
847.429	20324
847.565	20168
847.701	20298
847.837	19822
847.972	19655
848.108	19799
848.244	19746
848.379	19514
848.515	19518
848.65	19460
848.786	19472
848.921	19453
849.057	19506
849.192	19613
849.328	19502
849.463	19419
849.598	19381
849.734	19381
849.869	19247
850.004	19190
850.14	19190
850.275	19050
850.41	19069
850.545	19080
850.68	19118
850.815	19065
850.95	19072
851.085	19331
851.22	19156
851.355	19110
851.49	19084
851.625	19141
851.76	19225
851.895	18993
852.03	18878
852.165	19103
852.299	19209
852.434	19137
852.569	19175
852.703	19069
852.838	19137
852.973	19114
853.107	19190
853.242	19148
853.376	19034
853.511	18878
853.645	18981
853.78	19175
853.914	18966
854.048	19103
854.183	19076
854.317	19194
854.451	19335
854.585	19126
854.72	19088
854.854	19019
854.988	18897
855.122	19110
855.256	18867
855.39	19004
855.524	19019
855.658	19080
855.792	19034
855.926	19004
856.06	18993
856.194	19137
856.327	18939
856.461	18875
856.595	18859
856.729	18928
856.862	19042
856.996	18897
857.13	18897
857.263	18924
857.397	18905
857.53	18795
857.664	18837
857.797	18852
857.931	18909
858.064	18985
858.197	19004
858.331	18924
858.464	18802
858.597	18665
858.731	18798
858.864	18787
858.997	18859
859.13	18916
859.263	18840
859.396	18890
859.529	18722
859.662	18551
859.795	18779
859.928	18848
860.061	18928
860.194	18935
860.327	18779
860.46	18757
860.592	18871
860.725	18954
860.858	18871
860.99	18821
861.123	18719
861.256	18749
861.388	18783
861.521	19419
861.653	18635
861.786	18681
861.918	18574
862.05	18760
862.183	18757
862.315	18897
862.447	18806
862.58	18757
862.712	18764
862.844	18555
862.976	18604
863.108	18563
863.24	18829
863.372	18555
863.504	18494
863.636	18502
863.768	18525
863.9	18578
864.032	18433
864.164	18395
864.296	18589
864.428	18528
864.559	18585
864.691	18540
864.823	18509
864.954	18464
865.086	18471
865.217	18452
865.349	18330
865.48	18330
865.612	18441
865.743	18604
865.875	18372
866.006	18357
866.137	18365
866.269	18380
866.4	18376
866.531	18395
866.662	18292
866.793	18334
866.924	18365
867.055	18315
867.186	18304
867.317	18258
867.448	18304
867.579	18262
867.71	18266
867.841	18220
867.972	18407
868.103	18315
868.233	18372
868.364	18346
868.495	18498
868.625	18585
868.756	18639
868.886	18532
869.017	18604
869.147	18654
869.278	18719
869.408	18684
869.539	18639
869.669	18620
869.799	18582
869.929	18726
870.06	18677
870.19	18916
870.32	18916
870.45	19088
870.58	19053
870.71	19133
870.84	19065
870.97	19084
871.1	18970
871.23	19301
871.36	19232
871.489	19103
871.619	19145
871.749	19225
871.879	19213
872.008	19449
872.138	19331
872.267	19183
872.397	19122
872.526	19076
872.656	19160
872.785	19065
872.915	19354
873.044	19422
873.173	19251
873.303	19392
873.432	19324
873.561	19426
873.69	19244
873.819	19415
873.948	19525
874.077	19449
874.206	19320
874.335	19373
874.464	19655
874.593	19639
874.722	19491
874.851	19860
874.979	19780
875.108	19696
875.237	19807
875.365	19658
875.494	19704
875.623	19989
875.751	19776
875.88	19860
876.008	20005
876.136	20161
876.265	20332
876.393	20377
876.521	20431
876.65	20518
876.778	20377
876.906	20438
877.034	20408
877.162	20442
877.29	20389
877.418	20686
877.546	20594
877.674	20648
877.802	20705
877.93	20823
878.058	20739
878.185	20708
878.313	21005
878.441	21157
878.568	21157
878.696	21492
878.824	21804
878.951	22398
879.079	23162
879.206	23980
879.333	24757
879.461	25487
879.588	26024
879.715	26065
879.842	25807
879.97	24795
880.097	23897
880.224	23075
880.351	22546
880.478	22226
880.605	21930
880.732	21800
880.859	21857
880.986	21675
881.112	21656
881.239	21374
881.366	21378
881.493	21241
881.619	21241
881.746	21131
881.872	21112
881.999	21169
882.125	21176
882.252	21222
882.378	21195
882.505	21378
882.631	21051
882.757	20960
882.883	21116
883.01	20975
883.136	21089
883.262	20902
883.388	20891
883.514	21119
883.64	21013
883.766	20899
883.892	20743
884.018	20861
884.143	20925
884.269	21047
884.395	20830
884.52	20705
884.646	20659
884.772	20682
884.897	20769
885.023	20678
885.148	20785
885.274	20727
885.399	20731
885.524	20537
885.65	20598
885.775	20480
885.9	20438
886.025	20556
886.15	20343
886.275	20153
886.4	20119
886.525	19963
886.65	19970
886.775	19967
886.9	20039
887.025	20244
887.149	19989
887.274	19715
887.399	19662
887.523	19571
887.648	19491
887.773	19449
887.897	19521
888.021	19533
888.146	19388
888.27	19567
888.395	19533
888.519	19548
888.643	19354
888.767	19392
888.891	19179
889.015	19156
889.139	19175
889.263	18996
889.387	19107
889.511	19244
889.635	19129
889.759	18989
889.883	19080
890.006	19088
890.13	19046
890.254	19000
890.377	18958
890.501	18654
890.624	18650
890.748	18726
890.871	18677
890.995	18483
891.118	18540
891.241	18513
891.364	18502
891.488	18620
891.611	18403
891.734	18490
891.857	18506
891.98	18410
892.103	18517
892.226	18498
892.349	18369
892.471	18205
892.594	18338
892.717	18319
892.839	18247
892.962	18266
893.085	18308
893.207	18190
893.33	18182
893.452	18136
893.575	18197
893.697	18315
893.819	18338
893.941	18456
894.064	18277
894.186	18072
894.308	18057
894.43	18186
894.552	18357
894.674	18224
894.796	18083
894.918	18091
895.04	18140
895.161	18106
895.283	18064
895.405	17999
895.526	18197
895.648	18117
895.769	18148
895.891	18076
896.012	18235
896.134	18277
896.255	18258
896.376	18114
896.498	18015
896.619	18152
896.74	18102
896.861	18114
896.982	18456
897.103	18547
897.224	18448
897.345	18270
897.466	18342
897.587	18372
897.708	18464
897.828	18388
897.949	18342
898.07	18258
898.19	18311
898.311	18399
898.431	18369
898.552	18304
898.672	18498
898.792	18407
898.913	18372
899.033	18197
899.153	18220
899.273	18022
899.393	18034
899.513	18144
899.633	18117
899.753	18209
899.873	18072
899.993	18159
900.113	18110
900.232	18163
900.352	17977
900.472	18011
900.591	17885
900.711	17931
900.83	17885
900.95	17931
901.069	17969
901.189	17779
901.308	17551
901.427	17535
901.546	17478
901.665	17535
901.784	17566
901.904	17334
902.023	17261
902.141	17128
902.26	17113
902.379	17045
902.498	17014
902.617	16957
902.735	17041
902.854	16995
902.973	16885
903.091	16721
903.21	16710
903.328	16721
903.446	16584
903.565	16421
903.683	16554
903.801	16421
903.919	16402
904.038	16455
904.156	16329
904.274	16295
904.392	16253
904.51	16306
904.627	16280
904.745	16280
904.863	16287
904.981	16071
905.098	15884
905.216	15861
905.334	15835
905.451	15876
905.569	15793
905.686	15835
905.803	15835
905.921	15663
906.038	15762
906.155	15679
906.272	15485
906.389	15591
906.506	15519
906.623	15405
906.74	15462
906.857	15287
906.974	15351
907.091	15515
907.208	15496
907.324	15397
907.441	15161
907.557	15154
907.674	15070
907.79	15108
907.907	15093
908.023	15108
908.139	15070
908.256	15047
908.372	15066
908.488	14899
908.604	14716
908.72	14689
908.836	14819
908.952	14777
909.068	14906
909.184	14823
909.3	14811
909.415	14796
909.531	14754
909.647	14549
909.762	14499
909.878	14499
909.993	14606
910.108	14495
910.224	14457
910.339	14530
910.454	14408
910.57	14301
910.685	14309
910.8	14537
910.915	14511
911.03	14347
911.145	14168
911.259	14142
911.374	14081
911.489	14027
911.604	13993
911.718	13932
911.833	13868
911.947	13879
912.062	13636
912.176	13864
912.291	13902
912.405	13826
912.519	14046
912.633	14103
912.748	13856
912.862	13837
912.976	13761
913.09	13636
913.204	13708
913.318	13666
913.431	13731
913.545	13780
913.659	13852
913.772	13693
913.886	13559
914	13529
914.113	13700
914.226	13784
914.34	13651
914.453	13426
914.566	13590
914.68	13464
914.793	13373
914.906	13285
915.019	13164
915.132	13156
915.245	13194
915.358	13217
915.47	13179
915.583	13304
915.696	13297
915.809	13415
915.921	13384
916.034	13213
916.146	13171
916.259	13171
916.371	13187
916.483	13171
916.595	13088
916.708	13160
916.82	13095
916.932	13072
917.044	13012
917.156	13080
917.268	13004
917.38	12939
917.491	12962
917.603	13114
917.715	13084
917.826	13076
917.938	12924
918.049	12802
918.161	12935
918.272	13038
918.384	13004
918.495	12867
918.606	12757
918.717	12795
918.828	12798
918.939	12810
919.05	12700
919.161	12585
919.272	12578
919.383	12570
919.494	12700
919.604	12939
919.715	12684
919.826	12551
919.936	12768
920.047	12738
920.157	12730
920.267	12810
920.378	12814
920.488	12749
920.598	12779
920.708	12977
920.818	12806
920.928	12871
921.038	13023
921.148	12905
921.258	12684
921.368	12555
921.477	12471
921.587	12448
921.697	12327
921.806	12456
921.916	12311
922.025	12197
922.134	12228
922.244	12114
922.353	12197
922.462	12045
922.571	11897
922.68	11775
922.789	11703
922.898	11821
923.007	11764
923.116	11847
923.224	11802
923.333	11802
923.442	11691
923.55	11585
923.659	11699
923.767	11745
923.876	11562
923.984	11665
924.092	11528
924.201	11528
924.309	11611
924.417	11558
924.525	11505
924.633	11554
924.741	12266
924.849	11402
924.956	11512
925.064	11341
925.172	11208
925.279	11178
925.387	11356
925.494	11318
925.602	11436
925.709	11440
925.816	11277
925.924	11345
926.031	11311
926.138	11254
926.245	11372
926.352	11159
926.459	11326
926.566	11345
926.673	11269
926.779	11052
926.886	11079
926.993	10915
927.099	11052
927.206	10911
927.312	10854
927.419	10953
927.525	10900
927.631	10984
927.737	10896
927.843	10801
927.95	10687
928.056	10763
928.162	10809
928.267	10786
928.373	11326
928.479	10877
928.585	10573
928.69	10805
928.796	10809
928.901	10649
929.007	10516
929.112	10584
929.218	10626
929.323	10527
929.428	10481
929.533	10649
929.638	10443
929.743	10485
929.848	10516
929.953	10523
930.058	10375
930.163	10242
930.267	10249
930.372	10352
930.477	10242
930.581	10413
930.685	10306
930.79	10112
930.894	10200
930.998	10143
931.103	10246
931.207	9861
931.311	9857
931.415	9797
931.519	9610
931.623	9526
