Data from test_V78500241_763.txt Node
Date: Fri Mar 25 14:39:01 CST 2022
User: usil
Spectrometer: V785-0024
Trigger mode: 0
Integration Time (sec): 4.000000E-1
Scans to average: 1
Nonlinearity correction enabled: false
Boxcar width: 0
Storing dark spectrum: false
XAxis mode: Wavelengths
Number of Pixels in Spectrum: 1024
>>>>>Begin Spectral Data<<<<<
801.071	26998
801.214	26891
801.356	26617
801.499	26659
801.641	26404
801.783	26324
801.926	26301
802.068	26218
802.211	26214
802.353	26218
802.496	26054
802.638	25879
802.78	25837
802.923	25746
803.065	25753
803.208	25791
803.35	25841
803.492	26020
803.635	26138
803.777	25830
803.919	25913
804.061	26282
804.204	26005
804.346	26062
804.488	25917
804.63	26111
804.773	25871
804.915	26161
805.057	26263
805.199	26240
805.341	26419
805.483	26636
805.626	26609
805.768	26461
805.91	26632
806.052	26697
806.194	26906
806.336	27249
806.478	27325
806.62	27355
806.762	27648
806.904	28135
807.046	28687
807.188	29083
807.33	29482
807.472	29935
807.614	30601
807.756	31495
807.898	32678
808.04	34032
808.182	36106
808.324	38724
808.465	41627
808.607	44971
808.749	47961
808.891	49502
809.033	49868
809.174	48182
809.316	45237
809.458	41817
809.6	38419
809.741	35668
809.883	33526
810.025	32096
810.166	30951
810.308	30273
810.45	29490
810.591	29064
810.733	28371
810.875	28211
811.016	27561
811.158	27462
811.299	27389
811.441	27363
811.582	27291
811.724	26998
811.865	26929
812.007	26746
812.148	26648
812.29	26663
812.431	26861
812.573	26781
812.714	26845
812.855	26876
812.997	26921
813.138	27009
813.279	26845
813.421	26746
813.562	26670
813.703	26518
813.845	26298
813.986	26001
814.127	25917
814.268	25575
814.41	25578
814.551	25529
814.692	25537
814.833	25388
814.974	25422
815.115	25563
815.256	25297
815.397	25183
815.539	25266
815.68	25194
815.821	25023
815.962	25000
816.103	25008
816.244	24924
816.385	24757
816.526	24772
816.666	24517
816.807	24281
816.948	24540
817.089	24551
817.23	24410
817.371	24372
817.512	24380
817.653	24289
817.793	24243
817.934	24330
818.075	24194
818.216	24182
818.356	24182
818.497	24209
818.638	23893
818.778	23790
818.919	23904
819.06	23958
819.2	24125
819.341	24072
819.481	24163
819.622	24133
819.762	24540
819.903	24281
820.043	24296
820.184	24213
820.324	24167
820.465	24216
820.605	24152
820.746	23969
820.886	23923
821.026	24133
821.167	23897
821.307	24163
821.447	23916
821.588	23824
821.728	23707
821.868	23459
822.008	23471
822.149	23330
822.289	23364
822.429	22984
822.569	23025
822.709	22953
822.849	22869
822.99	22873
823.13	22771
823.27	22763
823.41	22554
823.55	22402
823.69	22637
823.83	22504
823.97	22565
824.11	22352
824.25	22333
824.389	22341
824.529	22333
824.669	22322
824.809	22447
824.949	22424
825.089	22432
825.228	22428
825.368	22090
825.508	22211
825.648	22036
825.787	22276
825.927	22276
826.067	22135
826.206	22051
826.346	22116
826.485	22181
826.625	22135
826.765	22261
826.904	22074
827.044	21842
827.183	21895
827.323	21797
827.462	21755
827.601	21823
827.741	21663
827.88	21827
828.02	21667
828.159	21785
828.298	21705
828.437	21804
828.577	21720
828.716	21865
828.855	21717
828.994	21542
829.134	21389
829.273	21557
829.412	21416
829.551	21211
829.69	21450
829.829	21340
829.968	21435
830.107	21454
830.246	21488
830.385	21268
830.524	21469
830.663	21344
830.802	21226
830.941	21066
831.08	20948
831.219	21199
831.357	21070
831.496	21233
831.635	21032
831.774	21001
831.913	20925
832.051	20967
832.19	20895
832.329	21043
832.467	20777
832.606	20853
832.744	20849
832.883	20956
833.022	20975
833.16	21161
833.299	21188
833.437	21344
833.576	21557
833.714	21591
833.852	21846
833.991	21899
834.129	22101
834.267	21972
834.406	21964
834.544	21831
834.682	21690
834.821	21652
834.959	21622
835.097	21268
835.235	21340
835.373	21142
835.511	21001
835.65	21017
835.788	20899
835.926	20758
836.064	20492
836.202	20488
836.34	20712
836.478	20663
836.615	20609
836.753	20511
836.891	20640
837.029	20773
837.167	20556
837.305	20495
837.443	20396
837.58	20457
837.718	20393
837.856	20446
837.993	20347
838.131	20187
838.269	20317
838.406	20450
838.544	20259
838.681	20130
838.819	19982
838.956	19883
839.094	19818
839.231	19898
839.369	20020
839.506	20115
839.643	20035
839.781	19951
839.918	19818
840.055	19784
840.193	19750
840.33	19769
840.467	19879
840.604	19811
840.742	20073
840.879	19613
841.016	19696
841.153	19788
841.29	19887
841.427	19856
841.564	19852
841.701	19803
841.838	19750
841.975	19685
842.112	19841
842.249	19658
842.385	19540
842.522	19757
842.659	19635
842.796	19559
842.933	19700
843.069	19681
843.206	19746
843.343	19822
843.479	19746
843.616	19845
843.752	19715
843.889	19521
844.025	19856
844.162	19784
844.298	20050
844.435	20016
844.571	20183
844.708	20461
844.844	20887
844.98	21447
845.117	22059
845.253	23090
845.389	24852
845.525	28478
845.661	34223
845.798	40984
845.934	46128
846.07	47931
846.206	46584
846.342	41783
846.478	35014
846.614	29147
846.75	25415
846.886	23140
847.022	21785
847.158	20823
847.294	20324
847.429	19871
847.565	19674
847.701	19776
847.837	19225
847.972	19141
848.108	19095
848.244	19012
848.379	18894
848.515	18722
848.65	18559
848.786	18532
848.921	18532
849.057	18768
849.192	18692
849.328	18631
849.463	18547
849.598	18494
849.734	18391
849.869	18372
850.004	18296
850.14	18311
850.275	18357
850.41	18285
850.545	18197
850.68	18194
850.815	18277
850.95	18216
851.085	18426
851.22	18319
851.355	18281
851.49	18277
851.625	18083
851.76	18239
851.895	18015
852.03	18057
852.165	18224
852.299	18273
852.434	18418
852.569	18357
852.703	18388
852.838	18380
852.973	18483
853.107	18475
853.242	18300
853.376	18289
853.511	18235
853.645	18277
853.78	18635
853.914	18464
854.048	18452
854.183	18395
854.317	18665
854.451	18620
854.585	18559
854.72	18467
854.854	18566
854.988	18277
855.122	18410
855.256	18220
855.39	18247
855.524	18418
855.658	18357
855.792	18334
855.926	18220
856.06	18281
856.194	18296
856.327	18064
856.461	18011
856.595	18171
856.729	18060
856.862	18216
856.996	18140
857.13	18159
857.263	18304
857.397	18171
857.53	18091
857.664	18155
857.797	18110
857.931	18079
858.064	18213
858.197	18201
858.331	18022
858.464	18034
858.597	17870
858.731	17931
858.864	17996
858.997	17992
859.13	17950
859.263	17992
859.396	18194
859.529	17980
859.662	17904
859.795	17870
859.928	17977
860.061	18007
860.194	18064
860.327	17882
860.46	17897
860.592	18041
860.725	18095
860.858	18064
860.99	17904
861.123	17737
861.256	17863
861.388	17893
861.521	18601
861.653	17813
861.786	17767
861.918	17752
862.05	17874
862.183	17832
862.315	17912
862.447	17988
862.58	17855
862.712	17805
862.844	17512
862.976	17680
863.108	17665
863.24	18125
863.372	17649
863.504	17604
863.636	17611
863.768	17657
863.9	17551
864.032	17482
864.164	17528
864.296	17638
864.428	17760
864.559	17653
864.691	17722
864.823	17634
864.954	17638
865.086	17672
865.217	17551
865.349	17482
865.48	17608
865.612	17436
865.743	17710
865.875	17604
866.006	17535
866.137	17493
866.269	17528
866.4	17471
866.531	17444
866.662	17520
866.793	17486
866.924	17551
867.055	17543
867.186	17493
867.317	17474
867.448	17482
867.579	17433
867.71	17322
867.841	17383
867.972	17455
868.103	17512
868.233	17440
868.364	17471
868.495	17512
868.625	17809
868.756	17885
868.886	17695
869.017	17893
869.147	17748
869.278	17927
869.408	17824
869.539	17745
869.669	17824
869.799	17779
869.929	17923
870.06	17832
870.19	18045
870.32	18102
870.45	18194
870.58	18125
870.71	18384
870.84	18380
870.97	18182
871.1	18266
871.23	18388
871.36	18380
871.489	18342
871.619	18395
871.749	18483
871.879	18448
872.008	18608
872.138	18536
872.267	18513
872.397	18509
872.526	18357
872.656	18327
872.785	18422
872.915	18604
873.044	18741
873.173	18585
873.303	18658
873.432	18806
873.561	18783
873.69	18802
873.819	18867
873.948	18798
874.077	18760
874.206	18814
874.335	18901
874.464	18951
874.593	19225
874.722	19152
874.851	19335
874.979	19282
875.108	19293
875.237	19301
875.365	19335
875.494	19381
875.623	19434
875.751	19567
875.88	19613
876.008	19601
876.136	19944
876.265	20058
876.393	20256
876.521	20237
876.65	20286
876.778	20282
876.906	20332
877.034	20259
877.162	20469
877.29	20442
877.418	20743
877.546	20712
877.674	20686
877.802	20944
877.93	21036
878.058	21165
878.185	21298
878.313	21675
878.441	22006
878.568	22341
878.696	23010
878.824	23707
878.951	24909
879.079	26355
879.206	28440
879.333	30471
879.461	32282
879.588	33344
879.715	33359
879.842	32469
879.97	30677
880.097	28382
880.224	26895
880.351	25662
880.478	24745
880.605	24133
880.732	23889
880.859	23756
880.986	23334
881.112	23334
881.239	23124
881.366	22934
881.493	22862
881.619	22752
881.746	22904
881.872	22786
881.999	22972
882.125	22927
882.252	23022
882.378	23033
882.505	23022
882.631	22873
882.757	22805
882.883	22801
883.01	22972
883.136	22881
883.262	22812
883.388	22675
883.514	22881
883.64	22991
883.766	22729
883.892	22630
884.018	22694
884.143	22927
884.269	22869
884.395	22645
884.52	22557
884.646	22573
884.772	22455
884.897	22443
885.023	22573
885.148	22668
885.274	22618
885.399	22653
885.524	22440
885.65	22261
885.775	22128
885.9	21937
886.025	21949
886.15	21808
886.275	21625
886.4	21264
886.525	21332
886.65	21161
886.775	20963
886.9	21024
887.025	21047
887.149	20796
887.274	20423
887.399	20400
887.523	20218
887.648	20187
887.773	20020
887.897	20065
888.021	20016
888.146	19803
888.27	19993
888.395	19871
888.519	19753
888.643	19864
888.767	19700
888.891	19609
889.015	19464
889.139	19468
889.263	19308
889.387	19297
889.511	19430
889.635	19316
889.759	19179
889.883	19221
890.006	19202
890.13	19194
890.254	18981
890.377	18951
890.501	18738
890.624	18658
890.748	18779
890.871	18597
890.995	18532
891.118	18460
891.241	18456
891.364	18441
891.488	18464
891.611	18388
891.734	18342
891.857	18361
891.98	18334
892.103	18441
892.226	18277
892.349	18239
892.471	18076
892.594	18163
892.717	18136
892.839	18057
892.962	18053
893.085	18095
893.207	17958
893.33	17847
893.452	17767
893.575	17988
893.697	17821
893.819	18041
893.941	18064
894.064	18019
894.186	17832
894.308	17649
894.43	17980
894.552	17980
894.674	17824
894.796	17714
894.918	17733
895.04	17596
895.161	17828
895.283	17748
895.405	17589
895.526	17710
895.648	17726
895.769	17615
895.891	17691
896.012	17661
896.134	17775
896.255	17668
896.376	17516
896.498	17592
896.619	17676
896.74	17558
896.861	17684
896.982	17863
897.103	17901
897.224	17786
897.345	17870
897.466	17722
897.587	17687
897.708	17809
897.828	17783
897.949	17661
898.07	17600
898.19	17779
898.311	17851
898.431	17668
898.552	17779
898.672	17798
898.792	17942
898.913	17691
899.033	17668
899.153	17562
899.273	17512
899.393	17482
899.513	17509
899.633	17630
899.753	17589
899.873	17501
899.993	17604
900.113	17459
900.232	17558
900.352	17398
900.472	17376
900.591	17364
900.711	17391
900.83	17345
900.95	17402
901.069	17406
901.189	17273
901.308	17098
901.427	16949
901.546	16965
901.665	16904
901.784	16938
901.904	16812
902.023	16698
902.141	16516
902.26	16394
902.379	16462
902.498	16440
902.617	16344
902.735	16371
902.854	16310
902.973	16268
903.091	16109
903.21	16086
903.328	16021
903.446	15991
903.565	15857
903.683	15918
903.801	15751
903.919	15816
904.038	15713
904.156	15614
904.274	15610
904.392	15629
904.51	15488
904.627	15584
904.745	15538
904.863	15553
904.981	15344
905.098	15291
905.216	15173
905.334	15264
905.451	15260
905.569	15241
905.686	15230
905.803	15157
905.921	14944
906.038	15119
906.155	15062
906.272	14921
906.389	14918
906.506	14773
906.623	14705
906.74	14807
906.857	14689
906.974	14598
907.091	14807
907.208	14914
907.324	14758
907.441	14621
907.557	14473
907.674	14385
907.79	14370
907.907	14389
908.023	14465
908.139	14423
908.256	14389
908.372	14370
908.488	14389
908.604	14214
908.72	14130
908.836	14168
908.952	14153
909.068	14199
909.184	14244
909.3	14199
909.415	14180
909.531	14180
909.647	13917
909.762	13928
909.878	13936
909.993	13894
910.108	13784
910.224	13940
910.339	13913
910.454	13708
910.57	13814
910.685	13639
910.8	13997
910.915	13814
911.03	13780
911.145	13518
911.259	13533
911.374	13567
911.489	13518
911.604	13396
911.718	13331
911.833	13274
911.947	13232
912.062	13122
912.176	13320
912.291	13244
912.405	13282
912.519	13453
912.633	13392
912.748	13403
912.862	13304
912.976	13091
913.09	12973
913.204	13080
913.318	13110
913.431	13339
913.545	13263
913.659	13198
913.772	13072
913.886	13012
914	12943
914.113	13126
914.226	13141
914.34	13023
914.453	12875
914.566	13080
914.68	12924
914.793	12897
914.906	12707
915.019	12722
915.132	12620
915.245	12741
915.358	12684
915.47	12722
915.583	12642
915.696	12700
915.809	12764
915.921	12859
916.034	12658
916.146	12627
916.259	12620
916.371	12715
916.483	12795
916.595	12673
916.708	12673
916.82	12642
916.932	12608
917.044	12612
917.156	12566
917.268	12483
917.38	12547
917.491	12460
917.603	12483
917.715	12509
917.826	12547
917.938	12407
918.049	12296
918.161	12448
918.272	12486
918.384	12452
918.495	12410
918.606	12148
918.717	12220
918.828	12304
918.939	12254
919.05	12083
919.161	12300
919.272	12057
919.383	12095
919.494	12296
919.604	12452
919.715	12254
919.826	12178
919.936	12148
920.047	12323
920.157	12163
920.267	12407
920.378	12190
920.488	12254
920.598	12464
920.708	12532
920.818	12388
920.928	12350
921.038	12582
921.148	12471
921.258	12163
921.368	12068
921.477	12034
921.587	11931
921.697	11882
921.806	12045
921.916	11908
922.025	11695
922.134	11718
922.244	11558
922.353	11619
922.462	11600
922.571	11501
922.68	11406
922.789	11315
922.898	11330
923.007	11242
923.116	11326
923.224	11406
923.333	11296
923.442	11178
923.55	11098
923.659	11181
923.767	11246
923.876	11102
923.984	11242
924.092	11140
924.201	11239
924.309	11170
924.417	11155
924.525	11124
924.633	11117
924.741	11897
924.849	10980
924.956	11121
925.064	10816
925.172	10771
925.279	10900
925.387	10946
925.494	10869
925.602	11003
925.709	10919
925.816	10828
925.924	10854
926.031	10869
926.138	10862
926.245	10862
926.352	10706
926.459	10961
926.566	11022
926.673	10812
926.779	10668
926.886	10672
926.993	10558
927.099	10558
927.206	10512
927.312	10550
927.419	10459
927.525	10573
927.631	10577
927.737	10558
927.843	10432
927.95	10265
928.056	10417
928.162	10382
928.267	10371
928.373	11045
928.479	10394
928.585	10310
928.69	10421
928.796	10489
928.901	10352
929.007	10249
929.112	10375
929.218	10295
929.323	10173
929.428	10227
929.533	10413
929.638	10097
929.743	10078
929.848	10192
929.953	10200
930.058	10059
930.163	9899
930.267	9949
930.372	10097
930.477	9911
930.581	10093
930.685	9960
930.79	9819
930.894	9899
930.998	9785
931.103	9979
931.207	9568
931.311	9515
931.415	9424
931.519	9294
931.623	9310
