Data from test_V78500241_1114.txt Node
Date: Fri Mar 25 14:41:28 CST 2022
User: usil
Spectrometer: V785-0024
Trigger mode: 0
Integration Time (sec): 4.000000E-1
Scans to average: 1
Nonlinearity correction enabled: false
Boxcar width: 0
Storing dark spectrum: false
XAxis mode: Wavelengths
Number of Pixels in Spectrum: 1024
>>>>>Begin Spectral Data<<<<<
801.071	22797
801.214	22516
801.356	22265
801.499	22158
801.641	22154
801.783	21876
801.926	22067
802.068	21937
802.211	21778
802.353	21800
802.496	21606
802.638	21519
802.78	21473
802.923	21428
803.065	21332
803.208	21332
803.35	21439
803.492	21408
803.635	21542
803.777	21264
803.919	21523
804.061	21675
804.204	21408
804.346	21397
804.488	21214
804.63	21325
804.773	21245
804.915	21287
805.057	21321
805.199	21291
805.341	21294
805.483	21447
805.626	21321
805.768	21272
805.91	21355
806.052	21329
806.194	21199
806.336	21454
806.478	21317
806.62	21310
806.762	21412
806.904	21568
807.046	21720
807.188	21587
807.33	21732
807.472	21747
807.614	21606
807.756	21618
807.898	21618
808.04	21500
808.182	21523
808.324	21663
808.465	21572
808.607	21797
808.749	22070
808.891	22173
809.033	22325
809.174	22082
809.316	21941
809.458	21819
809.6	21831
809.741	21949
809.883	21895
810.025	21930
810.166	21892
810.308	21949
810.45	21812
810.591	21717
810.733	21622
810.875	21591
811.016	21447
811.158	21374
811.299	21526
811.441	21572
811.582	21625
811.724	21481
811.865	21435
812.007	21625
812.148	21348
812.29	21549
812.431	21629
812.573	21728
812.714	21895
812.855	21953
812.997	21964
813.138	22006
813.279	22109
813.421	21991
813.562	21918
813.703	21816
813.845	21644
813.986	21416
814.127	21074
814.268	21108
814.41	21066
814.551	20963
814.692	21154
814.833	20956
814.974	20853
815.115	20990
815.256	20849
815.397	20834
815.539	20891
815.68	20735
815.821	20651
815.962	20876
816.103	20598
816.244	20701
816.385	20442
816.526	20461
816.666	20343
816.807	20161
816.948	20290
817.089	20450
817.23	20305
817.371	20111
817.512	20187
817.653	20168
817.793	20092
817.934	20065
818.075	20149
818.216	20164
818.356	20062
818.497	20096
818.638	19833
818.778	19860
818.919	19898
819.06	19753
819.2	20043
819.341	20084
819.481	20016
819.622	20157
819.762	20442
819.903	20389
820.043	20290
820.184	20195
820.324	20100
820.465	20180
820.605	20225
820.746	20176
820.886	20027
821.026	20157
821.167	20187
821.307	20202
821.447	20031
821.588	19917
821.728	19811
821.868	19715
822.008	19563
822.149	19422
822.289	19381
822.429	19343
822.569	19194
822.709	19304
822.849	19072
822.99	19027
823.13	18947
823.27	19015
823.41	18973
823.55	18852
823.69	18848
823.83	18932
823.97	18665
824.11	18631
824.25	18597
824.389	18608
824.529	18711
824.669	18669
824.809	18711
824.949	18677
825.089	18661
825.228	18627
825.368	18479
825.508	18475
825.648	18414
825.787	18490
825.927	18498
826.067	18498
826.206	18334
826.346	18498
826.485	18570
826.625	18418
826.765	18536
826.904	18319
827.044	18258
827.183	18228
827.323	18133
827.462	18239
827.601	18091
827.741	18174
827.88	18190
828.02	17999
828.159	18148
828.298	18083
828.437	18110
828.577	18148
828.716	18273
828.855	18064
828.994	17935
829.134	17866
829.273	18019
829.412	17840
829.551	17733
829.69	17809
829.829	17813
829.968	17897
830.107	17859
830.246	17927
830.385	17942
830.524	17798
830.663	17775
830.802	17600
830.941	17554
831.08	17547
831.219	17627
831.357	17570
831.496	17729
831.635	17558
831.774	17395
831.913	17414
832.051	17322
832.19	17353
832.329	17421
832.467	17178
832.606	17128
832.744	17113
832.883	17208
833.022	17162
833.16	17284
833.299	17189
833.437	17220
833.576	17315
833.714	17193
833.852	17326
833.991	17288
834.129	17349
834.267	17341
834.406	17140
834.544	17170
834.682	17216
834.821	17250
834.959	17433
835.097	17197
835.235	17410
835.373	17220
835.511	17227
835.65	17109
835.788	17102
835.926	17045
836.064	16938
836.202	17102
836.34	17147
836.478	17121
836.615	17132
836.753	17132
836.891	17265
837.029	17132
837.167	17124
837.305	17018
837.443	17006
837.58	16934
837.718	17029
837.856	17083
837.993	17056
838.131	17010
838.269	16885
838.406	17018
838.544	16862
838.681	16672
838.819	16649
838.956	16474
839.094	16516
839.231	16717
839.369	16683
839.506	16904
839.643	16793
839.781	16558
839.918	16550
840.055	16508
840.193	16466
840.33	16561
840.467	16508
840.604	16531
840.742	16793
840.879	16493
841.016	16493
841.153	16558
841.29	16660
841.427	16504
841.564	16599
841.701	16470
841.838	16481
841.975	16371
842.112	16424
842.249	16333
842.385	16238
842.522	16558
842.659	16318
842.796	16173
842.933	16344
843.069	16356
843.206	16371
843.343	16432
843.479	16379
843.616	16310
843.752	16188
843.889	16200
844.025	16204
844.162	16143
844.298	16169
844.435	16128
844.571	16059
844.708	16166
844.844	16268
844.98	16196
845.117	16211
845.253	16097
845.389	16112
845.525	16181
845.661	16238
845.798	16280
845.934	16318
846.07	16325
846.206	16314
846.342	16382
846.478	16078
846.614	15907
846.75	15713
846.886	15751
847.022	15762
847.158	15694
847.294	15720
847.429	15690
847.565	15717
847.701	15895
847.837	15389
847.972	15393
848.108	15477
848.244	15439
848.379	15291
848.515	15382
848.65	15287
848.786	15325
848.921	15325
849.057	15374
849.192	15439
849.328	15302
849.463	15233
849.598	15287
849.734	15104
849.869	15089
850.004	15070
850.14	15123
850.275	15093
850.41	15036
850.545	14979
850.68	14994
850.815	15093
850.95	14975
851.085	15131
851.22	15119
851.355	15009
851.49	15032
851.625	14982
851.76	15055
851.895	14952
852.03	14952
852.165	15039
852.299	15104
852.434	15047
852.569	15001
852.703	14967
852.838	15150
852.973	15142
853.107	15203
853.242	14902
853.376	15024
853.511	14819
853.645	14857
853.78	14963
853.914	14979
854.048	14861
854.183	14769
854.317	14826
854.451	15024
854.585	14811
854.72	14899
854.854	14990
854.988	14842
855.122	14921
855.256	14857
855.39	14849
855.524	14948
855.658	14941
855.792	15058
855.926	14925
856.06	15032
856.194	15036
856.327	14975
856.461	14826
856.595	14849
856.729	14823
856.862	14914
856.996	14937
857.13	15028
857.263	14899
857.397	15070
857.53	14872
857.664	14960
857.797	14933
857.931	14986
858.064	14971
858.197	15047
858.331	14857
858.464	14891
858.597	14720
858.731	14891
858.864	14880
858.997	14952
859.13	14826
859.263	14906
859.396	15017
859.529	14864
859.662	14941
859.795	14788
859.928	15028
860.061	15077
860.194	15085
860.327	14944
860.46	14929
860.592	15024
860.725	14998
860.858	15062
860.99	14906
861.123	14788
861.256	14670
861.388	14918
861.521	15614
861.653	14739
861.786	14746
861.918	14842
862.05	14868
862.183	14906
862.315	14754
862.447	14941
862.58	14830
862.712	14602
862.844	14583
862.976	14800
863.108	14655
863.24	15169
863.372	14625
863.504	14640
863.636	14613
863.768	14663
863.9	14629
864.032	14522
864.164	14663
864.296	14686
864.428	14807
864.559	14788
864.691	14682
864.823	14712
864.954	14746
865.086	14651
865.217	14571
865.349	14583
865.48	14621
865.612	14651
865.743	14785
865.875	14602
866.006	14621
866.137	14651
866.269	14686
866.4	14545
866.531	14667
866.662	14636
866.793	14575
866.924	14606
867.055	14682
867.186	14579
867.317	14579
867.448	14602
867.579	14674
867.71	14522
867.841	14503
867.972	14598
868.103	14644
868.233	14610
868.364	14636
868.495	14743
868.625	14906
868.756	14971
868.886	14838
869.017	14864
869.147	15028
869.278	15009
869.408	14880
869.539	14872
869.669	14902
869.799	14910
869.929	15013
870.06	14933
870.19	15188
870.32	15142
870.45	15264
870.58	15249
870.71	15344
870.84	15401
870.97	15287
871.1	15157
871.23	15397
871.36	15496
871.489	15363
871.619	15443
871.749	15408
871.879	15481
872.008	15694
872.138	15519
872.267	15431
872.397	15359
872.526	15306
872.656	15306
872.785	15378
872.915	15587
873.044	15485
873.173	15572
873.303	15523
873.432	15614
873.561	15648
873.69	15485
873.819	15534
873.948	15591
874.077	15549
874.206	15526
874.335	15500
874.464	15679
874.593	15789
874.722	15797
874.851	15857
874.979	15949
875.108	15991
875.237	15637
875.365	15804
875.494	15762
875.623	15888
875.751	15755
875.88	15934
876.008	16063
876.136	16013
876.265	16268
876.393	16413
876.521	16363
876.65	16295
876.778	16310
876.906	16185
877.034	16226
877.162	16173
877.29	16105
877.418	16249
877.546	16196
877.674	16287
877.802	16238
877.93	16303
878.058	16196
878.185	16207
878.313	16322
878.441	16257
878.568	16169
878.696	16257
878.824	16310
878.951	16443
879.079	16592
879.206	16637
879.333	16672
879.461	16478
879.588	16455
879.715	16687
879.842	16698
879.97	16424
880.097	16234
880.224	16143
880.351	16299
880.478	16246
880.605	16135
880.732	16200
880.859	16402
880.986	16116
881.112	16188
881.239	15968
881.366	15869
881.493	15876
881.619	15838
881.746	15770
881.872	15816
881.999	15728
882.125	15785
882.252	15880
882.378	15816
882.505	15884
882.631	15793
882.757	15595
882.883	15610
883.01	15549
883.136	15526
883.262	15553
883.388	15412
883.514	15534
883.64	15610
883.766	15698
883.892	15408
884.018	15477
884.143	15572
884.269	15774
884.395	15389
884.52	15313
884.646	15291
884.772	15184
884.897	15222
885.023	15298
885.148	15447
885.274	15485
885.399	15424
885.524	15329
885.65	15291
885.775	15344
885.9	15317
886.025	15454
886.15	15321
886.275	15291
886.4	15199
886.525	15211
886.65	15249
886.775	15256
886.9	15424
887.025	15496
887.149	15283
887.274	15165
887.399	15058
887.523	15005
887.648	15013
887.773	15066
887.897	15157
888.021	15142
888.146	15081
888.27	15100
888.395	15176
888.519	15180
888.643	15138
888.767	15161
888.891	15032
889.015	14944
889.139	14971
889.263	14861
889.387	15032
889.511	15180
889.635	15119
889.759	14979
889.883	14868
890.006	14971
890.13	15070
890.254	14826
890.377	14906
890.501	14792
890.624	14773
890.748	14807
890.871	14598
890.995	14533
891.118	14621
891.241	14602
891.364	14621
891.488	14765
891.611	14583
891.734	14560
891.857	14735
891.98	14644
892.103	14777
892.226	14785
892.349	14606
892.471	14438
892.594	14648
892.717	14667
892.839	14545
892.962	14590
893.085	14743
893.207	14625
893.33	14461
893.452	14476
893.575	14655
893.697	14571
893.819	14754
893.941	14804
894.064	14785
894.186	14629
894.308	14533
894.43	14762
894.552	14830
894.674	14754
894.796	14587
894.918	14625
895.04	14545
895.161	14792
895.283	14842
895.405	14644
895.526	14686
895.648	14701
895.769	14731
895.891	14804
896.012	14743
896.134	14819
896.255	14724
896.376	14724
896.498	14826
896.619	14826
896.74	14815
896.861	14857
896.982	15074
897.103	15214
897.224	15070
897.345	14975
897.466	14937
897.587	14948
897.708	15089
897.828	15119
897.949	14975
898.07	14880
898.19	14975
898.311	15195
898.431	15100
898.552	15093
898.672	15310
898.792	15199
898.913	15188
899.033	15058
899.153	14982
899.273	14891
899.393	14876
899.513	14906
899.633	14975
899.753	14956
899.873	14872
899.993	14902
900.113	14986
900.232	15032
900.352	14975
900.472	14788
900.591	14705
900.711	14864
900.83	14739
900.95	14910
901.069	14971
901.189	14807
901.308	14503
901.427	14374
901.546	14446
901.665	14412
901.784	14522
901.904	14404
902.023	14244
902.141	14126
902.26	14119
902.379	14084
902.498	13993
902.617	13974
902.735	14092
902.854	13913
902.973	14046
903.091	13780
903.21	13761
903.328	13708
903.446	13715
903.565	13537
903.683	13567
903.801	13518
903.919	13571
904.038	13590
904.156	13331
904.274	13476
904.392	13384
904.51	13304
904.627	13285
904.745	13457
904.863	13411
904.981	13141
905.098	13057
905.216	13110
905.334	13133
905.451	13012
905.569	13118
905.686	13095
905.803	13099
905.921	12928
906.038	13000
906.155	12905
906.272	12791
906.389	12863
906.506	12738
906.623	12654
906.74	12585
906.857	12597
906.974	12551
907.091	12703
907.208	12821
907.324	12749
907.441	12639
907.557	12441
907.674	12418
907.79	12361
907.907	12369
908.023	12475
908.139	12498
908.256	12429
908.372	12327
908.488	12315
908.604	12220
908.72	12091
908.836	12163
908.952	12197
909.068	12171
909.184	12262
909.3	12159
909.415	12175
909.531	12232
909.647	11882
909.762	12064
909.878	11916
909.993	11935
910.108	11927
910.224	11878
910.339	11958
910.454	11851
910.57	11901
910.685	11703
910.8	12011
910.915	11965
911.03	11748
911.145	11649
911.259	11619
911.374	11691
911.489	11585
911.604	11497
911.718	11364
911.833	11383
911.947	11265
912.062	11265
912.176	11383
912.291	11391
912.405	11486
912.519	11623
912.633	11573
912.748	11497
912.862	11353
912.976	11296
913.09	11113
913.204	11296
913.318	11341
913.431	11356
913.545	11429
913.659	11284
913.772	11288
913.886	11159
914	11060
914.113	11299
914.226	11288
914.34	11212
914.453	11098
914.566	11189
914.68	11086
914.793	11064
914.906	10850
915.019	10889
915.132	10816
915.245	10877
915.358	10881
915.47	10942
915.583	10904
915.696	10889
915.809	10984
915.921	10980
916.034	10858
916.146	10805
916.259	10763
916.371	10812
916.483	10896
916.595	10812
916.708	10809
916.82	10816
916.932	10759
917.044	10668
917.156	10793
917.268	10679
917.38	10691
917.491	10607
917.603	10694
917.715	10767
917.826	10847
917.938	10698
918.049	10588
918.161	10733
918.272	10812
918.384	10774
918.495	10637
918.606	10588
918.717	10478
918.828	10615
918.939	10599
919.05	10470
919.161	10542
919.272	10402
919.383	10382
919.494	10672
919.604	10797
919.715	10573
919.826	10485
919.936	10508
920.047	10603
920.157	10599
920.267	10759
920.378	10611
920.488	10500
920.598	10812
920.708	10885
920.818	10790
920.928	10740
921.038	10904
921.148	10850
921.258	10546
921.368	10542
921.477	10360
921.587	10462
921.697	10375
921.806	10447
921.916	10348
922.025	10211
922.134	10071
922.244	10128
922.353	10177
922.462	9979
922.571	9899
922.68	9766
922.789	9823
922.898	9800
923.007	9701
923.116	9854
923.224	9766
923.333	9736
923.442	9709
923.55	9690
923.659	9610
923.767	9675
923.876	9671
923.984	9755
924.092	9591
924.201	9633
924.309	9705
924.417	9648
924.525	9564
924.633	9629
924.741	10443
924.849	9473
924.956	9587
925.064	9538
925.172	9359
925.279	9378
925.387	9416
925.494	9412
925.602	9488
925.709	9526
925.816	9351
925.924	9447
926.031	9477
926.138	9370
926.245	9496
926.352	9332
926.459	9507
926.566	9549
926.673	9443
926.779	9355
926.886	9272
926.993	9146
927.099	9173
927.206	9032
927.312	9036
927.419	9192
927.525	9165
927.631	9142
927.737	8986
927.843	9005
927.95	8887
928.056	9032
928.162	9051
928.267	9085
928.373	9671
928.479	9100
928.585	8853
928.69	8937
928.796	9062
928.901	8914
929.007	8796
929.112	8960
929.218	8910
929.323	8830
929.428	8944
929.533	8986
929.638	8830
929.743	8830
929.848	8937
929.953	8830
930.058	8705
930.163	8625
930.267	8667
930.372	8705
930.477	8579
930.581	8785
930.685	8682
930.79	8598
930.894	8583
930.998	8537
931.103	8712
931.207	8301
931.311	8221
931.415	8256
931.519	8024
931.623	7997
