Data from test_V78500241_2005.txt Node
Date: Fri Mar 25 14:47:40 CST 2022
User: usil
Spectrometer: V785-0024
Trigger mode: 0
Integration Time (sec): 4.000000E-1
Scans to average: 1
Nonlinearity correction enabled: false
Boxcar width: 0
Storing dark spectrum: false
XAxis mode: Wavelengths
Number of Pixels in Spectrum: 1024
>>>>>Begin Spectral Data<<<<<
801.071	22101
801.214	22025
801.356	21823
801.499	21675
801.641	21462
801.783	21485
801.926	21511
802.068	21348
802.211	21275
802.353	21294
802.496	21165
802.638	21055
802.78	20929
802.923	20804
803.065	20758
803.208	20735
803.35	20853
803.492	20902
803.635	21028
803.777	20826
803.919	20891
804.061	21104
804.204	20990
804.346	20781
804.488	20750
804.63	20769
804.773	20625
804.915	20785
805.057	20895
805.199	20621
805.341	20754
805.483	20906
805.626	20811
805.768	20636
805.91	20708
806.052	20720
806.194	20785
806.336	20746
806.478	20720
806.62	20689
806.762	20807
806.904	20944
807.046	21138
807.188	21066
807.33	21055
807.472	21089
807.614	20929
807.756	21100
807.898	20826
808.04	20712
808.182	20819
808.324	20693
808.465	20834
808.607	21009
808.749	21112
808.891	21112
809.033	21241
809.174	21161
809.316	21058
809.458	21036
809.6	21119
809.741	21169
809.883	21119
810.025	21348
810.166	21230
810.308	21264
810.45	21146
810.591	20986
810.733	20948
810.875	20811
811.016	20754
811.158	20792
811.299	20960
811.441	20937
811.582	20963
811.724	20883
811.865	20910
812.007	20887
812.148	20872
812.29	20925
812.431	21028
812.573	21226
812.714	21241
812.855	21458
812.997	21561
813.138	21648
813.279	21447
813.421	21355
813.562	21241
813.703	21272
813.845	20994
813.986	20804
814.127	20598
814.268	20503
814.41	20507
814.551	20419
814.692	20419
814.833	20419
814.974	20381
815.115	20282
815.256	20221
815.397	20309
815.539	20218
815.68	20172
815.821	20172
815.962	20149
816.103	20065
816.244	19978
816.385	19864
816.526	19902
816.666	19719
816.807	19548
816.948	19731
817.089	19666
817.23	19510
817.371	19597
817.512	19529
817.653	19457
817.793	19525
817.934	19590
818.075	19571
818.216	19662
818.356	19441
818.497	19396
818.638	19190
818.778	19164
818.919	19084
819.06	19217
819.2	19403
819.341	19472
819.481	19441
819.622	19434
819.762	19761
819.903	19708
820.043	19639
820.184	19605
820.324	19575
820.465	19632
820.605	19563
820.746	19506
820.886	19445
821.026	19422
821.167	19415
821.307	19506
821.447	19449
821.588	19407
821.728	19209
821.868	19080
822.008	18985
822.149	19091
822.289	18901
822.429	18639
822.569	18593
822.709	18597
822.849	18414
822.99	18395
823.13	18346
823.27	18342
823.41	18346
823.55	18182
823.69	18285
823.83	18243
823.97	18098
824.11	17973
824.25	18011
824.389	18057
824.529	18121
824.669	17984
824.809	18038
824.949	18053
825.089	18015
825.228	17939
825.368	17775
825.508	17794
825.648	17756
825.787	17828
825.927	17893
826.067	17817
826.206	17821
826.346	17870
826.485	17874
826.625	17760
826.765	17931
826.904	17733
827.044	17680
827.183	17452
827.323	17478
827.462	17543
827.601	17455
827.741	17524
827.88	17505
828.02	17330
828.159	17387
828.298	17421
828.437	17608
828.577	17467
828.716	17611
828.855	17444
828.994	17242
829.134	17318
829.273	17254
829.412	17223
829.551	17189
829.69	17261
829.829	17212
829.968	17379
830.107	17296
830.246	17231
830.385	17185
830.524	17166
830.663	17105
830.802	17029
830.941	16809
831.08	16824
831.219	16847
831.357	16900
831.496	17117
831.635	16854
831.774	16831
831.913	16782
832.051	16691
832.19	16607
832.329	16611
832.467	16470
832.606	16554
832.744	16478
832.883	16527
833.022	16447
833.16	16462
833.299	16771
833.437	16497
833.576	16725
833.714	16565
833.852	16550
833.991	16637
834.129	16645
834.267	16592
834.406	16519
834.544	16653
834.682	16550
834.821	16611
834.959	16778
835.097	16565
835.235	16672
835.373	16596
835.511	16580
835.65	16527
835.788	16451
835.926	16402
836.064	16363
836.202	16421
836.34	16637
836.478	16653
836.615	16485
836.753	16523
836.891	16615
837.029	16504
837.167	16527
837.305	16542
837.443	16428
837.58	16417
837.718	16516
837.856	16394
837.993	16196
838.131	16451
838.269	16322
838.406	16337
838.544	16367
838.681	16143
838.819	16169
838.956	16006
839.094	15945
839.231	16006
839.369	16013
839.506	16375
839.643	16253
839.781	16006
839.918	15876
840.055	15994
840.193	15975
840.33	15873
840.467	15983
840.604	15972
840.742	16257
840.879	15812
841.016	15846
841.153	15869
841.29	16048
841.427	15960
841.564	15983
841.701	15876
841.838	15895
841.975	15873
842.112	15865
842.249	15751
842.385	15770
842.522	15915
842.659	15793
842.796	15671
842.933	15770
843.069	15618
843.206	15717
843.343	15857
843.479	15770
843.616	15842
843.752	15496
843.889	15523
844.025	15686
844.162	15450
844.298	15523
844.435	15557
844.571	15485
844.708	15625
844.844	15663
844.98	15637
845.117	15717
845.253	15450
845.389	15397
845.525	15492
845.661	15359
845.798	15275
845.934	15393
846.07	15241
846.206	15317
846.342	15374
846.478	15313
846.614	15154
846.75	14971
846.886	15032
847.022	15199
847.158	15154
847.294	15093
847.429	15097
847.565	15131
847.701	15401
847.837	14830
847.972	14765
848.108	14887
848.244	14941
848.379	14720
848.515	14640
848.65	14674
848.786	14720
848.921	14781
849.057	14773
849.192	14735
849.328	14644
849.463	14674
849.598	14667
849.734	14598
849.869	14503
850.004	14484
850.14	14522
850.275	14473
850.41	14389
850.545	14366
850.68	14347
850.815	14495
850.95	14454
851.085	14552
851.22	14457
851.355	14431
851.49	14427
851.625	14343
851.76	14358
851.895	14343
852.03	14290
852.165	14396
852.299	14393
852.434	14590
852.569	14503
852.703	14492
852.838	14526
852.973	14697
853.107	14575
853.242	14465
853.376	14408
853.511	14153
853.645	14248
853.78	14381
853.914	14404
854.048	14343
854.183	14259
854.317	14320
854.451	14526
854.585	14313
854.72	14339
854.854	14431
854.988	14252
855.122	14282
855.256	14218
855.39	14290
855.524	14389
855.658	14256
855.792	14225
855.926	14415
856.06	14328
856.194	14461
856.327	14225
856.461	14347
856.595	14290
856.729	14286
856.862	14434
856.996	14385
857.13	14400
857.263	14374
857.397	14473
857.53	14358
857.664	14434
857.797	14377
857.931	14419
858.064	14400
858.197	14370
858.331	14301
858.464	14290
858.597	14176
858.731	14282
858.864	14298
858.997	14210
859.13	14324
859.263	14317
859.396	14347
859.529	14358
859.662	14305
859.795	14259
859.928	14339
860.061	14423
860.194	14484
860.327	14347
860.46	14419
860.592	14473
860.725	14434
860.858	14442
860.99	14294
861.123	14305
861.256	14286
861.388	14328
861.521	15036
861.653	14233
861.786	14145
861.918	14248
862.05	14286
862.183	14168
862.315	14244
862.447	14355
862.58	14271
862.712	14103
862.844	14069
862.976	14142
863.108	14081
863.24	14385
863.372	14062
863.504	14119
863.636	14065
863.768	14199
863.9	14020
864.032	14005
864.164	14115
864.296	14168
864.428	14263
864.559	14161
864.691	14191
864.823	14153
864.954	14111
865.086	14130
865.217	14005
865.349	14069
865.48	14149
865.612	14069
865.743	14244
865.875	14077
866.006	14016
866.137	14088
866.269	14050
866.4	14069
866.531	14043
866.662	14096
866.793	13993
866.924	14084
867.055	14119
867.186	14081
867.317	14012
867.448	13974
867.579	14092
867.71	13997
867.841	14027
867.972	14176
868.103	14157
868.233	14058
868.364	14035
868.495	14084
868.625	14210
868.756	14362
868.886	14172
869.017	14415
869.147	14377
869.278	14431
869.408	14305
869.539	14286
869.669	14476
869.799	14396
869.929	14450
870.06	14476
870.19	14613
870.32	14583
870.45	14632
870.58	14693
870.71	14697
870.84	14735
870.97	14735
871.1	14762
871.23	14933
871.36	14956
871.489	14830
871.619	14883
871.749	14868
871.879	14925
872.008	14971
872.138	14902
872.267	14834
872.397	14804
872.526	14697
872.656	14716
872.785	14838
872.915	14979
873.044	15089
873.173	14914
873.303	15013
873.432	14944
873.561	15070
873.69	14864
873.819	14914
873.948	15104
874.077	15013
874.206	14880
874.335	15085
874.464	15127
874.593	15226
874.722	15214
874.851	15340
874.979	15408
875.108	15317
875.237	15214
875.365	15230
875.494	15317
875.623	15462
875.751	15218
875.88	15405
876.008	15515
876.136	15568
876.265	15663
876.393	15915
876.521	15762
876.65	15873
876.778	15743
876.906	15667
877.034	15587
877.162	15606
877.29	15667
877.418	15751
877.546	15728
877.674	15557
877.802	15686
877.93	15698
878.058	15705
878.185	15595
878.313	15660
878.441	15671
878.568	15580
878.696	15614
878.824	15739
878.951	15819
879.079	15873
879.206	16051
879.333	15899
879.461	15717
879.588	15808
879.715	15827
879.842	16082
879.97	15793
880.097	15599
880.224	15576
880.351	15618
880.478	15641
880.605	15572
880.732	15481
880.859	15755
880.986	15595
881.112	15591
881.239	15439
881.366	15313
881.493	15252
881.619	15180
881.746	15173
881.872	15233
881.999	15097
882.125	15127
882.252	15218
882.378	15268
882.505	15321
882.631	15260
882.757	14975
882.883	15104
883.01	15066
883.136	14933
883.262	14948
883.388	14834
883.514	15017
883.64	15138
883.766	15032
883.892	14880
884.018	14815
884.143	15062
884.269	15058
884.395	14705
884.52	14621
884.646	14735
884.772	14640
884.897	14545
885.023	14769
885.148	14868
885.274	14925
885.399	14708
885.524	14743
885.65	14739
885.775	14819
885.9	14674
886.025	14826
886.15	14743
886.275	14693
886.4	14625
886.525	14651
886.65	14678
886.775	14640
886.9	14872
887.025	14853
887.149	14754
887.274	14602
887.399	14568
887.523	14454
887.648	14518
887.773	14396
887.897	14659
888.021	14564
888.146	14454
888.27	14727
888.395	14598
888.519	14636
888.643	14606
888.767	14598
888.891	14552
889.015	14438
889.139	14469
889.263	14400
889.387	14621
889.511	14575
889.635	14621
889.759	14370
889.883	14374
890.006	14461
890.13	14621
890.254	14301
890.377	14358
890.501	14267
890.624	14248
890.748	14233
890.871	14183
890.995	14065
891.118	14031
891.241	14081
891.364	14111
891.488	14252
891.611	14077
891.734	14126
891.857	14202
891.98	14206
892.103	14199
892.226	14172
892.349	14134
892.471	13997
892.594	14126
892.717	14084
892.839	14103
892.962	14168
893.085	14199
893.207	14084
893.33	14020
893.452	14054
893.575	14176
893.697	14111
893.819	14282
893.941	14313
894.064	14298
894.186	14100
894.308	14039
894.43	14191
894.552	14358
894.674	14248
894.796	14107
894.918	14191
895.04	14195
895.161	14271
895.283	14202
895.405	14191
895.526	14252
895.648	14202
895.769	14271
895.891	14328
896.012	14362
896.134	14313
896.255	14286
896.376	14313
896.498	14244
896.619	14309
896.74	14305
896.861	14309
896.982	14678
897.103	14826
897.224	14587
897.345	14579
897.466	14503
897.587	14537
897.708	14823
897.828	14587
897.949	14590
898.07	14427
898.19	14484
898.311	14705
898.431	14564
898.552	14655
898.672	14727
898.792	14686
898.913	14807
899.033	14636
899.153	14526
899.273	14393
899.393	14419
899.513	14533
899.633	14454
899.753	14571
899.873	14499
899.993	14606
900.113	14503
900.232	14518
900.352	14484
900.472	14362
900.591	14332
900.711	14370
900.83	14206
900.95	14404
901.069	14438
901.189	14271
901.308	14005
901.427	14024
901.546	14092
901.665	14088
901.784	14054
901.904	13909
902.023	13803
902.141	13616
902.26	13613
902.379	13632
902.498	13712
902.617	13578
902.735	13609
902.854	13620
902.973	13506
903.091	13373
903.21	13244
903.328	13293
903.446	13202
903.565	13217
903.683	13183
903.801	13072
903.919	13187
904.038	13217
904.156	12970
904.274	13019
904.392	13019
904.51	12954
904.627	13008
904.745	13042
904.863	13031
904.981	12867
905.098	12646
905.216	12681
905.334	12711
905.451	12719
905.569	12696
905.686	12749
905.803	12662
905.921	12502
906.038	12623
906.155	12502
906.272	12445
906.389	12467
906.506	12304
906.623	12372
906.74	12213
906.857	12216
906.974	12201
907.091	12353
907.208	12319
907.324	12342
907.441	12235
907.557	12053
907.674	11931
907.79	11893
907.907	11969
908.023	12114
908.139	12038
908.256	12045
908.372	11954
908.488	11939
908.604	11840
908.72	11828
908.836	11790
908.952	11737
909.068	11805
909.184	11923
909.3	11764
909.415	11866
909.531	11809
909.647	11570
909.762	11573
909.878	11512
909.993	11573
910.108	11573
910.224	11570
910.339	11535
910.454	11429
910.57	11349
910.685	11315
910.8	11608
910.915	11490
911.03	11421
911.145	11273
911.259	11303
911.374	11254
911.489	11280
911.604	11151
911.718	10987
911.833	11075
911.947	10850
912.062	10854
912.176	10991
912.291	10995
912.405	10999
912.519	11181
912.633	11132
912.748	11113
912.862	10968
912.976	10904
913.09	10797
913.204	10877
913.318	10900
913.431	10946
913.545	11022
913.659	10980
913.772	10930
913.886	10778
914	10771
914.113	10824
914.226	10839
914.34	10831
914.453	10694
914.566	10801
914.68	10816
914.793	10675
914.906	10405
915.019	10447
915.132	10443
915.245	10451
915.358	10535
915.47	10550
915.583	10466
915.696	10527
915.809	10664
915.921	10649
916.034	10493
916.146	10428
916.259	10421
916.371	10508
916.483	10519
916.595	10470
916.708	10470
916.82	10405
916.932	10329
917.044	10409
917.156	10413
917.268	10352
917.38	10363
917.491	10344
917.603	10371
917.715	10459
917.826	10455
917.938	10356
918.049	10242
918.161	10341
918.272	10459
918.384	10493
918.495	10352
918.606	10223
918.717	10150
918.828	10169
918.939	10318
919.05	10059
919.161	10227
919.272	9968
919.383	10082
919.494	10261
919.604	10405
919.715	10196
919.826	10257
919.936	10196
920.047	10268
920.157	10276
920.267	10462
920.378	10268
920.488	10200
920.598	10398
920.708	10561
920.818	10493
920.928	10493
921.038	10611
921.148	10580
921.258	10363
921.368	10143
921.477	10112
921.587	10101
921.697	9930
921.806	10109
921.916	9998
922.025	9907
922.134	9797
922.244	9759
922.353	9899
922.462	9622
922.571	9629
922.68	9458
922.789	9500
922.898	9466
923.007	9386
923.116	9500
923.224	9447
923.333	9496
923.442	9443
923.55	9386
923.659	9393
923.767	9439
923.876	9313
923.984	9416
924.092	9294
924.201	9363
924.309	9439
924.417	9340
924.525	9344
924.633	9317
924.741	10158
924.849	9161
924.956	9340
925.064	9142
925.172	9055
925.279	9112
925.387	9176
925.494	9116
925.602	9195
925.709	9291
925.816	9097
925.924	9279
926.031	9245
926.138	9211
926.245	9184
926.352	9013
926.459	9233
926.566	9298
926.673	9081
926.779	9013
926.886	8990
926.993	8868
927.099	8826
927.206	8807
927.312	8826
927.419	8941
927.525	8864
927.631	8861
927.737	8815
927.843	8727
927.95	8644
928.056	8708
928.162	8750
928.267	8887
928.373	9435
928.479	8864
928.585	8636
928.69	8705
928.796	8769
928.901	8724
929.007	8492
929.112	8682
929.218	8625
929.323	8526
929.428	8560
929.533	8716
929.638	8495
929.743	8537
929.848	8644
929.953	8560
930.058	8469
930.163	8298
930.267	8343
930.372	8431
930.477	8355
930.581	8541
930.685	8347
930.79	8294
930.894	8317
930.998	8248
931.103	8374
931.207	8119
931.311	8069
931.415	7898
931.519	7772
931.623	7818
