Data from test_V78500241_3438.txt Node
Date: Fri Mar 25 14:57:39 CST 2022
User: usil
Spectrometer: V785-0024
Trigger mode: 0
Integration Time (sec): 4.000000E-1
Scans to average: 1
Nonlinearity correction enabled: false
Boxcar width: 0
Storing dark spectrum: false
XAxis mode: Wavelengths
Number of Pixels in Spectrum: 1024
>>>>>Begin Spectral Data<<<<<
801.071	21819
801.214	21842
801.356	21488
801.499	21435
801.641	21283
801.783	21283
801.926	21306
802.068	21279
802.211	21104
802.353	21032
802.496	20857
802.638	20781
802.78	20720
802.923	20678
803.065	20518
803.208	20571
803.35	20590
803.492	20781
803.635	20727
803.777	20625
803.919	20674
804.061	21036
804.204	20640
804.346	20568
804.488	20518
804.63	20575
804.773	20393
804.915	20549
805.057	20602
805.199	20473
805.341	20549
805.483	20689
805.626	20514
805.768	20480
805.91	20499
806.052	20583
806.194	20461
806.336	20746
806.478	20537
806.62	20579
806.762	20575
806.904	20693
807.046	21047
807.188	20743
807.33	20899
807.472	20830
807.614	20811
807.756	20807
807.898	20530
808.04	20629
808.182	20545
808.324	20705
808.465	20686
808.607	20807
808.749	20921
808.891	20842
809.033	21005
809.174	20895
809.316	20765
809.458	20918
809.6	20925
809.741	20956
809.883	20960
810.025	20956
810.166	21024
810.308	21017
810.45	21100
810.591	20838
810.733	20682
810.875	20781
811.016	20602
811.158	20484
811.299	20724
811.441	20792
811.582	20750
811.724	20602
811.865	20530
812.007	20613
812.148	20575
812.29	20602
812.431	20750
812.573	20864
812.714	20994
812.855	21237
812.997	21272
813.138	21412
813.279	21306
813.421	21135
813.562	21051
813.703	20925
813.845	20765
813.986	20473
814.127	20225
814.268	20199
814.41	20157
814.551	20153
814.692	20309
814.833	20092
814.974	20164
815.115	20149
815.256	20058
815.397	19993
815.539	19974
815.68	20024
815.821	19822
815.962	19959
816.103	20005
816.244	19715
816.385	19685
816.526	19666
816.666	19514
816.807	19354
816.948	19411
817.089	19476
817.23	19354
817.371	19240
817.512	19293
817.653	19289
817.793	19278
817.934	19358
818.075	19335
818.216	19362
818.356	19179
818.497	19103
818.638	18947
818.778	18939
818.919	19019
819.06	19061
819.2	19133
819.341	19194
819.481	19263
819.622	19327
819.762	19430
819.903	19419
820.043	19403
820.184	19187
820.324	19354
820.465	19373
820.605	19263
820.746	19324
820.886	19080
821.026	19232
821.167	19247
821.307	19236
821.447	19156
821.588	19095
821.728	18989
821.868	18977
822.008	18650
822.149	18825
822.289	18532
822.429	18448
822.569	18437
822.709	18327
822.849	18224
822.99	18224
823.13	18197
823.27	18186
823.41	18057
823.55	18053
823.69	17977
823.83	18098
823.97	17802
824.11	17840
824.25	17741
824.389	17847
824.529	17794
824.669	17794
824.809	17946
824.949	17840
825.089	17783
825.228	17707
825.368	17627
825.508	17604
825.648	17554
825.787	17558
825.927	17627
826.067	17528
826.206	17558
826.346	17532
826.485	17596
826.625	17440
826.765	17630
826.904	17566
827.044	17322
827.183	17296
827.323	17227
827.462	17387
827.601	17277
827.741	17269
827.88	17216
828.02	17181
828.159	17151
828.298	17216
828.437	17208
828.577	17284
828.716	17376
828.855	17166
828.994	16991
829.134	17025
829.273	16965
829.412	17029
829.551	16915
829.69	16987
829.829	17094
829.968	17113
830.107	17041
830.246	17094
830.385	17071
830.524	16934
830.663	16839
830.802	16801
830.941	16675
831.08	16653
831.219	16820
831.357	16736
831.496	16896
831.635	16577
831.774	16550
831.913	16497
832.051	16451
832.19	16360
832.329	16550
832.467	16394
832.606	16295
832.744	16303
832.883	16276
833.022	16322
833.16	16375
833.299	16363
833.437	16447
833.576	16485
833.714	16390
833.852	16497
833.991	16413
834.129	16462
834.267	16363
834.406	16402
834.544	16436
834.682	16432
834.821	16485
834.959	16645
835.097	16333
835.235	16641
835.373	16508
835.511	16497
835.65	16356
835.788	16398
835.926	16196
836.064	16173
836.202	16162
836.34	16474
836.478	16451
836.615	16238
836.753	16371
836.891	16474
837.029	16325
837.167	16352
837.305	16303
837.443	16257
837.58	16223
837.718	16295
837.856	16284
837.993	16215
838.131	16249
838.269	16158
838.406	16112
838.544	16078
838.681	15972
838.819	15915
838.956	15869
839.094	15698
839.231	15800
839.369	15899
839.506	16219
839.643	15953
839.781	15736
839.918	15701
840.055	15762
840.193	15751
840.33	15694
840.467	15778
840.604	15827
840.742	16093
840.879	15679
841.016	15606
841.153	15667
841.29	15895
841.427	15774
841.564	15816
841.701	15835
841.838	15720
841.975	15656
842.112	15637
842.249	15618
842.385	15477
842.522	15705
842.659	15568
842.796	15595
842.933	15610
843.069	15595
843.206	15477
843.343	15572
843.479	15603
843.616	15511
843.752	15393
843.889	15397
844.025	15507
844.162	15336
844.298	15496
844.435	15291
844.571	15252
844.708	15313
844.844	15557
844.98	15492
845.117	15424
845.253	15275
845.389	15188
845.525	15351
845.661	15359
845.798	15108
845.934	15249
846.07	15047
846.206	15252
846.342	15279
846.478	15188
846.614	14887
846.75	14971
846.886	14864
847.022	14933
847.158	15001
847.294	14944
847.429	15013
847.565	14872
847.701	15176
847.837	14670
847.972	14667
848.108	14648
848.244	14701
848.379	14617
848.515	14575
848.65	14522
848.786	14571
848.921	14617
849.057	14659
849.192	14686
849.328	14541
849.463	14545
849.598	14431
849.734	14446
849.869	14324
850.004	14355
850.14	14393
850.275	14282
850.41	14271
850.545	14259
850.68	14263
850.815	14309
850.95	14206
851.085	14389
851.22	14412
851.355	14278
851.49	14267
851.625	14317
851.76	14229
851.895	14244
852.03	14271
852.165	14294
852.299	14355
852.434	14301
852.569	14351
852.703	14370
852.838	14469
852.973	14374
853.107	14454
853.242	14183
853.376	14161
853.511	14020
853.645	14062
853.78	14210
853.914	14176
854.048	14046
854.183	14161
854.317	14233
854.451	14282
854.585	14115
854.72	14164
854.854	14164
854.988	14043
855.122	14202
855.256	13970
855.39	14195
855.524	14305
855.658	14161
855.792	14187
855.926	14157
856.06	14244
856.194	14233
856.327	14062
856.461	14043
856.595	14008
856.729	14138
856.862	14374
856.996	14123
857.13	14214
857.263	14381
857.397	14206
857.53	14145
857.664	14149
857.797	14244
857.931	14278
858.064	14313
858.197	14218
858.331	14092
858.464	14111
858.597	14111
858.731	14206
858.864	14210
858.997	14187
859.13	14126
859.263	14199
859.396	14336
859.529	14161
859.662	14123
859.795	14191
859.928	14195
860.061	14286
860.194	14404
860.327	14210
860.46	14153
860.592	14218
860.725	14393
860.858	14324
860.99	14202
861.123	14084
861.256	14043
861.388	14164
861.521	14967
861.653	14096
861.786	13982
861.918	14039
862.05	14084
862.183	14119
862.315	14187
862.447	14145
862.58	14092
862.712	13951
862.844	13906
862.976	13955
863.108	13982
863.24	14377
863.372	13902
863.504	13925
863.636	13887
863.768	13940
863.9	13951
864.032	13887
864.164	13879
864.296	13959
864.428	14035
864.559	14031
864.691	14001
864.823	13989
864.954	14046
865.086	14092
865.217	13845
865.349	13944
865.48	13871
865.612	13925
865.743	14096
865.875	13925
866.006	13928
866.137	13940
866.269	13887
866.4	13963
866.531	13951
866.662	13860
866.793	13849
866.924	13856
867.055	13917
867.186	13993
867.317	13849
867.448	13833
867.579	13925
867.71	13879
867.841	13776
867.972	13986
868.103	13928
868.233	13951
868.364	13955
868.495	14012
868.625	14164
868.756	14221
868.886	14043
869.017	14195
869.147	14256
869.278	14389
869.408	14225
869.539	14119
869.669	14305
869.799	14240
869.929	14362
870.06	14324
870.19	14415
870.32	14602
870.45	14533
870.58	14575
870.71	14735
870.84	14663
870.97	14606
871.1	14503
871.23	14750
871.36	14746
871.489	14617
871.619	14739
871.749	14788
871.879	14872
872.008	14830
872.138	14823
872.267	14781
872.397	14674
872.526	14602
872.656	14507
872.785	14606
872.915	14823
873.044	14902
873.173	14830
873.303	14891
873.432	14883
873.561	14857
873.69	14777
873.819	14861
873.948	14963
874.077	14857
874.206	14781
874.335	14868
874.464	14933
874.593	15028
874.722	15112
874.851	15218
874.979	15112
875.108	15123
875.237	15089
875.365	14990
875.494	15116
875.623	15165
875.751	15154
875.88	15184
876.008	15264
876.136	15249
876.265	15538
876.393	15743
876.521	15648
876.65	15633
876.778	15610
876.906	15439
877.034	15549
877.162	15538
877.29	15526
877.418	15679
877.546	15538
877.674	15587
877.802	15519
877.93	15561
878.058	15511
878.185	15485
878.313	15511
878.441	15610
878.568	15428
878.696	15545
878.824	15633
878.951	15667
879.079	15694
879.206	15911
879.333	15686
879.461	15561
879.588	15610
879.715	15637
879.842	15835
879.97	15618
880.097	15367
880.224	15405
880.351	15435
880.478	15340
880.605	15310
880.732	15439
880.859	15663
880.986	15363
881.112	15332
881.239	15351
881.366	15218
881.493	15074
881.619	15036
881.746	14990
881.872	15013
881.999	15089
882.125	15077
882.252	15051
882.378	15028
882.505	15256
882.631	15051
882.757	14811
882.883	14963
883.01	15001
883.136	14807
883.262	14804
883.388	14716
883.514	14921
883.64	14963
883.766	14842
883.892	14636
884.018	14807
884.143	14823
884.269	14967
884.395	14571
884.52	14590
884.646	14617
884.772	14533
884.897	14514
885.023	14564
885.148	14674
885.274	14754
885.399	14682
885.524	14579
885.65	14522
885.775	14621
885.9	14503
886.025	14545
886.15	14571
886.275	14495
886.4	14465
886.525	14579
886.65	14461
886.775	14492
886.9	14697
887.025	14743
887.149	14541
887.274	14419
887.399	14301
887.523	14454
887.648	14313
887.773	14210
887.897	14530
888.021	14469
888.146	14370
888.27	14526
888.395	14552
888.519	14533
888.643	14511
888.767	14423
888.891	14393
889.015	14176
889.139	14355
889.263	14244
889.387	14431
889.511	14469
889.635	14484
889.759	14324
889.883	14290
890.006	14290
890.13	14351
890.254	14229
890.377	14244
890.501	14103
890.624	14081
890.748	14111
890.871	14024
890.995	14031
891.118	13799
891.241	13970
891.364	14069
891.488	14020
891.611	13959
891.734	13959
891.857	14008
891.98	14050
892.103	14126
892.226	14050
892.349	13944
892.471	13791
892.594	13959
892.717	13978
892.839	13909
892.962	14039
893.085	14111
893.207	13993
893.33	13814
893.452	13947
893.575	13997
893.697	14020
893.819	14138
893.941	14248
894.064	14149
894.186	14043
894.308	13970
894.43	14180
894.552	14187
894.674	14062
894.796	13986
894.918	14005
895.04	13955
895.161	14172
895.283	14180
895.405	13974
895.526	14096
895.648	14115
895.769	14187
895.891	14134
896.012	14259
896.134	14278
896.255	14180
896.376	14210
896.498	14176
896.619	14176
896.74	14126
896.861	14096
896.982	14461
897.103	14594
897.224	14503
897.345	14442
897.466	14396
897.587	14408
897.708	14602
897.828	14473
897.949	14465
898.07	14294
898.19	14476
898.311	14503
898.431	14507
898.552	14480
898.672	14621
898.792	14598
898.913	14476
899.033	14457
899.153	14396
899.273	14355
899.393	14320
899.513	14366
899.633	14355
899.753	14362
899.873	14332
899.993	14332
900.113	14351
900.232	14313
900.352	14324
900.472	14263
900.591	14218
900.711	14275
900.83	14187
900.95	14396
901.069	14286
901.189	14161
901.308	14008
901.427	13811
901.546	13902
901.665	13967
901.784	13936
901.904	13807
902.023	13765
902.141	13525
902.26	13419
902.379	13601
902.498	13483
902.617	13506
902.735	13441
902.854	13403
902.973	13377
903.091	13145
903.21	13225
903.328	13274
903.446	13084
903.565	13050
903.683	13103
903.801	12947
903.919	13000
904.038	13065
904.156	12768
904.274	12939
904.392	12871
904.51	12837
904.627	12897
904.745	12981
904.863	12890
904.981	12719
905.098	12608
905.216	12521
905.334	12604
905.451	12506
905.569	12574
905.686	12559
905.803	12521
905.921	12369
906.038	12506
906.155	12479
906.272	12319
906.389	12399
906.506	12175
906.623	12190
906.74	12102
906.857	12114
906.974	12087
907.091	12186
907.208	12308
907.324	12163
907.441	12121
907.557	11908
907.674	11920
907.79	11840
907.907	11824
908.023	11897
908.139	11946
908.256	11885
908.372	11863
908.488	11832
908.604	11748
908.72	11790
908.836	11745
908.952	11668
909.068	11741
909.184	11878
909.3	11642
909.415	11771
909.531	11722
909.647	11516
909.762	11372
909.878	11436
909.993	11471
910.108	11425
910.224	11440
910.339	11471
910.454	11383
910.57	11258
910.685	11242
910.8	11585
910.915	11490
911.03	11353
911.145	11132
911.259	11242
911.374	11181
911.489	11052
911.604	11048
911.718	10930
911.833	10927
911.947	10828
912.062	10748
912.176	10927
912.291	10930
912.405	10847
912.519	11090
912.633	11201
912.748	11025
912.862	10953
912.976	10790
913.09	10725
913.204	10763
913.318	10786
913.431	10904
913.545	10873
913.659	10919
913.772	10873
913.886	10691
914	10649
914.113	10634
914.226	10767
914.34	10778
914.453	10622
914.566	10782
914.68	10668
914.793	10535
914.906	10440
915.019	10432
915.132	10360
915.245	10405
915.358	10390
915.47	10474
915.583	10436
915.696	10531
915.809	10516
915.921	10599
916.034	10432
916.146	10382
916.259	10363
916.371	10417
916.483	10508
916.595	10356
916.708	10386
916.82	10379
916.932	10325
917.044	10333
917.156	10394
917.268	10253
917.38	10287
917.491	10329
917.603	10211
917.715	10363
917.826	10333
917.938	10287
918.049	10105
918.161	10257
918.272	10325
918.384	10405
918.495	10295
918.606	10147
918.717	10131
918.828	10215
918.939	10147
919.05	10082
919.161	10169
919.272	9934
919.383	10029
919.494	10310
919.604	10333
919.715	10135
919.826	10013
919.936	10188
920.047	10223
920.157	10181
920.267	10382
920.378	10158
920.488	10207
920.598	10405
920.708	10481
920.818	10329
920.928	10363
921.038	10481
921.148	10466
921.258	10246
921.368	10181
921.477	10067
921.587	10032
921.697	9835
921.806	10071
921.916	9975
922.025	9766
922.134	9705
922.244	9709
922.353	9766
922.462	9625
922.571	9549
922.68	9477
922.789	9412
922.898	9443
923.007	9348
923.116	9481
923.224	9405
923.333	9370
923.442	9329
923.55	9306
923.659	9332
923.767	9355
923.876	9268
923.984	9370
924.092	9226
924.201	9294
924.309	9268
924.417	9260
924.525	9256
924.633	9291
924.741	10105
924.849	9123
924.956	9241
925.064	9047
925.172	8960
925.279	9028
925.387	9085
925.494	9043
925.602	9180
925.709	9188
925.816	9047
925.924	9074
926.031	9131
926.138	9169
926.245	9081
926.352	9043
926.459	9154
926.566	9180
926.673	9070
926.779	8967
926.886	8925
926.993	8811
927.099	8811
927.206	8746
927.312	8788
927.419	8811
927.525	8826
927.631	8796
927.737	8746
927.843	8739
927.95	8617
928.056	8720
928.162	8644
928.267	8735
928.373	9374
928.479	8853
928.585	8564
928.69	8686
928.796	8667
928.901	8594
929.007	8465
929.112	8610
929.218	8629
929.323	8522
929.428	8469
929.533	8663
929.638	8415
929.743	8469
929.848	8545
929.953	8457
930.058	8469
930.163	8252
930.267	8244
930.372	8351
930.477	8221
930.581	8514
930.685	8377
930.79	8259
930.894	8233
930.998	8225
931.103	8434
931.207	8012
931.311	7917
931.415	7883
931.519	7727
931.623	7757
