Data from test_V78500241_1263.txt Node
Date: Fri Mar 25 14:42:30 CST 2022
User: usil
Spectrometer: V785-0024
Trigger mode: 0
Integration Time (sec): 4.000000E-1
Scans to average: 1
Nonlinearity correction enabled: false
Boxcar width: 0
Storing dark spectrum: false
XAxis mode: Wavelengths
Number of Pixels in Spectrum: 1024
>>>>>Begin Spectral Data<<<<<
801.071	22325
801.214	22204
801.356	22010
801.499	21934
801.641	21823
801.783	21766
801.926	21724
802.068	21660
802.211	21679
802.353	21572
802.496	21245
802.638	21310
802.78	21184
802.923	21104
803.065	21032
803.208	21192
803.35	21131
803.492	21176
803.635	21272
803.777	21024
803.919	21195
804.061	21428
804.204	21233
804.346	21157
804.488	21001
804.63	21043
804.773	20975
804.915	20971
805.057	21039
805.199	21024
805.341	21005
805.483	21222
805.626	21093
805.768	20941
805.91	20918
806.052	21169
806.194	20914
806.336	21077
806.478	20899
806.62	20960
806.762	20975
806.904	21127
807.046	21367
807.188	21370
807.33	21344
807.472	21466
807.614	21283
807.756	21443
807.898	21233
808.04	21104
808.182	20998
808.324	21039
808.465	21298
808.607	21370
808.749	21317
808.891	21622
809.033	21705
809.174	21515
809.316	21485
809.458	21572
809.6	21344
809.741	21405
809.883	21466
810.025	21606
810.166	21481
810.308	21644
810.45	21587
810.591	21488
810.733	21291
810.875	21138
811.016	21032
811.158	21062
811.299	21211
811.441	21370
811.582	21378
811.724	21135
811.865	21150
812.007	21195
812.148	21119
812.29	21203
812.431	21363
812.573	21469
812.714	21431
812.855	21675
812.997	21827
813.138	21842
813.279	21880
813.421	21656
813.562	21686
813.703	21473
813.845	21332
813.986	20982
814.127	20849
814.268	20792
814.41	20842
814.551	20731
814.692	20830
814.833	20727
814.974	20598
815.115	20587
815.256	20594
815.397	20507
815.539	20617
815.68	20351
815.821	20450
815.962	20518
816.103	20404
816.244	20271
816.385	20122
816.526	20252
816.666	20054
816.807	19894
816.948	20035
817.089	20039
817.23	20012
817.371	19940
817.512	19871
817.653	19925
817.793	19784
817.934	19913
818.075	19932
818.216	19856
818.356	19757
818.497	19708
818.638	19723
818.778	19529
818.919	19487
819.06	19704
819.2	19689
819.341	19696
819.481	19753
819.622	19845
819.762	20069
819.903	20008
820.043	19955
820.184	19913
820.324	19799
820.465	19879
820.605	19856
820.746	19795
820.886	19696
821.026	19860
821.167	19784
821.307	19841
821.447	19666
821.588	19734
821.728	19540
821.868	19365
822.008	19145
822.149	19293
822.289	19289
822.429	18989
822.569	18890
822.709	18920
822.849	18768
822.99	18825
823.13	18753
823.27	18661
823.41	18639
823.55	18547
823.69	18547
823.83	18722
823.97	18486
824.11	18369
824.25	18292
824.389	18205
824.529	18441
824.669	18327
824.809	18388
824.949	18304
825.089	18403
825.228	18407
825.368	18174
825.508	18232
825.648	18098
825.787	18205
825.927	18190
826.067	18087
826.206	17931
826.346	18125
826.485	18125
826.625	18117
826.765	18194
826.904	18144
827.044	17855
827.183	17889
827.323	17798
827.462	17885
827.601	17760
827.741	17752
827.88	17809
828.02	17646
828.159	17783
828.298	17771
828.437	17923
828.577	17767
828.716	17950
828.855	17775
828.994	17604
829.134	17665
829.273	17627
829.412	17505
829.551	17535
829.69	17490
829.829	17608
829.968	17661
830.107	17638
830.246	17627
830.385	17638
830.524	17551
830.663	17383
830.802	17315
830.941	17178
831.08	17159
831.219	17322
831.357	17216
831.496	17528
831.635	17204
831.774	17102
831.913	17064
832.051	16843
832.19	16976
832.329	16972
832.467	16873
832.606	16866
832.744	16809
832.883	16858
833.022	16869
833.16	16942
833.299	16976
833.437	16968
833.576	16911
833.714	16942
833.852	16957
833.991	16987
834.129	16995
834.267	17090
834.406	16942
834.544	17071
834.682	16946
834.821	16942
834.959	17128
835.097	16892
835.235	16968
835.373	16991
835.511	16942
835.65	16885
835.788	16873
835.926	16767
836.064	16717
836.202	16786
836.34	16919
836.478	16923
836.615	16812
836.753	16862
836.891	16976
837.029	16915
837.167	16828
837.305	16755
837.443	16706
837.58	16634
837.718	16744
837.856	16713
837.993	16683
838.131	16774
838.269	16672
838.406	16592
838.544	16618
838.681	16382
838.819	16459
838.956	16322
839.094	16257
839.231	16295
839.369	16436
839.506	16637
839.643	16596
839.781	16325
839.918	16299
840.055	16230
840.193	16306
840.33	16299
840.467	16253
840.604	16341
840.742	16626
840.879	16139
841.016	16185
841.153	16135
841.29	16405
841.427	16318
841.564	16348
841.701	16226
841.838	16177
841.975	16120
842.112	16173
842.249	16063
842.385	16010
842.522	16223
842.659	16135
842.796	16025
842.933	16128
843.069	16029
843.206	15953
843.343	16124
843.479	16086
843.616	16063
843.752	15804
843.889	15827
844.025	15975
844.162	15892
844.298	15956
844.435	15911
844.571	15797
844.708	15998
844.844	16010
844.98	15972
845.117	16002
845.253	15804
845.389	15816
845.525	15785
845.661	15698
845.798	15819
845.934	15762
846.07	15816
846.206	15804
846.342	15937
846.478	15762
846.614	15644
846.75	15424
846.886	15317
847.022	15477
847.158	15443
847.294	15424
847.429	15511
847.565	15401
847.701	15663
847.837	15230
847.972	15112
848.108	15245
848.244	15222
848.379	15085
848.515	14979
848.65	14944
848.786	15024
848.921	14956
849.057	15157
849.192	15024
849.328	15047
849.463	15036
849.598	15005
849.734	14933
849.869	15005
850.004	14796
850.14	14762
850.275	14777
850.41	14720
850.545	14800
850.68	14830
850.815	14773
850.95	14765
851.085	14990
851.22	14845
851.355	14804
851.49	14724
851.625	14682
851.76	14792
851.895	14606
852.03	14651
852.165	14830
852.299	14830
852.434	14872
852.569	14815
852.703	14769
852.838	14895
852.973	14918
853.107	14864
853.242	14716
853.376	14667
853.511	14590
853.645	14568
853.78	14781
853.914	14727
854.048	14613
854.183	14651
854.317	14644
854.451	14765
854.585	14625
854.72	14686
854.854	14731
854.988	14590
855.122	14549
855.256	14564
855.39	14594
855.524	14659
855.658	14708
855.792	14701
855.926	14587
856.06	14746
856.194	14781
856.327	14594
856.461	14552
856.595	14518
856.729	14686
856.862	14674
856.996	14762
857.13	14720
857.263	14769
857.397	14735
857.53	14663
857.664	14781
857.797	14743
857.931	14705
858.064	14587
858.197	14735
858.331	14587
858.464	14636
858.597	14583
858.731	14712
858.864	14682
858.997	14655
859.13	14651
859.263	14743
859.396	14712
859.529	14693
859.662	14632
859.795	14568
859.928	14644
860.061	14800
860.194	14762
860.327	14735
860.46	14594
860.592	14670
860.725	14777
860.858	14693
860.99	14629
861.123	14594
861.256	14571
861.388	14568
861.521	15321
861.653	14446
861.786	14533
861.918	14484
862.05	14530
862.183	14659
862.315	14667
862.447	14716
862.58	14583
862.712	14457
862.844	14339
862.976	14476
863.108	14564
863.24	14811
863.372	14374
863.504	14427
863.636	14461
863.768	14457
863.9	14457
864.032	14305
864.164	14389
864.296	14480
864.428	14537
864.559	14461
864.691	14560
864.823	14385
864.954	14389
865.086	14450
865.217	14393
865.349	14294
865.48	14385
865.612	14370
865.743	14625
865.875	14537
866.006	14374
866.137	14522
866.269	14358
866.4	14415
866.531	14324
866.662	14294
866.793	14434
866.924	14317
867.055	14381
867.186	14408
867.317	14370
867.448	14309
867.579	14313
867.71	14343
867.841	14294
867.972	14381
868.103	14389
868.233	14434
868.364	14427
868.495	14438
868.625	14613
868.756	14750
868.886	14507
869.017	14758
869.147	14826
869.278	14777
869.408	14678
869.539	14625
869.669	14800
869.799	14667
869.929	14754
870.06	14796
870.19	14857
870.32	15036
870.45	14967
870.58	15089
870.71	15218
870.84	15195
870.97	15001
871.1	15043
871.23	15222
871.36	15245
871.489	15142
871.619	15249
871.749	15157
871.879	15222
872.008	15340
872.138	15211
872.267	15252
872.397	15070
872.526	15024
872.656	15119
872.785	15085
872.915	15203
873.044	15294
873.173	15241
873.303	15348
873.432	15329
873.561	15363
873.69	15416
873.819	15279
873.948	15378
874.077	15325
874.206	15283
874.335	15283
874.464	15485
874.593	15625
874.722	15477
874.851	15633
874.979	15557
875.108	15675
875.237	15557
875.365	15458
875.494	15572
875.623	15759
875.751	15568
875.88	15553
876.008	15770
876.136	15816
876.265	16059
876.393	16120
876.521	16200
876.65	16105
876.778	16017
876.906	15926
877.034	16036
877.162	16051
877.29	15926
877.418	16013
877.546	15968
877.674	16082
877.802	15949
877.93	16025
878.058	15941
878.185	15888
878.313	16120
878.441	16048
878.568	15804
878.696	15937
878.824	16109
878.951	16120
879.079	16173
879.206	16348
879.333	16272
879.461	16071
879.588	16234
879.715	16276
879.842	16375
879.97	16207
880.097	15899
880.224	15850
880.351	15949
880.478	15892
880.605	15888
880.732	15842
880.859	16093
880.986	15953
881.112	15968
881.239	15724
881.366	15660
881.493	15603
881.619	15549
881.746	15561
881.872	15504
881.999	15473
882.125	15488
882.252	15682
882.378	15576
882.505	15675
882.631	15496
882.757	15351
882.883	15382
883.01	15408
883.136	15332
883.262	15131
883.388	15237
883.514	15260
883.64	15424
883.766	15370
883.892	15161
884.018	15241
884.143	15367
884.269	15294
884.395	15081
884.52	15146
884.646	14986
884.772	14929
884.897	14975
885.023	15058
885.148	15199
885.274	15252
885.399	15089
885.524	15055
885.65	15127
885.775	15142
885.9	15039
886.025	15127
886.15	15055
886.275	15009
886.4	14998
886.525	15051
886.65	14918
886.775	14982
886.9	15150
887.025	15245
887.149	15020
887.274	14842
887.399	14921
887.523	14800
887.648	14788
887.773	14743
887.897	14944
888.021	14963
888.146	14743
888.27	15017
888.395	15005
888.519	14944
888.643	14906
888.767	14937
888.891	14883
889.015	14743
889.139	14731
889.263	14754
889.387	14800
889.511	14933
889.635	14811
889.759	14727
889.883	14750
890.006	14667
890.13	14914
890.254	14632
890.377	14663
890.501	14492
890.624	14590
890.748	14636
890.871	14537
890.995	14415
891.118	14396
891.241	14419
891.364	14423
891.488	14587
891.611	14320
891.734	14438
891.857	14446
891.98	14537
892.103	14560
892.226	14355
892.349	14317
892.471	14271
892.594	14415
892.717	14339
892.839	14290
892.962	14393
893.085	14423
893.207	14320
893.33	14358
893.452	14381
893.575	14374
893.697	14332
893.819	14617
893.941	14560
894.064	14636
894.186	14457
894.308	14457
894.43	14465
894.552	14575
894.674	14514
894.796	14457
894.918	14396
895.04	14541
895.161	14564
895.283	14473
895.405	14434
895.526	14419
895.648	14495
895.769	14602
895.891	14514
896.012	14659
896.134	14560
896.255	14556
896.376	14571
896.498	14594
896.619	14579
896.74	14549
896.861	14724
896.982	14933
897.103	15047
897.224	14899
897.345	14937
897.466	14743
897.587	14769
897.708	14963
897.828	14952
897.949	14819
898.07	14689
898.19	14781
898.311	14982
898.431	14758
898.552	14948
898.672	15058
898.792	15028
898.913	14899
899.033	14872
899.153	14697
899.273	14731
899.393	14731
899.513	14777
899.633	14792
899.753	14727
899.873	14720
899.993	14804
900.113	14739
900.232	14785
900.352	14739
900.472	14636
900.591	14583
900.711	14640
900.83	14602
900.95	14560
901.069	14724
901.189	14571
901.308	14221
901.427	14180
901.546	14237
901.665	14221
901.784	14309
901.904	14145
902.023	14142
902.141	13830
902.26	13864
902.379	13928
902.498	13951
902.617	13890
902.735	13883
902.854	13864
902.973	13807
903.091	13662
903.21	13582
903.328	13616
903.446	13578
903.565	13358
903.683	13506
903.801	13301
903.919	13358
904.038	13320
904.156	13206
904.274	13247
904.392	13301
904.51	13228
904.627	13179
904.745	13327
904.863	13282
904.981	13019
905.098	12890
905.216	12951
905.334	12996
905.451	12935
905.569	12894
905.686	12970
905.803	12928
905.921	12760
906.038	12833
906.155	12719
906.272	12631
906.389	12692
906.506	12513
906.623	12521
906.74	12532
906.857	12391
906.974	12448
907.091	12540
907.208	12692
907.324	12532
907.441	12410
907.557	12277
907.674	12216
907.79	12247
907.907	12251
908.023	12281
908.139	12289
908.256	12190
908.372	12144
908.488	12159
908.604	12064
908.72	11999
908.836	12072
908.952	11977
909.068	12064
909.184	12152
909.3	12083
909.415	12087
909.531	12114
909.647	11882
909.762	11828
909.878	11760
909.993	11843
910.108	11688
910.224	11707
910.339	11813
910.454	11805
910.57	11600
910.685	11596
910.8	11863
910.915	11882
911.03	11661
911.145	11444
911.259	11490
911.374	11474
911.489	11330
911.604	11284
911.718	11220
911.833	11216
911.947	11090
912.062	11052
912.176	11235
912.291	11159
912.405	11189
912.519	11421
912.633	11368
912.748	11261
912.862	11250
912.976	11136
913.09	10911
913.204	11098
913.318	11041
913.431	11239
913.545	11208
913.659	11254
913.772	11079
913.886	10991
914	10991
914.113	11006
914.226	11178
914.34	11105
914.453	10991
914.566	11025
914.68	10904
914.793	10908
914.906	10869
915.019	10664
915.132	10706
915.245	10733
915.358	10793
915.47	10736
915.583	10725
915.696	10691
915.809	10839
915.921	10877
916.034	10744
916.146	10649
916.259	10660
916.371	10748
916.483	10679
916.595	10645
916.708	10615
916.82	10660
916.932	10641
917.044	10649
917.156	10637
917.268	10447
917.38	10500
917.491	10500
917.603	10531
917.715	10672
917.826	10584
917.938	10516
918.049	10470
918.161	10565
918.272	10668
918.384	10672
918.495	10599
918.606	10485
918.717	10390
918.828	10413
918.939	10379
919.05	10329
919.161	10436
919.272	10246
919.383	10207
919.494	10516
919.604	10656
919.715	10398
919.826	10276
919.936	10360
920.047	10466
920.157	10474
920.267	10664
920.378	10493
920.488	10474
920.598	10611
920.708	10805
920.818	10637
920.928	10653
921.038	10812
921.148	10763
921.258	10459
921.368	10363
921.477	10280
921.587	10276
921.697	10154
921.806	10314
921.916	10090
922.025	10071
922.134	9994
922.244	9937
922.353	10025
922.462	9895
922.571	9907
922.68	9732
922.789	9682
922.898	9633
923.007	9580
923.116	9774
923.224	9690
923.333	9629
923.442	9553
923.55	9545
923.659	9568
923.767	9606
923.876	9500
923.984	9584
924.092	9435
924.201	9500
924.309	9431
924.417	9519
924.525	9416
924.633	9485
924.741	10230
924.849	9298
924.956	9447
925.064	9245
925.172	9188
925.279	9275
925.387	9249
925.494	9336
925.602	9424
925.709	9405
925.816	9222
925.924	9313
926.031	9325
926.138	9317
926.245	9355
926.352	9253
926.459	9317
926.566	9374
926.673	9306
926.779	9150
926.886	9142
926.993	9077
927.099	8990
927.206	8952
927.312	8944
927.419	9062
927.525	8937
927.631	9020
927.737	8952
927.843	8853
927.95	8746
928.056	8876
928.162	8929
928.267	8986
928.373	9545
928.479	9039
928.585	8720
928.69	8849
928.796	8880
928.901	8804
929.007	8678
929.112	8804
929.218	8788
929.323	8773
929.428	8750
929.533	8857
929.638	8705
929.743	8636
929.848	8769
929.953	8727
930.058	8632
930.163	8499
930.267	8473
930.372	8617
930.477	8442
930.581	8731
930.685	8579
930.79	8385
930.894	8423
930.998	8351
931.103	8587
931.207	8240
931.311	8206
931.415	8073
931.519	7898
931.623	7947
