Data from test_V78500241_3036.txt Node
Date: Fri Mar 25 14:54:51 CST 2022
User: usil
Spectrometer: V785-0024
Trigger mode: 0
Integration Time (sec): 4.000000E-1
Scans to average: 1
Nonlinearity correction enabled: false
Boxcar width: 0
Storing dark spectrum: false
XAxis mode: Wavelengths
Number of Pixels in Spectrum: 1024
>>>>>Begin Spectral Data<<<<<
801.071	21994
801.214	22086
801.356	21778
801.499	21648
801.641	21488
801.783	21393
801.926	21397
802.068	21355
802.211	21428
802.353	21211
802.496	21123
802.638	20883
802.78	20876
802.923	20891
803.065	20804
803.208	20743
803.35	20773
803.492	20800
803.635	20956
803.777	20720
803.919	20960
804.061	21150
804.204	20800
804.346	20872
804.488	20724
804.63	20849
804.773	20632
804.915	20720
805.057	20921
805.199	20693
805.341	20796
805.483	20830
805.626	20830
805.768	20773
805.91	20769
806.052	20686
806.194	20621
806.336	20807
806.478	20697
806.62	20689
806.762	20785
806.904	20876
807.046	21157
807.188	21089
807.33	21058
807.472	20982
807.614	21001
807.756	20998
807.898	20796
808.04	20769
808.182	20845
808.324	20720
808.465	20834
808.607	21013
808.749	21123
808.891	21256
809.033	21192
809.174	21154
809.316	21043
809.458	21093
809.6	21013
809.741	21245
809.883	21157
810.025	21317
810.166	21268
810.308	21355
810.45	21192
810.591	21188
810.733	20971
810.875	21028
811.016	20659
811.158	20750
811.299	21013
811.441	21093
811.582	21001
811.724	20743
811.865	20693
812.007	20845
812.148	20800
812.29	20914
812.431	21100
812.573	21123
812.714	21256
812.855	21378
812.997	21420
813.138	21644
813.279	21359
813.421	21367
813.562	21329
813.703	21279
813.845	20979
813.986	20716
814.127	20598
814.268	20412
814.41	20461
814.551	20442
814.692	20522
814.833	20336
814.974	20476
815.115	20446
815.256	20313
815.397	20328
815.539	20267
815.68	20168
815.821	20115
815.962	20126
816.103	20225
816.244	20001
816.385	20005
816.526	19719
816.666	19635
816.807	19616
816.948	19750
817.089	19624
817.23	19632
817.371	19597
817.512	19506
817.653	19567
817.793	19403
817.934	19552
818.075	19464
818.216	19578
818.356	19594
818.497	19343
818.638	19126
818.778	19225
818.919	19198
819.06	19270
819.2	19403
819.341	19430
819.481	19426
819.622	19491
819.762	19742
819.903	19594
820.043	19693
820.184	19365
820.324	19453
820.465	19597
820.605	19575
820.746	19415
820.886	19335
821.026	19510
821.167	19403
821.307	19544
821.447	19464
821.588	19415
821.728	19164
821.868	19091
822.008	18901
822.149	18989
822.289	18791
822.429	18661
822.569	18616
822.709	18578
822.849	18418
822.99	18369
823.13	18361
823.27	18357
823.41	18311
823.55	18117
823.69	18228
823.83	18178
823.97	18133
824.11	17920
824.25	17870
824.389	17939
824.529	18022
824.669	17984
824.809	18026
824.949	17946
825.089	18030
825.228	18011
825.368	17832
825.508	17733
825.648	17775
825.787	17809
825.927	17798
826.067	17684
826.206	17786
826.346	17771
826.485	17638
826.625	17691
826.765	17760
826.904	17718
827.044	17478
827.183	17444
827.323	17452
827.462	17482
827.601	17421
827.741	17421
827.88	17482
828.02	17364
828.159	17463
828.298	17417
828.437	17505
828.577	17356
828.716	17520
828.855	17345
828.994	17181
829.134	17254
829.273	17227
829.412	17208
829.551	17090
829.69	17105
829.829	17258
829.968	17318
830.107	17277
830.246	17280
830.385	17197
830.524	17060
830.663	16953
830.802	16980
830.941	16763
831.08	16763
831.219	16873
831.357	16854
831.496	17014
831.635	16767
831.774	16634
831.913	16634
832.051	16607
832.19	16508
832.329	16603
832.467	16481
832.606	16451
832.744	16550
832.883	16516
833.022	16462
833.16	16478
833.299	16432
833.437	16443
833.576	16504
833.714	16466
833.852	16413
833.991	16550
834.129	16603
834.267	16561
834.406	16592
834.544	16573
834.682	16580
834.821	16538
834.959	16687
835.097	16451
835.235	16592
835.373	16497
835.511	16462
835.65	16478
835.788	16428
835.926	16223
836.064	16226
836.202	16238
836.34	16519
836.478	16443
836.615	16363
836.753	16398
836.891	16508
837.029	16440
837.167	16440
837.305	16287
837.443	16249
837.58	16230
837.718	16314
837.856	16261
837.993	16230
838.131	16185
838.269	16265
838.406	16268
838.544	16265
838.681	15953
838.819	15926
838.956	15869
839.094	15850
839.231	15876
839.369	15956
839.506	16223
839.643	15987
839.781	15797
839.918	15762
840.055	15823
840.193	15816
840.33	15739
840.467	15861
840.604	15861
840.742	16116
840.879	15663
841.016	15781
841.153	15713
841.29	15903
841.427	15762
841.564	15869
841.701	15850
841.838	15793
841.975	15667
842.112	15709
842.249	15584
842.385	15530
842.522	15781
842.659	15622
842.796	15564
842.933	15698
843.069	15625
843.206	15519
843.343	15679
843.479	15603
843.616	15720
843.752	15481
843.889	15393
844.025	15504
844.162	15393
844.298	15538
844.435	15287
844.571	15336
844.708	15450
844.844	15534
844.98	15519
845.117	15447
845.253	15287
845.389	15302
845.525	15291
845.661	15325
845.798	15207
845.934	15249
846.07	15112
846.206	15207
846.342	15291
846.478	15214
846.614	14929
846.75	14910
846.886	14853
847.022	15116
847.158	15108
847.294	14925
847.429	15058
847.565	14929
847.701	15195
847.837	14659
847.972	14674
848.108	14773
848.244	14735
848.379	14689
848.515	14526
848.65	14499
848.786	14446
848.921	14537
849.057	14682
849.192	14648
849.328	14564
849.463	14571
849.598	14492
849.734	14446
849.869	14309
850.004	14438
850.14	14370
850.275	14324
850.41	14164
850.545	14252
850.68	14248
850.815	14377
850.95	14286
851.085	14545
851.22	14328
851.355	14275
851.49	14214
851.625	14240
851.76	14252
851.895	14233
852.03	14233
852.165	14313
852.299	14347
852.434	14339
852.569	14294
852.703	14286
852.838	14374
852.973	14488
853.107	14461
853.242	14294
853.376	14199
853.511	14039
853.645	14126
853.78	14259
853.914	14210
854.048	14183
854.183	14126
854.317	14233
854.451	14320
854.585	14149
854.72	14164
854.854	14267
854.988	14138
855.122	14225
855.256	14058
855.39	14218
855.524	14244
855.658	14267
855.792	14145
855.926	14195
856.06	14240
856.194	14320
856.327	14183
856.461	14107
856.595	14115
856.729	14218
856.862	14290
856.996	14263
857.13	14225
857.263	14282
857.397	14275
857.53	14111
857.664	14252
857.797	14294
857.931	14259
858.064	14195
858.197	14343
858.331	14145
858.464	14084
858.597	14043
858.731	14199
858.864	14187
858.997	14096
859.13	14233
859.263	14263
859.396	14248
859.529	14157
859.662	14164
859.795	14145
859.928	14271
860.061	14343
860.194	14393
860.327	14301
860.46	14157
860.592	14324
860.725	14336
860.858	14282
860.99	14218
861.123	14062
861.256	14043
861.388	14248
861.521	14781
861.653	14103
861.786	14016
861.918	14039
862.05	14069
862.183	14115
862.315	14267
862.447	14180
862.58	14092
862.712	14012
862.844	13879
862.976	14069
863.108	14065
863.24	14446
863.372	13879
863.504	13791
863.636	13978
863.768	14012
863.9	14012
864.032	13894
864.164	13925
864.296	14020
864.428	14077
864.559	14069
864.691	14058
864.823	13986
864.954	14001
865.086	13959
865.217	14012
865.349	13845
865.48	13871
865.612	13925
865.743	14039
865.875	14016
866.006	13970
866.137	13974
866.269	13944
866.4	14001
866.531	13925
866.662	13898
866.793	13967
866.924	13879
867.055	13887
867.186	13940
867.317	14008
867.448	13894
867.579	13925
867.71	13856
867.841	13852
867.972	13932
868.103	13936
868.233	13986
868.364	13978
868.495	14077
868.625	14138
868.756	14294
868.886	14115
869.017	14123
869.147	14286
869.278	14347
869.408	14229
869.539	14199
869.669	14362
869.799	14126
869.929	14290
870.06	14275
870.19	14526
870.32	14507
870.45	14522
870.58	14583
870.71	14712
870.84	14697
870.97	14598
871.1	14549
871.23	14788
871.36	14785
871.489	14743
871.619	14781
871.749	14838
871.879	14800
872.008	14941
872.138	14804
872.267	14800
872.397	14678
872.526	14541
872.656	14594
872.785	14682
872.915	14853
873.044	14887
873.173	14842
873.303	14792
873.432	14845
873.561	14952
873.69	14883
873.819	14853
873.948	14910
874.077	14815
874.206	14872
874.335	14857
874.464	15017
874.593	15085
874.722	15036
874.851	15207
874.979	15260
875.108	15260
875.237	15138
875.365	15055
875.494	15123
875.623	15222
875.751	15165
875.88	15146
876.008	15329
876.136	15405
876.265	15679
876.393	15675
876.521	15648
876.65	15667
876.778	15625
876.906	15576
877.034	15511
877.162	15584
877.29	15359
877.418	15652
877.546	15545
877.674	15542
877.802	15625
877.93	15545
878.058	15473
878.185	15485
878.313	15553
878.441	15534
878.568	15447
878.696	15625
878.824	15679
878.951	15713
879.079	15781
879.206	15838
879.333	15827
879.461	15633
879.588	15701
879.715	15743
879.842	15895
879.97	15675
880.097	15466
880.224	15412
880.351	15519
880.478	15587
880.605	15393
880.732	15382
880.859	15679
880.986	15397
881.112	15454
881.239	15325
881.366	15180
881.493	15154
881.619	15062
881.746	15062
881.872	15020
881.999	15089
882.125	15097
882.252	15131
882.378	15127
882.505	15230
882.631	15036
882.757	14902
882.883	15005
883.01	14929
883.136	14815
883.262	14769
883.388	14701
883.514	14918
883.64	14902
883.766	14933
883.892	14762
884.018	14853
884.143	14887
884.269	15043
884.395	14686
884.52	14602
884.646	14651
884.772	14610
884.897	14499
885.023	14636
885.148	14697
885.274	14792
885.399	14705
885.524	14598
885.65	14564
885.775	14640
885.9	14552
886.025	14705
886.15	14625
886.275	14499
886.4	14522
886.525	14552
886.65	14613
886.775	14632
886.9	14769
887.025	14861
887.149	14629
887.274	14465
887.399	14400
887.523	14461
887.648	14298
887.773	14336
887.897	14423
888.021	14514
888.146	14389
888.27	14457
888.395	14514
888.519	14450
888.643	14431
888.767	14492
888.891	14336
889.015	14233
889.139	14332
889.263	14252
889.387	14431
889.511	14480
889.635	14469
889.759	14286
889.883	14271
890.006	14339
890.13	14480
890.254	14237
890.377	14271
890.501	14065
890.624	14115
890.748	14214
890.871	14096
890.995	14016
891.118	13928
891.241	14058
891.364	14046
891.488	14024
891.611	14081
891.734	14111
891.857	14035
891.98	14046
892.103	14043
892.226	14073
892.349	13978
892.471	13883
892.594	13959
892.717	13993
892.839	14046
892.962	13974
893.085	14115
893.207	13978
893.33	13959
893.452	13890
893.575	14088
893.697	14046
893.819	14225
893.941	14233
894.064	14081
894.186	13993
894.308	14016
894.43	14035
894.552	14225
894.674	14157
894.796	13989
894.918	13955
895.04	14123
895.161	14168
895.283	14191
895.405	14054
895.526	14126
895.648	14092
895.769	14164
895.891	14202
896.012	14199
896.134	14275
896.255	14237
896.376	14267
896.498	14157
896.619	14240
896.74	14229
896.861	14202
896.982	14465
897.103	14575
897.224	14469
897.345	14419
897.466	14389
897.587	14457
897.708	14632
897.828	14484
897.949	14381
898.07	14206
898.19	14396
898.311	14602
898.431	14503
898.552	14522
898.672	14488
898.792	14632
898.913	14511
899.033	14473
899.153	14282
899.273	14362
899.393	14419
899.513	14408
899.633	14317
899.753	14389
899.873	14358
899.993	14366
900.113	14503
900.232	14400
900.352	14362
900.472	14282
900.591	14195
900.711	14218
900.83	14210
900.95	14343
901.069	14522
901.189	14172
901.308	13955
901.427	13913
901.546	13951
901.665	13947
901.784	13959
901.904	13791
902.023	13738
902.141	13559
902.26	13514
902.379	13601
902.498	13438
902.617	13438
902.735	13597
902.854	13487
902.973	13495
903.091	13289
903.21	13278
903.328	13240
903.446	13160
903.565	13095
903.683	13053
903.801	13008
903.919	13057
904.038	13015
904.156	12958
904.274	13053
904.392	12935
904.51	12787
904.627	12817
904.745	12935
904.863	13012
904.981	12662
905.098	12601
905.216	12597
905.334	12646
905.451	12623
905.569	12566
905.686	12498
905.803	12623
905.921	12395
906.038	12429
906.155	12422
906.272	12342
906.389	12281
906.506	12140
906.623	12133
906.74	12167
906.857	12022
906.974	12125
907.091	12159
907.208	12372
907.324	12216
907.441	12106
907.557	11954
907.674	11935
907.79	11870
907.907	11855
908.023	12011
908.139	11923
908.256	11866
908.372	11828
908.488	11866
908.604	11688
908.72	11611
908.836	11570
908.952	11710
909.068	11710
909.184	11805
909.3	11737
909.415	11745
909.531	11748
909.647	11539
909.762	11379
909.878	11387
909.993	11562
910.108	11551
910.224	11406
910.339	11501
910.454	11349
910.57	11303
910.685	11201
910.8	11596
910.915	11478
911.03	11280
911.145	11124
911.259	11025
911.374	11197
911.489	11124
911.604	11037
911.718	10873
911.833	10987
911.947	10869
912.062	10759
912.176	10927
912.291	10847
912.405	10987
912.519	11102
912.633	11090
912.748	11010
912.862	10946
912.976	10736
913.09	10641
913.204	10736
913.318	10828
913.431	10972
913.545	10793
913.659	10885
913.772	10767
913.886	10683
914	10729
914.113	10778
914.226	10847
914.34	10809
914.453	10641
914.566	10733
914.68	10634
914.793	10618
914.906	10481
915.019	10356
915.132	10379
915.245	10306
915.358	10398
915.47	10409
915.583	10390
915.696	10451
915.809	10626
915.921	10656
916.034	10474
916.146	10299
916.259	10314
916.371	10344
916.483	10447
916.595	10367
916.708	10337
916.82	10337
916.932	10371
917.044	10280
917.156	10291
917.268	10200
917.38	10348
917.491	10242
917.603	10211
917.715	10329
917.826	10386
917.938	10249
918.049	10101
918.161	10219
918.272	10413
918.384	10398
918.495	10276
918.606	10158
918.717	10143
918.828	10200
918.939	10139
919.05	10086
919.161	10109
919.272	9907
919.383	10048
919.494	10238
919.604	10394
919.715	10188
919.826	10128
919.936	10093
920.047	10261
920.157	10116
920.267	10348
920.378	10215
920.488	10128
920.598	10413
920.708	10421
920.818	10360
920.928	10356
921.038	10516
921.148	10516
921.258	10211
921.368	10040
921.477	10055
921.587	10013
921.697	9838
921.806	10067
921.916	9926
922.025	9755
922.134	9698
922.244	9720
922.353	9728
922.462	9614
922.571	9469
922.68	9424
922.789	9401
922.898	9420
923.007	9393
923.116	9473
923.224	9408
923.333	9374
923.442	9321
923.55	9317
923.659	9287
923.767	9374
923.876	9279
923.984	9367
924.092	9268
924.201	9241
924.309	9363
924.417	9302
924.525	9253
924.633	9256
924.741	10158
924.849	9085
924.956	9195
925.064	9093
925.172	8918
925.279	9047
925.387	9116
925.494	9066
925.602	9264
925.709	9112
925.816	9043
925.924	9066
926.031	9169
926.138	9123
926.245	9135
926.352	8990
926.459	9131
926.566	9161
926.673	9020
926.779	8960
926.886	8864
926.993	8807
927.099	8788
927.206	8743
927.312	8697
927.419	8815
927.525	8823
927.631	8849
927.737	8781
927.843	8678
927.95	8556
928.056	8682
928.162	8674
928.267	8773
928.373	9241
928.479	8727
928.585	8587
928.69	8632
928.796	8731
928.901	8568
929.007	8442
929.112	8613
929.218	8598
929.323	8526
929.428	8556
929.533	8659
929.638	8415
929.743	8511
929.848	8522
929.953	8480
930.058	8427
930.163	8214
930.267	8286
930.372	8400
930.477	8187
930.581	8514
930.685	8305
930.79	8214
930.894	8225
930.998	8149
931.103	8374
931.207	7993
931.311	7947
931.415	7898
931.519	7700
931.623	7655
