Data from test_V78500241_641.txt Node
Date: Fri Mar 25 14:38:10 CST 2022
User: usil
Spectrometer: V785-0024
Trigger mode: 0
Integration Time (sec): 4.000000E-1
Scans to average: 1
Nonlinearity correction enabled: false
Boxcar width: 0
Storing dark spectrum: false
XAxis mode: Wavelengths
Number of Pixels in Spectrum: 1024
>>>>>Begin Spectral Data<<<<<
801.071	27831
801.214	27656
801.356	27458
801.499	27397
801.641	27359
801.783	27268
801.926	27401
802.068	27233
802.211	27009
802.353	26975
802.496	26834
802.638	26716
802.78	26659
802.923	26632
803.065	26689
803.208	26579
803.35	26769
803.492	26864
803.635	26899
803.777	26769
803.919	26986
804.061	27093
804.204	26838
804.346	26830
804.488	26906
804.63	26933
804.773	26785
804.915	26994
805.057	27123
805.199	27081
805.341	27241
805.483	27298
805.626	27469
805.768	27249
805.91	27363
806.052	27572
806.194	27580
806.336	27869
806.478	27911
806.62	28196
806.762	28421
806.904	28748
807.046	29197
807.188	29398
807.33	29779
807.472	30277
807.614	30909
807.756	31544
807.898	32328
808.04	33732
808.182	35364
808.324	37651
808.465	39956
808.607	42882
808.749	45161
808.891	46618
809.033	46907
809.174	45279
809.316	42973
809.458	40169
809.6	37255
809.741	34999
809.883	33214
810.025	32012
810.166	31152
810.308	30623
810.45	29901
810.591	29733
810.733	28888
810.875	28698
811.016	28382
811.158	28200
811.299	28291
811.441	28207
811.582	28055
811.724	27759
811.865	27633
812.007	27720
812.148	27599
812.29	27462
812.431	27728
812.573	27720
812.714	27819
812.855	27812
812.997	27857
813.138	27911
813.279	27835
813.421	27778
813.562	27629
813.703	27542
813.845	27363
813.986	26979
814.127	26762
814.268	26663
814.41	26560
814.551	26328
814.692	26663
814.833	26408
814.974	26415
815.115	26526
815.256	26164
815.397	26263
815.539	26168
815.68	26142
815.821	26020
815.962	25966
816.103	26206
816.244	25913
816.385	25723
816.526	25689
816.666	25628
816.807	25441
816.948	25396
817.089	25346
817.23	25548
817.371	25365
817.512	25445
817.653	25350
817.793	25369
817.934	25308
818.075	25343
818.216	25297
818.356	25171
818.497	25137
818.638	24966
818.778	25038
818.919	24992
819.06	25050
819.2	25084
819.341	25209
819.481	25285
819.622	25365
819.762	25460
819.903	25278
820.043	25335
820.184	25388
820.324	25225
820.465	25343
820.605	25160
820.746	25221
820.886	25053
821.026	25171
821.167	24992
821.307	25107
821.447	25046
821.588	25000
821.728	24700
821.868	24578
822.008	24525
822.149	24414
822.289	24388
822.429	24315
822.569	24186
822.709	24003
822.849	23855
822.99	23863
823.13	23832
823.27	23847
823.41	23665
823.55	23630
823.69	23558
823.83	23646
823.97	23558
824.11	23467
824.25	23296
824.389	23531
824.529	23600
824.669	23486
824.809	23490
824.949	23512
825.089	23493
825.228	23493
825.368	23284
825.508	23303
825.648	23250
825.787	23220
825.927	23296
826.067	23159
826.206	23128
826.346	23220
826.485	23223
826.625	23326
826.765	23395
826.904	23170
827.044	22862
827.183	23010
827.323	22854
827.462	22949
827.601	22900
827.741	22843
827.88	22885
828.02	22637
828.159	22858
828.298	22786
828.437	22934
828.577	22778
828.716	22972
828.855	22694
828.994	22508
829.134	22626
829.273	22599
829.412	22516
829.551	22546
829.69	22470
829.829	22569
829.968	22630
830.107	22691
830.246	22603
830.385	22577
830.524	22436
830.663	22394
830.802	22272
830.941	22162
831.08	22059
831.219	22219
831.357	22306
831.496	22440
831.635	22147
831.774	21964
831.913	22067
832.051	22074
832.19	21934
832.329	22147
832.467	22021
832.606	22044
832.744	21994
832.883	21972
833.022	22067
833.16	22147
833.299	22257
833.437	22344
833.576	22440
833.714	22424
833.852	22615
833.991	22866
834.129	22987
834.267	22896
834.406	22797
834.544	22801
834.682	22653
834.821	22531
834.959	22683
835.097	22303
835.235	22295
835.373	22265
835.511	22116
835.65	21907
835.788	21915
835.926	21717
836.064	21545
836.202	21637
836.34	21755
836.478	21785
836.615	21709
836.753	21717
836.891	21759
837.029	21739
837.167	21622
837.305	21644
837.443	21545
837.58	21469
837.718	21606
837.856	21485
837.993	21454
838.131	21504
838.269	21344
838.406	21382
838.544	21241
838.681	21256
838.819	21100
838.956	20971
839.094	20918
839.231	20986
839.369	20979
839.506	21367
839.643	21127
839.781	20815
839.918	20849
840.055	20937
840.193	20819
840.33	20872
840.467	20883
840.604	20834
840.742	21066
840.879	20804
841.016	20735
841.153	20720
841.29	20971
841.427	20845
841.564	20948
841.701	20861
841.838	20735
841.975	20777
842.112	20792
842.249	20739
842.385	20575
842.522	20891
842.659	20667
842.796	20629
842.933	20697
843.069	20750
843.206	20674
843.343	20853
843.479	20716
843.616	20785
843.752	20689
843.889	20682
844.025	20785
844.162	20686
844.298	20887
844.435	20880
844.571	21100
844.708	21287
844.844	21690
844.98	22063
845.117	22592
845.253	23364
845.389	24844
845.525	27732
845.661	32499
845.798	38229
845.934	42608
846.07	44301
846.206	43000
846.342	39252
846.478	33633
846.614	28596
846.75	25297
846.886	23581
847.022	22360
847.158	21507
847.294	21146
847.429	20758
847.565	20507
847.701	20769
847.837	20180
847.972	19963
848.108	19970
848.244	19852
848.379	19719
848.515	19674
848.65	19563
848.786	19548
848.921	19681
849.057	19639
849.192	19609
849.328	19476
849.463	19609
849.598	19476
849.734	19495
849.869	19449
850.004	19190
850.14	19236
850.275	19228
850.41	19187
850.545	19141
850.68	19156
850.815	19320
850.95	19244
851.085	19422
851.22	19316
851.355	19255
851.49	19145
851.625	19217
851.76	18970
851.895	19069
852.03	19156
852.165	19175
852.299	19343
852.434	19434
852.569	19312
852.703	19244
852.838	19350
852.973	19403
853.107	19434
853.242	19335
853.376	19251
853.511	19175
853.645	19225
853.78	19308
853.914	19316
854.048	19251
854.183	19392
854.317	19426
854.451	19552
854.585	19335
854.72	19365
854.854	19449
854.988	19247
855.122	19228
855.256	19175
855.39	19236
855.524	19320
855.658	19175
855.792	19190
855.926	19187
856.06	19187
856.194	19289
856.327	19061
856.461	19027
856.595	19046
856.729	19034
856.862	19160
856.996	18966
857.13	19012
857.263	19076
857.397	19095
857.53	18951
857.664	18996
857.797	19122
857.931	19126
858.064	19023
858.197	19072
858.331	19050
858.464	18943
858.597	18795
858.731	18920
858.864	18947
858.997	18840
859.13	18951
859.263	18943
859.396	19027
859.529	18886
859.662	18886
859.795	18757
859.928	18920
860.061	19069
860.194	19012
860.327	18825
860.46	18928
860.592	18981
860.725	18916
860.858	18856
860.99	18779
861.123	18844
861.256	18795
861.388	18806
861.521	19552
861.653	18677
861.786	18597
861.918	18722
862.05	18661
862.183	18886
862.315	18897
862.447	18840
862.58	18776
862.712	18612
862.844	18479
862.976	18635
863.108	18536
863.24	18886
863.372	18471
863.504	18555
863.636	18547
863.768	18536
863.9	18639
864.032	18433
864.164	18513
864.296	18578
864.428	18593
864.559	18551
864.691	18585
864.823	18540
864.954	18570
865.086	18555
865.217	18429
865.349	18296
865.48	18467
865.612	18414
865.743	18525
865.875	18452
866.006	18471
866.137	18467
866.269	18525
866.4	18509
866.531	18388
866.662	18319
866.793	18372
866.924	18350
867.055	18460
867.186	18422
867.317	18365
867.448	18357
867.579	18384
867.71	18232
867.841	18361
867.972	18471
868.103	18490
868.233	18433
868.364	18448
868.495	18506
868.625	18620
868.756	18719
868.886	18593
869.017	18631
869.147	18783
869.278	18745
869.408	18734
869.539	18719
869.669	18802
869.799	18757
869.929	18867
870.06	18776
870.19	19019
870.32	19023
870.45	19053
870.58	19065
870.71	19350
870.84	19225
870.97	19110
871.1	19221
871.23	19278
871.36	19285
871.489	19263
871.619	19392
871.749	19255
871.879	19537
872.008	19597
872.138	19381
872.267	19354
872.397	19354
872.526	19179
872.656	19282
872.785	19228
872.915	19449
873.044	19525
873.173	19445
873.303	19571
873.432	19647
873.561	19628
873.69	19734
873.819	19628
873.948	19750
874.077	19704
874.206	19655
874.335	19769
874.464	19856
874.593	19974
874.722	19909
874.851	19967
874.979	20020
875.108	20180
875.237	20092
875.365	20031
875.494	20218
875.623	20298
875.751	20290
875.88	20309
876.008	20415
876.136	20522
876.265	20750
876.393	21028
876.521	21074
876.65	21127
876.778	21024
876.906	20956
877.034	21100
877.162	21180
877.29	21108
877.418	21226
877.546	21272
877.674	21336
877.802	21481
877.93	21606
878.058	21736
878.185	21827
878.313	22158
878.441	22447
878.568	22615
878.696	23136
878.824	23977
878.951	24768
879.079	26183
879.206	27892
879.333	29554
879.461	30989
879.588	31837
879.715	32012
879.842	31213
879.97	29554
880.097	27804
880.224	26320
880.351	25521
880.478	24696
880.605	24224
880.732	23988
880.859	23809
880.986	23535
881.112	23516
881.239	23250
881.366	23071
881.493	22949
881.619	22984
881.746	23044
881.872	23181
881.999	23121
882.125	23216
882.252	23239
882.378	23128
882.505	23433
882.631	23029
882.757	23090
882.883	23140
883.01	22953
883.136	23014
883.262	22862
883.388	22835
883.514	23048
883.64	23033
883.766	22793
883.892	22713
884.018	22702
884.143	22942
884.269	22942
884.395	22824
884.52	22554
884.646	22744
884.772	22725
884.897	22599
885.023	22672
885.148	22805
885.274	22721
885.399	22637
885.524	22523
885.65	22382
885.775	22356
885.9	22150
886.025	22147
886.15	22032
886.275	21701
886.4	21610
886.525	21500
886.65	21298
886.775	21401
886.9	21367
887.025	21462
887.149	21093
887.274	20842
887.399	20861
887.523	20746
887.648	20568
887.773	20396
887.897	20644
888.021	20492
888.146	20438
888.27	20560
888.395	20415
888.519	20355
888.643	20263
888.767	20351
888.891	20062
889.015	19978
889.139	19852
889.263	19890
889.387	20001
889.511	20130
889.635	19898
889.759	19826
889.883	19757
890.006	19693
890.13	19757
890.254	19594
890.377	19575
890.501	19339
890.624	19308
890.748	19537
890.871	19221
890.995	19160
891.118	19034
891.241	18993
891.364	19042
891.488	19164
891.611	19000
891.734	19027
891.857	19171
891.98	19053
892.103	18867
892.226	18920
892.349	18966
892.471	18658
892.594	18795
892.717	18814
892.839	18734
892.962	18764
893.085	18817
893.207	18795
893.33	18570
893.452	18547
893.575	18715
893.697	18521
893.819	18669
893.941	18757
894.064	18521
894.186	18486
894.308	18452
894.43	18635
894.552	18631
894.674	18456
894.796	18391
894.918	18422
895.04	18433
895.161	18426
895.283	18486
895.405	18296
895.526	18357
895.648	18384
895.769	18376
895.891	18338
896.012	18429
896.134	18361
896.255	18403
896.376	18243
896.498	18372
896.619	18441
896.74	18350
896.861	18437
896.982	18578
897.103	18700
897.224	18585
897.345	18448
897.466	18414
897.587	18517
897.708	18585
897.828	18589
897.949	18433
898.07	18414
898.19	18418
898.311	18528
898.431	18342
898.552	18490
898.672	18616
898.792	18608
898.913	18483
899.033	18391
899.153	18228
899.273	18136
899.393	18266
899.513	18350
899.633	18262
899.753	18209
899.873	18266
899.993	18277
900.113	18273
900.232	18289
900.352	18232
900.472	18136
900.591	18083
900.711	18171
900.83	18030
900.95	18220
901.069	18232
901.189	17980
901.308	17798
901.427	17661
901.546	17695
901.665	17596
901.784	17687
901.904	17493
902.023	17307
902.141	17273
902.26	17162
902.379	17212
902.498	17151
902.617	17075
902.735	17277
902.854	17037
902.973	17014
903.091	16710
903.21	16786
903.328	16812
903.446	16580
903.565	16554
903.683	16675
903.801	16379
903.919	16470
904.038	16436
904.156	16402
904.274	16382
904.392	16310
904.51	16284
904.627	16337
904.745	16405
904.863	16284
904.981	16124
905.098	15987
905.216	15911
905.334	16006
905.451	15899
905.569	15895
905.686	16013
905.803	16063
905.921	15682
906.038	15949
906.155	15850
906.272	15633
906.389	15762
906.506	15519
906.623	15412
906.74	15420
906.857	15386
906.974	15412
907.091	15534
907.208	15496
907.324	15534
907.441	15313
907.557	15230
907.674	15268
907.79	15127
907.907	15218
908.023	15123
908.139	15180
908.256	15100
908.372	15116
908.488	15028
908.604	15020
908.72	14868
908.836	14849
908.952	14849
909.068	14792
909.184	15058
909.3	14941
909.415	14830
909.531	14842
909.647	14701
909.762	14552
909.878	14629
909.993	14571
910.108	14594
910.224	14533
910.339	14533
910.454	14613
910.57	14412
910.685	14431
910.8	14754
910.915	14556
911.03	14495
911.145	14339
911.259	14263
911.374	14290
911.489	14161
911.604	14214
911.718	14046
911.833	14005
911.947	13986
912.062	13818
912.176	13982
912.291	13997
912.405	13955
912.519	14176
912.633	14180
912.748	14058
912.862	13970
912.976	13902
913.09	13708
913.204	13776
913.318	13772
913.431	13875
913.545	13875
913.659	13986
913.772	13799
913.886	13609
914	13571
914.113	13738
914.226	13807
914.34	13731
914.453	13666
914.566	13723
914.68	13499
914.793	13506
914.906	13339
915.019	13293
915.132	13247
915.245	13247
915.358	13339
915.47	13327
915.583	13327
915.696	13415
915.809	13510
915.921	13419
916.034	13293
916.146	13285
916.259	13285
916.371	13449
916.483	13316
916.595	13392
916.708	13308
916.82	13304
916.932	13308
917.044	13213
917.156	13183
917.268	13072
917.38	13088
917.491	13080
917.603	13072
917.715	13076
917.826	13137
917.938	12996
918.049	12924
918.161	13046
918.272	13164
918.384	13156
918.495	13023
918.606	12890
918.717	12760
918.828	12772
918.939	12779
919.05	12753
919.161	12825
919.272	12589
919.383	12696
919.494	12920
919.604	12985
919.715	12875
919.826	12665
919.936	12764
920.047	12882
920.157	12768
920.267	13012
920.378	12859
920.488	12840
920.598	12916
920.708	13118
920.818	12886
920.928	12996
921.038	13057
921.148	12958
921.258	12791
921.368	12665
921.477	12563
921.587	12490
921.697	12445
921.806	12498
921.916	12369
922.025	12353
922.134	12281
922.244	12152
922.353	12308
922.462	12106
922.571	12060
922.68	11859
922.789	11885
922.898	11821
923.007	11832
923.116	11840
923.224	11809
923.333	11798
923.442	11752
923.55	11726
923.659	11699
923.767	11817
923.876	11684
923.984	11802
924.092	11661
924.201	11756
924.309	11638
924.417	11680
924.525	11649
924.633	11649
924.741	12361
924.849	11368
924.956	11615
925.064	11440
925.172	11265
925.279	11364
925.387	11372
925.494	11334
925.602	11524
925.709	11520
925.816	11246
925.924	11334
926.031	11509
926.138	11410
926.245	11284
926.352	11220
926.459	11379
926.566	11452
926.673	11318
926.779	11227
926.886	11170
926.993	11094
927.099	11014
927.206	10828
927.312	10923
927.419	11075
927.525	10999
927.631	10995
927.737	10911
927.843	10869
927.95	10831
928.056	10854
928.162	10866
928.267	10911
928.373	11414
928.479	10965
928.585	10675
928.69	10717
928.796	10839
928.901	10771
929.007	10607
929.112	10698
929.218	10637
929.323	10672
929.428	10565
929.533	10691
929.638	10607
929.743	10603
929.848	10622
929.953	10588
930.058	10508
930.163	10375
930.267	10432
930.372	10565
930.477	10306
930.581	10443
930.685	10417
930.79	10204
930.894	10238
930.998	10238
931.103	10341
931.207	9994
931.311	9915
931.415	9827
931.519	9667
931.623	9686
