Data from test_V78500241_445.txt Node
Date: Fri Mar 25 14:36:49 CST 2022
User: usil
Spectrometer: V785-0024
Trigger mode: 0
Integration Time (sec): 4.000000E-1
Scans to average: 1
Nonlinearity correction enabled: false
Boxcar width: 0
Storing dark spectrum: false
XAxis mode: Wavelengths
Number of Pixels in Spectrum: 1024
>>>>>Begin Spectral Data<<<<<
801.071	26537
801.214	26450
801.356	26225
801.499	26073
801.641	26039
801.783	26031
801.926	25966
802.068	26012
802.211	25883
802.353	25799
802.496	25567
802.638	25635
802.78	25586
802.923	25567
803.065	25468
803.208	25426
803.35	25449
803.492	25502
803.635	25704
803.777	25556
803.919	25723
804.061	25807
804.204	25491
804.346	25491
804.488	25449
804.63	25479
804.773	25472
804.915	25548
805.057	25670
805.199	25472
805.341	25590
805.483	25670
805.626	25639
805.768	25476
805.91	25643
806.052	25575
806.194	25339
806.336	25616
806.478	25605
806.62	25499
806.762	25499
806.904	25807
807.046	26077
807.188	25883
807.33	25913
807.472	26005
807.614	25761
807.756	25879
807.898	25632
808.04	25643
808.182	25727
808.324	25666
808.465	25666
808.607	25871
808.749	25791
808.891	26111
809.033	26286
809.174	26031
809.316	25932
809.458	26024
809.6	26130
809.741	26084
809.883	26039
810.025	26313
810.166	26240
810.308	26180
810.45	26126
810.591	26187
810.733	25894
810.875	25902
811.016	25868
811.158	25765
811.299	25925
811.441	26012
811.582	25913
811.724	26008
811.865	25852
812.007	25674
812.148	25856
812.29	25833
812.431	25963
812.573	26142
812.714	26210
812.855	26301
812.997	26377
813.138	26499
813.279	26556
813.421	26282
813.562	26240
813.703	26157
813.845	26077
813.986	25696
814.127	25502
814.268	25377
814.41	25312
814.551	25476
814.692	25552
814.833	25377
814.974	25422
815.115	25365
815.256	25259
815.397	25320
815.539	25255
815.68	25190
815.821	25145
815.962	25038
816.103	25084
816.244	24905
816.385	24817
816.526	24886
816.666	24623
816.807	24517
816.948	24616
817.089	24688
817.23	24540
817.371	24525
817.512	24559
817.653	24505
817.793	24505
817.934	24418
818.075	24612
818.216	24532
818.356	24483
818.497	24357
818.638	24372
818.778	24155
818.919	24205
819.06	24266
819.2	24270
819.341	24445
819.481	24555
819.622	24787
819.762	24840
819.903	24654
820.043	24597
820.184	24540
820.324	24513
820.465	24608
820.605	24418
820.746	24525
820.886	24300
821.026	24433
821.167	24452
821.307	24540
821.447	24384
821.588	24247
821.728	24270
821.868	24034
822.008	23984
822.149	23794
822.289	23805
822.429	23646
822.569	23665
822.709	23501
822.849	23330
822.99	23307
823.13	23258
823.27	23269
823.41	23200
823.55	22987
823.69	23105
823.83	23090
823.97	23071
824.11	22858
824.25	22889
824.389	22843
824.529	23018
824.669	22873
824.809	22991
824.949	22991
825.089	22896
825.228	22843
825.368	22736
825.508	22656
825.648	22645
825.787	22748
825.927	22725
826.067	22622
826.206	22710
826.346	22748
826.485	22706
826.625	22660
826.765	22694
826.904	22694
827.044	22447
827.183	22169
827.323	22344
827.462	22382
827.601	22379
827.741	22360
827.88	22413
828.02	22185
828.159	22291
828.298	22356
828.437	22348
828.577	22303
828.716	22398
828.855	22280
828.994	22116
829.134	21918
829.273	22093
829.412	21949
829.551	21876
829.69	21975
829.829	21983
829.968	22120
830.107	22078
830.246	21991
830.385	21884
830.524	21884
830.663	21781
830.802	21747
830.941	21553
831.08	21595
831.219	21568
831.357	21686
831.496	21785
831.635	21599
831.774	21538
831.913	21435
832.051	21378
832.19	21329
832.329	21359
832.467	21302
832.606	21230
832.744	21123
832.883	21279
833.022	21169
833.16	21310
833.299	21237
833.437	21211
833.576	21272
833.714	21340
833.852	21424
833.991	21378
834.129	21336
834.267	21359
834.406	21294
834.544	21329
834.682	21310
834.821	21180
834.959	21310
835.097	21150
835.235	21199
835.373	21310
835.511	21252
835.65	21226
835.788	21157
835.926	21165
836.064	20990
836.202	20891
836.34	21173
836.478	21207
836.615	21096
836.753	21249
836.891	21203
837.029	21093
837.167	21138
837.305	21047
837.443	21123
837.58	21039
837.718	20998
837.856	20998
837.993	21001
838.131	20891
838.269	20941
838.406	20891
838.544	20853
838.681	20667
838.819	20773
838.956	20465
839.094	20434
839.231	20484
839.369	20625
839.506	20743
839.643	20697
839.781	20438
839.918	20339
840.055	20351
840.193	20317
840.33	20305
840.467	20427
840.604	20313
840.742	20495
840.879	20256
841.016	20290
841.153	20240
841.29	20423
841.427	20328
841.564	20278
841.701	20377
841.838	20263
841.975	20176
842.112	20237
842.249	20164
842.385	20084
842.522	20278
842.659	20100
842.796	20020
842.933	20001
843.069	19978
843.206	20024
843.343	20153
843.479	20050
843.616	20149
843.752	19662
843.889	19784
844.025	19898
844.162	19932
844.298	19879
844.435	19841
844.571	19841
844.708	19860
844.844	19932
844.98	19856
845.117	19974
845.253	19738
845.389	19594
845.525	19731
845.661	19807
845.798	19491
845.934	19578
846.07	19624
846.206	19567
846.342	19628
846.478	19514
846.614	19297
846.75	19259
846.886	19297
847.022	19358
847.158	19343
847.294	19270
847.429	19316
847.565	19179
847.701	19468
847.837	18928
847.972	18897
848.108	19168
848.244	19088
848.379	18916
848.515	18932
848.65	18760
848.786	18932
848.921	18897
849.057	18882
849.192	18916
849.328	18916
849.463	18730
849.598	18776
849.734	18715
849.869	18738
850.004	18646
850.14	18627
850.275	18703
850.41	18616
850.545	18559
850.68	18509
850.815	18639
850.95	18665
851.085	18802
851.22	18730
851.355	18563
851.49	18517
851.625	18574
851.76	18532
851.895	18486
852.03	18486
852.165	18612
852.299	18582
852.434	18688
852.569	18635
852.703	18585
852.838	18570
852.973	18677
853.107	18707
853.242	18536
853.376	18517
853.511	18281
853.645	18391
853.78	18521
853.914	18426
854.048	18350
854.183	18384
854.317	18361
854.451	18578
854.585	18498
854.72	18315
854.854	18460
854.988	18228
855.122	18464
855.256	18258
855.39	18353
855.524	18460
855.658	18384
855.792	18350
855.926	18433
856.06	18380
856.194	18456
856.327	18388
856.461	18334
856.595	18357
856.729	18319
856.862	18467
856.996	18467
857.13	18486
857.263	18475
857.397	18395
857.53	18296
857.664	18323
857.797	18448
857.931	18509
858.064	18467
858.197	18471
858.331	18350
858.464	18330
858.597	18209
858.731	18338
858.864	18327
858.997	18311
859.13	18239
859.263	18357
859.396	18426
859.529	18281
859.662	18243
859.795	18372
859.928	18380
860.061	18467
860.194	18547
860.327	18277
860.46	18384
860.592	18380
860.725	18391
860.858	18456
860.99	18342
861.123	18273
861.256	18224
861.388	18311
861.521	18996
861.653	18270
861.786	18049
861.918	18235
862.05	18213
862.183	18254
862.315	18452
862.447	18426
862.58	18342
862.712	18205
862.844	18106
862.976	18186
863.108	18136
863.24	18418
863.372	18060
863.504	17954
863.636	18136
863.768	18110
863.9	18045
864.032	18022
864.164	17980
864.296	18045
864.428	18083
864.559	18110
864.691	18266
864.823	18106
864.954	18026
865.086	18026
865.217	17969
865.349	17916
865.48	17904
865.612	17946
865.743	18011
865.875	17897
866.006	17931
866.137	17965
866.269	17901
866.4	18125
866.531	17927
866.662	17817
866.793	17923
866.924	17863
867.055	17908
867.186	17965
867.317	17851
867.448	17927
867.579	17832
867.71	17836
867.841	17901
867.972	17946
868.103	17935
868.233	17939
868.364	17863
868.495	17999
868.625	18106
868.756	18399
868.886	18194
869.017	18129
869.147	18300
869.278	18209
869.408	18091
869.539	18117
869.669	18209
869.799	18216
869.929	18224
870.06	18228
870.19	18509
870.32	18441
870.45	18399
870.58	18631
870.71	18814
870.84	18559
870.97	18574
871.1	18631
871.23	18738
871.36	18802
871.489	18681
871.619	18700
871.749	18741
871.879	18783
872.008	18878
872.138	18840
872.267	18639
872.397	18661
872.526	18604
872.656	18616
872.785	18623
872.915	18749
873.044	18722
873.173	18852
873.303	18890
873.432	18875
873.561	18875
873.69	18829
873.819	18787
873.948	18810
874.077	18840
874.206	18795
874.335	18711
874.464	18897
874.593	19027
874.722	19008
874.851	19209
874.979	19114
875.108	19209
875.237	19145
875.365	19084
875.494	19046
875.623	19107
875.751	19069
875.88	19076
876.008	19156
876.136	19285
876.265	19518
876.393	19719
876.521	19628
876.65	19567
876.778	19434
876.906	19396
877.034	19400
877.162	19491
877.29	19350
877.418	19411
877.546	19533
877.674	19464
877.802	19506
877.93	19499
878.058	19312
878.185	19400
878.313	19400
878.441	19453
878.568	19194
878.696	19434
878.824	19537
878.951	19483
879.079	19628
879.206	19769
879.333	19567
879.461	19460
879.588	19605
879.715	19799
879.842	19639
879.97	19548
880.097	19183
880.224	19289
880.351	19274
880.478	19346
880.605	19320
880.732	19206
880.859	19483
880.986	19301
881.112	19289
881.239	19179
881.366	18951
881.493	19008
881.619	18905
881.746	18977
881.872	18810
881.999	18897
882.125	18833
882.252	18996
882.378	18920
882.505	18981
882.631	18772
882.757	18726
882.883	18856
883.01	18684
883.136	18658
883.262	18502
883.388	18521
883.514	18684
883.64	18696
883.766	18582
883.892	18456
884.018	18509
884.143	18738
884.269	18738
884.395	18388
884.52	18429
884.646	18388
884.772	18384
884.897	18270
885.023	18262
885.148	18388
885.274	18445
885.399	18525
885.524	18410
885.65	18304
885.775	18395
885.9	18403
886.025	18403
886.15	18350
886.275	18213
886.4	18300
886.525	18205
886.65	18327
886.775	18270
886.9	18490
887.025	18509
887.149	18327
887.274	18133
887.399	18117
887.523	18174
887.648	18072
887.773	17996
887.897	18216
888.021	18174
888.146	18015
888.27	18243
888.395	18300
888.519	18194
888.643	18091
888.767	18167
888.891	18003
889.015	18003
889.139	18053
889.263	17942
889.387	17980
889.511	18072
889.635	18102
889.759	17901
889.883	17870
890.006	17942
890.13	18038
890.254	17874
890.377	17847
890.501	17718
890.624	17649
890.748	17741
890.871	17661
890.995	17532
891.118	17505
891.241	17551
891.364	17570
891.488	17600
891.611	17516
891.734	17570
891.857	17680
891.98	17600
892.103	17615
892.226	17524
892.349	17433
892.471	17402
892.594	17433
892.717	17516
892.839	17512
892.962	17486
893.085	17501
893.207	17630
893.33	17318
893.452	17524
893.575	17627
893.697	17391
893.819	17642
893.941	17687
894.064	17718
894.186	17482
894.308	17402
894.43	17501
894.552	17566
894.674	17646
894.796	17459
894.918	17516
895.04	17376
895.161	17596
895.283	17471
895.405	17440
895.526	17627
895.648	17452
895.769	17554
895.891	17539
896.012	17558
896.134	17642
896.255	17551
896.376	17490
896.498	17577
896.619	17623
896.74	17684
896.861	17714
896.982	17908
897.103	18095
897.224	17912
897.345	17783
897.466	17786
897.587	17912
897.708	17805
897.828	17863
897.949	17733
898.07	17608
898.19	17824
898.311	17790
898.431	17718
898.552	17775
898.672	17863
898.792	17878
898.913	17794
899.033	17718
899.153	17691
899.273	17417
899.393	17581
899.513	17570
899.633	17661
899.753	17570
899.873	17539
899.993	17589
900.113	17592
900.232	17608
900.352	17478
900.472	17497
900.591	17376
900.711	17425
900.83	17395
900.95	17452
901.069	17509
901.189	17398
901.308	17162
901.427	17022
901.546	17098
901.665	17117
901.784	17094
901.904	16885
902.023	16816
902.141	16634
902.26	16508
902.379	16679
902.498	16531
902.617	16493
902.735	16535
902.854	16573
902.973	16489
903.091	16143
903.21	16226
903.328	16253
903.446	16219
903.565	16090
903.683	16093
903.801	15964
903.919	16029
904.038	16078
904.156	15895
904.274	15873
904.392	15876
904.51	15823
904.627	15827
904.745	15911
904.863	15953
904.981	15705
905.098	15481
905.216	15477
905.334	15523
905.451	15561
905.569	15473
905.686	15530
905.803	15606
905.921	15256
906.038	15431
906.155	15393
906.272	15283
906.389	15332
906.506	15150
906.623	15116
906.74	15066
906.857	14899
906.974	14925
907.091	15173
907.208	15218
907.324	15195
907.441	14971
907.557	14876
907.674	14785
907.79	14701
907.907	14785
908.023	14769
908.139	14845
908.256	14651
908.372	14651
908.488	14594
908.604	14473
908.72	14488
908.836	14590
908.952	14480
909.068	14404
909.184	14594
909.3	14446
909.415	14568
909.531	14503
909.647	14339
909.762	14248
909.878	14202
909.993	14191
910.108	14240
910.224	14157
910.339	14191
910.454	14069
910.57	14008
910.685	14039
910.8	14214
910.915	14225
911.03	14111
911.145	13928
911.259	13826
911.374	13894
911.489	13826
911.604	13769
911.718	13639
911.833	13594
911.947	13495
912.062	13411
912.176	13556
912.291	13540
912.405	13643
912.519	13753
912.633	13769
912.748	13643
912.862	13544
912.976	13392
913.09	13259
913.204	13407
913.318	13514
913.431	13472
913.545	13468
913.659	13533
913.772	13381
913.886	13373
914	13278
914.113	13388
914.226	13388
914.34	13274
914.453	13206
914.566	13293
914.68	13206
914.793	13171
914.906	12993
915.019	12981
915.132	12867
915.245	12920
915.358	12939
915.47	12981
915.583	12928
915.696	12970
915.809	13095
915.921	13061
916.034	12924
916.146	12894
916.259	12920
916.371	12890
916.483	12973
916.595	12810
916.708	12844
916.82	12768
916.932	12867
917.044	12745
917.156	12703
917.268	12703
917.38	12734
917.491	12627
917.603	12760
917.715	12802
917.826	12658
917.938	12540
918.049	12589
918.161	12673
918.272	12684
918.384	12787
918.495	12703
918.606	12486
918.717	12319
918.828	12498
918.939	12494
919.05	12407
919.161	12426
919.272	12315
919.383	12346
919.494	12494
919.604	12700
919.715	12403
919.826	12262
919.936	12414
920.047	12467
920.157	12475
920.267	12681
920.378	12483
920.488	12464
920.598	12566
920.708	12688
920.818	12544
920.928	12471
921.038	12726
921.148	12703
921.258	12426
921.368	12346
921.477	12209
921.587	12220
921.697	12026
921.806	12270
921.916	12224
922.025	11977
922.134	11973
922.244	11836
922.353	11942
922.462	11767
922.571	11665
922.68	11600
922.789	11547
922.898	11608
923.007	11497
923.116	11615
923.224	11573
923.333	11600
923.442	11337
923.55	11463
923.659	11360
923.767	11433
923.876	11391
923.984	11364
924.092	11239
924.201	11231
924.309	11345
924.417	11379
924.525	11280
924.633	11277
924.741	12384
924.849	11178
924.956	11235
925.064	11181
925.172	11041
925.279	11079
925.387	11064
925.494	11067
925.602	11254
925.709	11029
925.816	11029
925.924	11014
926.031	11136
926.138	11083
926.245	11041
926.352	10946
926.459	11113
926.566	11208
926.673	11014
926.779	10866
926.886	10881
926.993	10675
927.099	10694
927.206	10721
927.312	10664
927.419	10729
927.525	10801
927.631	10801
927.737	10577
927.843	10535
927.95	10455
928.056	10554
928.162	10580
928.267	10679
928.373	11269
928.479	10634
928.585	10375
928.69	10512
928.796	10546
928.901	10417
929.007	10409
929.112	10466
929.218	10356
929.323	10318
929.428	10284
929.533	10443
929.638	10272
929.743	10295
929.848	10390
929.953	10314
930.058	10200
930.163	10051
930.267	10090
930.372	10223
930.477	10002
930.581	10192
930.685	10082
930.79	9918
930.894	9975
930.998	9937
931.103	10105
931.207	9732
931.311	9629
931.415	9629
931.519	9370
931.623	9397
