Data from test_V78500241_1504.txt Node
Date: Fri Mar 25 14:44:11 CST 2022
User: usil
Spectrometer: V785-0024
Trigger mode: 0
Integration Time (sec): 4.000000E-1
Scans to average: 1
Nonlinearity correction enabled: false
Boxcar width: 0
Storing dark spectrum: false
XAxis mode: Wavelengths
Number of Pixels in Spectrum: 1024
>>>>>Begin Spectral Data<<<<<
801.071	22386
801.214	22394
801.356	22158
801.499	21865
801.641	21838
801.783	21671
801.926	21759
802.068	21728
802.211	21610
802.353	21500
802.496	21264
802.638	21241
802.78	21188
802.923	21116
803.065	21028
803.208	21081
803.35	21154
803.492	21077
803.635	21287
803.777	21108
803.919	21203
804.061	21378
804.204	21245
804.346	21077
804.488	20861
804.63	21043
804.773	20937
804.915	21020
805.057	21161
805.199	21066
805.341	21154
805.483	21070
805.626	21112
805.768	20929
805.91	21005
806.052	21051
806.194	20956
806.336	21173
806.478	20971
806.62	21074
806.762	21108
806.904	21279
807.046	21420
807.188	21355
807.33	21359
807.472	21564
807.614	21355
807.756	21275
807.898	21222
808.04	21142
808.182	21207
808.324	21199
808.465	21199
808.607	21416
808.749	21637
808.891	21755
809.033	21724
809.174	21523
809.316	21488
809.458	21542
809.6	21321
809.741	21622
809.883	21553
810.025	21671
810.166	21663
810.308	21515
810.45	21644
810.591	21507
810.733	21321
810.875	21249
811.016	21237
811.158	21169
811.299	21256
811.441	21378
811.582	21294
811.724	21154
811.865	21207
812.007	21241
812.148	21108
812.29	21188
812.431	21382
812.573	21580
812.714	21564
812.855	21660
812.997	21759
813.138	22006
813.279	21739
813.421	21713
813.562	21526
813.703	21386
813.845	21363
813.986	21051
814.127	20899
814.268	20788
814.41	20739
814.551	20724
814.692	20735
814.833	20667
814.974	20674
815.115	20598
815.256	20625
815.397	20564
815.539	20545
815.68	20412
815.821	20495
815.962	20469
816.103	20434
816.244	20328
816.385	20263
816.526	20218
816.666	20111
816.807	19902
816.948	19989
817.089	20054
817.23	19982
817.371	19864
817.512	19849
817.653	19860
817.793	19814
817.934	19830
818.075	19883
818.216	19852
818.356	19902
818.497	19708
818.638	19556
818.778	19567
818.919	19510
819.06	19594
819.2	19651
819.341	19822
819.481	19635
819.622	19852
819.762	20043
819.903	19986
820.043	19925
820.184	19909
820.324	19841
820.465	19868
820.605	19826
820.746	19776
820.886	19693
821.026	19788
821.167	19784
821.307	19936
821.447	19753
821.588	19670
821.728	19674
821.868	19441
822.008	19164
822.149	19282
822.289	19225
822.429	18954
822.569	18977
822.709	19027
822.849	18840
822.99	18757
823.13	18768
823.27	18795
823.41	18528
823.55	18532
823.69	18620
823.83	18570
823.97	18616
824.11	18292
824.25	18304
824.389	18334
824.529	18304
824.669	18350
824.809	18346
824.949	18403
825.089	18365
825.228	18391
825.368	18167
825.508	18140
825.648	18133
825.787	18247
825.927	18243
826.067	18159
826.206	17977
826.346	18159
826.485	18228
826.625	18102
826.765	18220
826.904	18144
827.044	17889
827.183	17878
827.323	17733
827.462	17851
827.601	17824
827.741	17745
827.88	17863
828.02	17699
828.159	17874
828.298	17855
828.437	17935
828.577	17821
828.716	17950
828.855	17843
828.994	17657
829.134	17554
829.273	17482
829.412	17627
829.551	17486
829.69	17535
829.829	17547
829.968	17608
830.107	17623
830.246	17623
830.385	17554
830.524	17490
830.663	17292
830.802	17322
830.941	17178
831.08	17075
831.219	17258
831.357	17227
831.496	17398
831.635	17143
831.774	17155
831.913	17022
832.051	16938
832.19	16942
832.329	17056
832.467	16831
832.606	16694
832.744	16854
832.883	16835
833.022	16805
833.16	16809
833.299	16774
833.437	16949
833.576	16767
833.714	16881
833.852	16957
833.991	16984
834.129	17029
834.267	16923
834.406	16995
834.544	16980
834.682	16866
834.821	17006
834.959	17067
835.097	16774
835.235	17037
835.373	16987
835.511	16919
835.65	16771
835.788	16653
835.926	16554
836.064	16603
836.202	16596
836.34	16858
836.478	16850
836.615	16869
836.753	16889
836.891	16790
837.029	16854
837.167	16748
837.305	16771
837.443	16679
837.58	16725
837.718	16763
837.856	16687
837.993	16615
838.131	16603
838.269	16603
838.406	16561
838.544	16451
838.681	16344
838.819	16333
838.956	16192
839.094	16192
839.231	16280
839.369	16344
839.506	16596
839.643	16386
839.781	16139
839.918	16181
840.055	16303
840.193	16162
840.33	16185
840.467	16185
840.604	16173
840.742	16531
840.879	16048
841.016	16162
841.153	16128
841.29	16242
841.427	16162
841.564	16230
841.701	16284
841.838	16051
841.975	16131
842.112	16139
842.249	16025
842.385	15953
842.522	16116
842.659	16078
842.796	15979
842.933	16013
843.069	15994
843.206	15949
843.343	16002
843.479	15915
843.616	16017
843.752	15755
843.889	15694
844.025	15819
844.162	15762
844.298	15823
844.435	15797
844.571	15709
844.708	15861
844.844	15842
844.98	15823
845.117	15964
845.253	15789
845.389	15698
845.525	15781
845.661	15789
845.798	15717
845.934	15842
846.07	15804
846.206	15808
846.342	15846
846.478	15698
846.614	15473
846.75	15317
846.886	15332
847.022	15416
847.158	15294
847.294	15359
847.429	15310
847.565	15313
847.701	15504
847.837	15055
847.972	15043
848.108	15188
848.244	15005
848.379	14937
848.515	14910
848.65	14963
848.786	15036
848.921	14986
849.057	14975
849.192	14994
849.328	15032
849.463	15066
849.598	14819
849.734	14807
849.869	14880
850.004	14735
850.14	14792
850.275	14773
850.41	14632
850.545	14682
850.68	14621
850.815	14727
850.95	14678
851.085	14830
851.22	14838
851.355	14670
851.49	14663
851.625	14693
851.76	14640
851.895	14556
852.03	14629
852.165	14663
852.299	14712
852.434	14674
852.569	14762
852.703	14632
852.838	14804
852.973	14891
853.107	14857
853.242	14682
853.376	14613
853.511	14404
853.645	14556
853.78	14659
853.914	14552
854.048	14549
854.183	14492
854.317	14537
854.451	14705
854.585	14518
854.72	14514
854.854	14686
854.988	14446
855.122	14518
855.256	14393
855.39	14537
855.524	14655
855.658	14667
855.792	14568
855.926	14693
856.06	14590
856.194	14602
856.327	14568
856.461	14571
856.595	14495
856.729	14575
856.862	14667
856.996	14708
857.13	14579
857.263	14674
857.397	14648
857.53	14556
857.664	14693
857.797	14735
857.931	14644
858.064	14682
858.197	14701
858.331	14655
858.464	14545
858.597	14393
858.731	14617
858.864	14659
858.997	14571
859.13	14716
859.263	14659
859.396	14743
859.529	14579
859.662	14594
859.795	14549
859.928	14602
860.061	14731
860.194	14754
860.327	14575
860.46	14610
860.592	14716
860.725	14689
860.858	14670
860.99	14617
861.123	14480
861.256	14686
861.388	14518
861.521	15173
861.653	14533
861.786	14454
861.918	14427
862.05	14549
862.183	14625
862.315	14648
862.447	14648
862.58	14560
862.712	14309
862.844	14233
862.976	14518
863.108	14492
863.24	14777
863.372	14256
863.504	14343
863.636	14317
863.768	14427
863.9	14404
864.032	14305
864.164	14377
864.296	14396
864.428	14488
864.559	14526
864.691	14522
864.823	14484
864.954	14377
865.086	14450
865.217	14347
865.349	14328
865.48	14286
865.612	14404
865.743	14442
865.875	14332
866.006	14252
866.137	14358
866.269	14305
866.4	14320
866.531	14355
866.662	14221
866.793	14248
866.924	14313
867.055	14324
867.186	14263
867.317	14362
867.448	14267
867.579	14328
867.71	14290
867.841	14168
867.972	14328
868.103	14248
868.233	14431
868.364	14408
868.495	14412
868.625	14648
868.756	14754
868.886	14564
869.017	14549
869.147	14720
869.278	14750
869.408	14610
869.539	14533
869.669	14819
869.799	14621
869.929	14750
870.06	14693
870.19	15005
870.32	14868
870.45	14914
870.58	15013
870.71	15085
870.84	15085
870.97	14929
871.1	14929
871.23	15188
871.36	15165
871.489	15150
871.619	15260
871.749	15116
871.879	15165
872.008	15279
872.138	15245
872.267	15252
872.397	15013
872.526	14986
872.656	15001
872.785	14944
872.915	15233
873.044	15176
873.173	15256
873.303	15279
873.432	15291
873.561	15275
873.69	15211
873.819	15260
873.948	15344
874.077	15264
874.206	15207
874.335	15306
874.464	15389
874.593	15538
874.722	15477
874.851	15606
874.979	15614
875.108	15603
875.237	15511
875.365	15462
875.494	15648
875.623	15599
875.751	15568
875.88	15610
876.008	15724
876.136	15778
876.265	15987
876.393	16086
876.521	16040
876.65	16029
876.778	15983
876.906	15937
877.034	15934
877.162	15937
877.29	15808
877.418	15945
877.546	16032
877.674	16036
877.802	15953
877.93	15926
878.058	15960
878.185	15926
878.313	16006
878.441	15911
878.568	15892
878.696	15884
878.824	16055
878.951	16143
879.079	16109
879.206	16314
879.333	16242
879.461	16086
879.588	16226
879.715	16268
879.842	16493
879.97	16116
880.097	15861
880.224	15819
880.351	15857
880.478	15804
880.605	15888
880.732	15713
880.859	16067
880.986	15838
881.112	15869
881.239	15808
881.366	15633
881.493	15591
881.619	15507
881.746	15603
881.872	15389
881.999	15447
882.125	15542
882.252	15622
882.378	15587
882.505	15652
882.631	15367
882.757	15279
882.883	15313
883.01	15321
883.136	15226
883.262	15138
883.388	15100
883.514	15351
883.64	15211
883.766	15245
883.892	15116
884.018	15173
884.143	15226
884.269	15283
884.395	15112
884.52	15036
884.646	14982
884.772	14979
884.897	14937
885.023	15047
885.148	15070
885.274	15214
885.399	15024
885.524	15009
885.65	15097
885.775	14960
885.9	15020
886.025	15195
886.15	15020
886.275	14956
886.4	14941
886.525	14952
886.65	14967
886.775	14883
886.9	15047
887.025	15184
887.149	15070
887.274	14899
887.399	14739
887.523	14826
887.648	14739
887.773	14743
887.897	14773
888.021	14906
888.146	14739
888.27	14910
888.395	14956
888.519	14792
888.643	14887
888.767	14826
888.891	14712
889.015	14648
889.139	14712
889.263	14579
889.387	14667
889.511	14853
889.635	14720
889.759	14708
889.883	14724
890.006	14739
890.13	14735
890.254	14587
890.377	14552
890.501	14571
890.624	14332
890.748	14571
890.871	14442
890.995	14374
891.118	14210
891.241	14305
891.364	14404
891.488	14587
891.611	14301
891.734	14351
891.857	14507
891.98	14404
892.103	14484
892.226	14446
892.349	14282
892.471	14161
892.594	14339
892.717	14454
892.839	14301
892.962	14271
893.085	14385
893.207	14427
893.33	14278
893.452	14229
893.575	14374
893.697	14290
893.819	14499
893.941	14606
894.064	14469
894.186	14355
894.308	14275
894.43	14503
894.552	14575
894.674	14457
894.796	14332
894.918	14374
895.04	14328
895.161	14465
895.283	14495
895.405	14415
895.526	14514
895.648	14514
895.769	14476
895.891	14552
896.012	14492
896.134	14549
896.255	14514
896.376	14495
896.498	14457
896.619	14598
896.74	14495
896.861	14583
896.982	14872
897.103	15028
897.224	14796
897.345	14743
897.466	14617
897.587	14655
897.708	14868
897.828	14845
897.949	14796
898.07	14617
898.19	14754
898.311	14849
898.431	14823
898.552	14769
898.672	15013
898.792	15009
898.913	14861
899.033	14819
899.153	14674
899.273	14689
899.393	14697
899.513	14701
899.633	14712
899.753	14686
899.873	14655
899.993	14769
900.113	14739
900.232	14842
900.352	14746
900.472	14663
900.591	14530
900.711	14674
900.83	14454
900.95	14617
901.069	14792
901.189	14575
901.308	14396
901.427	14229
901.546	14278
901.665	14298
901.784	14263
901.904	14126
902.023	13967
902.141	13791
902.26	13814
902.379	13894
902.498	13830
902.617	13780
902.735	13837
902.854	13788
902.973	13746
903.091	13540
903.21	13537
903.328	13586
903.446	13468
903.565	13316
903.683	13422
903.801	13263
903.919	13464
904.038	13350
904.156	13179
904.274	13168
904.392	13160
904.51	13171
904.627	13255
904.745	13263
904.863	13274
904.981	12901
905.098	12817
905.216	12814
905.334	13015
905.451	12924
905.569	12856
905.686	12932
905.803	12996
905.921	12646
906.038	12741
906.155	12627
906.272	12692
906.389	12677
906.506	12502
906.623	12490
906.74	12437
906.857	12300
906.974	12357
907.091	12589
907.208	12536
907.324	12585
907.441	12445
907.557	12178
907.674	12296
907.79	12106
907.907	12216
908.023	12178
908.139	12182
908.256	12114
908.372	12155
908.488	12125
908.604	12041
908.72	12011
908.836	12003
908.952	11901
909.068	11961
909.184	12064
909.3	11889
909.415	11984
909.531	11965
909.647	11843
909.762	11699
909.878	11649
909.993	11741
910.108	11764
910.224	11718
910.339	11771
910.454	11729
910.57	11668
910.685	11532
910.8	11866
910.915	11688
911.03	11665
911.145	11433
911.259	11372
911.374	11463
911.489	11353
911.604	11284
911.718	11220
911.833	11170
911.947	11018
912.062	10968
912.176	11178
912.291	11239
912.405	11155
912.519	11330
912.633	11383
912.748	11223
912.862	11204
912.976	10968
913.09	10972
913.204	11113
913.318	11098
913.431	11197
913.545	11197
913.659	11121
913.772	11052
913.886	11003
914	10942
914.113	11010
914.226	11071
914.34	11056
914.453	10839
914.566	11010
914.68	10908
914.793	10812
914.906	10759
915.019	10714
915.132	10618
915.245	10675
915.358	10736
915.47	10653
915.583	10710
915.696	10752
915.809	10858
915.921	10793
916.034	10752
916.146	10611
916.259	10683
916.371	10698
916.483	10683
916.595	10546
916.708	10607
916.82	10630
916.932	10668
917.044	10607
917.156	10607
917.268	10478
917.38	10481
917.491	10478
917.603	10558
917.715	10584
917.826	10607
917.938	10481
918.049	10386
918.161	10493
918.272	10649
918.384	10622
918.495	10615
918.606	10379
918.717	10299
918.828	10352
918.939	10398
919.05	10325
919.161	10409
919.272	10215
919.383	10276
919.494	10481
919.604	10653
919.715	10394
919.826	10268
919.936	10417
920.047	10421
920.157	10459
920.267	10630
920.378	10409
920.488	10398
920.598	10645
920.708	10721
920.818	10653
920.928	10596
921.038	10721
921.148	10668
921.258	10447
921.368	10337
921.477	10192
921.587	10196
921.697	10093
921.806	10234
921.916	10067
922.025	9975
922.134	9922
922.244	9854
922.353	9953
922.462	9854
922.571	9778
922.68	9660
922.789	9652
922.898	9656
923.007	9572
923.116	9709
923.224	9644
923.333	9599
923.442	9515
923.55	9519
923.659	9515
923.767	9564
923.876	9545
923.984	9538
924.092	9473
924.201	9526
924.309	9496
924.417	9507
924.525	9412
924.633	9519
924.741	10474
924.849	9275
924.956	9496
925.064	9268
925.172	9241
925.279	9279
925.387	9253
925.494	9313
925.602	9439
925.709	9370
925.816	9291
925.924	9268
926.031	9370
926.138	9272
926.245	9321
926.352	9260
926.459	9344
926.566	9363
926.673	9241
926.779	9188
926.886	9146
926.993	9043
927.099	9005
927.206	8963
927.312	8948
927.419	8994
927.525	9020
927.631	9051
927.737	8971
927.843	8880
927.95	8849
928.056	8876
928.162	8910
928.267	8990
928.373	9473
928.479	8986
928.585	8766
928.69	8918
928.796	8906
928.901	8830
929.007	8708
929.112	8792
929.218	8750
929.323	8689
929.428	8735
929.533	8899
929.638	8621
929.743	8697
929.848	8792
929.953	8663
930.058	8617
930.163	8499
930.267	8537
930.372	8670
930.477	8492
930.581	8659
930.685	8552
930.79	8457
930.894	8408
930.998	8400
931.103	8480
931.207	8286
931.311	8126
931.415	8214
931.519	7906
931.623	7936
