Data from test_V78500241_1420.txt Node
Date: Fri Mar 25 14:43:36 CST 2022
User: usil
Spectrometer: V785-0024
Trigger mode: 0
Integration Time (sec): 4.000000E-1
Scans to average: 1
Nonlinearity correction enabled: false
Boxcar width: 0
Storing dark spectrum: false
XAxis mode: Wavelengths
Number of Pixels in Spectrum: 1024
>>>>>Begin Spectral Data<<<<<
801.071	22474
801.214	22284
801.356	22109
801.499	21926
801.641	21778
801.783	21747
801.926	21827
802.068	21648
802.211	21705
802.353	21507
802.496	21431
802.638	21313
802.78	21272
802.923	21146
803.065	21161
803.208	21173
803.35	21119
803.492	21279
803.635	21275
803.777	21127
803.919	21279
804.061	21466
804.204	21203
804.346	21047
804.488	21028
804.63	21070
804.773	20944
804.915	21070
805.057	21180
805.199	21131
805.341	21199
805.483	21275
805.626	21119
805.768	21047
805.91	20956
806.052	21081
806.194	20948
806.336	21176
806.478	21127
806.62	20994
806.762	21142
806.904	21199
807.046	21435
807.188	21405
807.33	21386
807.472	21405
807.614	21447
807.756	21504
807.898	21317
808.04	21252
808.182	21317
808.324	21325
808.465	21344
808.607	21580
808.749	21720
808.891	21774
809.033	21876
809.174	21622
809.316	21583
809.458	21591
809.6	21439
809.741	21732
809.883	21485
810.025	21743
810.166	21679
810.308	21686
810.45	21622
810.591	21561
810.733	21340
810.875	21344
811.016	21211
811.158	21192
811.299	21355
811.441	21386
811.582	21431
811.724	21279
811.865	21275
812.007	21165
812.148	21279
812.29	21336
812.431	21519
812.573	21507
812.714	21690
812.855	21747
812.997	21869
813.138	21899
813.279	21876
813.421	21755
813.562	21622
813.703	21424
813.845	21382
813.986	21112
814.127	20937
814.268	20883
814.41	20781
814.551	20773
814.692	20929
814.833	20659
814.974	20788
815.115	20606
815.256	20598
815.397	20606
815.539	20533
815.68	20537
815.821	20495
815.962	20545
816.103	20499
816.244	20336
816.385	20282
816.526	20225
816.666	20081
816.807	19974
816.948	19997
817.089	20001
817.23	20115
817.371	19860
817.512	19898
817.653	19875
817.793	19875
817.934	19928
818.075	19913
818.216	19959
818.356	19860
818.497	19750
818.638	19605
818.778	19674
818.919	19635
819.06	19578
819.2	19822
819.341	19738
819.481	19890
819.622	19940
819.762	20126
819.903	20103
820.043	20088
820.184	19887
820.324	19936
820.465	19970
820.605	20027
820.746	19890
820.886	19776
821.026	19902
821.167	19833
821.307	19826
821.447	19814
821.588	19681
821.728	19651
821.868	19468
822.008	19202
822.149	19304
822.289	19213
822.429	18981
822.569	19072
822.709	19114
822.849	18749
822.99	18829
823.13	18825
823.27	18700
823.41	18604
823.55	18574
823.69	18536
823.83	18601
823.97	18654
824.11	18479
824.25	18414
824.389	18456
824.529	18388
824.669	18361
824.809	18563
824.949	18509
825.089	18395
825.228	18494
825.368	18319
825.508	18117
825.648	18079
825.787	18232
825.927	18247
826.067	18129
826.206	18114
826.346	18205
826.485	18190
826.625	18163
826.765	18315
826.904	18220
827.044	18136
827.183	17927
827.323	18019
827.462	18007
827.601	17904
827.741	17859
827.88	17878
828.02	17821
828.159	17840
828.298	18015
828.437	17870
828.577	17920
828.716	18015
828.855	17851
828.994	17756
829.134	17752
829.273	17745
829.412	17524
829.551	17528
829.69	17661
829.829	17676
829.968	17847
830.107	17653
830.246	17665
830.385	17512
830.524	17459
830.663	17463
830.802	17440
830.941	17204
831.08	17303
831.219	17379
831.357	17387
831.496	17490
831.635	17223
831.774	17284
831.913	17136
832.051	17105
832.19	16991
832.329	17048
832.467	16904
832.606	16866
832.744	16984
832.883	16938
833.022	16904
833.16	16976
833.299	16980
833.437	17045
833.576	17025
833.714	17006
833.852	17033
833.991	17094
834.129	17022
834.267	17121
834.406	17140
834.544	17048
834.682	16953
834.821	17022
834.959	17239
835.097	17064
835.235	17079
835.373	17045
835.511	17003
835.65	16831
835.788	16953
835.926	16725
836.064	16698
836.202	16797
836.34	16915
836.478	16984
836.615	16824
836.753	16968
836.891	16930
837.029	16957
837.167	16877
837.305	16816
837.443	16793
837.58	16771
837.718	16824
837.856	16702
837.993	16679
838.131	16790
838.269	16721
838.406	16649
838.544	16618
838.681	16428
838.819	16379
838.956	16333
839.094	16306
839.231	16371
839.369	16455
839.506	16687
839.643	16554
839.781	16318
839.918	16291
840.055	16318
840.193	16325
840.33	16215
840.467	16348
840.604	16344
840.742	16550
840.879	16299
841.016	16173
841.153	16169
841.29	16314
841.427	16234
841.564	16417
841.701	16333
841.838	16306
841.975	16223
842.112	16295
842.249	16086
842.385	16097
842.522	16303
842.659	16063
842.796	16169
842.933	16147
843.069	16067
843.206	16025
843.343	16147
843.479	16116
843.616	16173
843.752	16044
843.889	15838
844.025	16036
844.162	15869
844.298	15926
844.435	15857
844.571	15789
844.708	15960
844.844	15994
844.98	16044
845.117	15979
845.253	15827
845.389	15751
845.525	15869
845.661	15941
845.798	15895
845.934	16082
846.07	15975
846.206	15922
846.342	16013
846.478	15854
846.614	15606
846.75	15454
846.886	15477
847.022	15534
847.158	15580
847.294	15378
847.429	15492
847.565	15397
847.701	15641
847.837	15188
847.972	15138
848.108	15199
848.244	15218
848.379	15138
848.515	15047
848.65	15047
848.786	15017
848.921	15173
849.057	15119
849.192	15081
849.328	15138
849.463	15093
849.598	14963
849.734	15043
849.869	14838
850.004	14750
850.14	14853
850.275	14830
850.41	14670
850.545	14762
850.68	14731
850.815	14785
850.95	14815
851.085	14857
851.22	14872
851.355	14712
851.49	14701
851.625	14804
851.76	14693
851.895	14701
852.03	14724
852.165	14644
852.299	14876
852.434	14902
852.569	14739
852.703	14864
852.838	14933
852.973	14883
853.107	14941
853.242	14731
853.376	14708
853.511	14541
853.645	14602
853.78	14743
853.914	14693
854.048	14613
854.183	14587
854.317	14686
854.451	14899
854.585	14739
854.72	14674
854.854	14727
854.988	14590
855.122	14552
855.256	14446
855.39	14560
855.524	14697
855.658	14667
855.792	14651
855.926	14663
856.06	14689
856.194	14754
856.327	14667
856.461	14686
856.595	14571
856.729	14659
856.862	14648
856.996	14727
857.13	14796
857.263	14762
857.397	14739
857.53	14655
857.664	14750
857.797	14788
857.931	14678
858.064	14598
858.197	14785
858.331	14674
858.464	14583
858.597	14610
858.731	14686
858.864	14632
858.997	14629
859.13	14606
859.263	14655
859.396	14804
859.529	14598
859.662	14670
859.795	14602
859.928	14678
860.061	14792
860.194	14792
860.327	14648
860.46	14712
860.592	14708
860.725	14727
860.858	14762
860.99	14606
861.123	14537
861.256	14545
861.388	14644
861.521	15469
861.653	14541
861.786	14480
861.918	14465
862.05	14598
862.183	14632
862.315	14667
862.447	14678
862.58	14712
862.712	14473
862.844	14400
862.976	14480
863.108	14495
863.24	14933
863.372	14431
863.504	14438
863.636	14465
863.768	14374
863.9	14415
864.032	14290
864.164	14385
864.296	14473
864.428	14571
864.559	14537
864.691	14454
864.823	14427
864.954	14450
865.086	14457
865.217	14393
865.349	14332
865.48	14381
865.612	14404
865.743	14526
865.875	14385
866.006	14381
866.137	14457
866.269	14419
866.4	14339
866.531	14343
866.662	14332
866.793	14351
866.924	14370
867.055	14393
867.186	14370
867.317	14465
867.448	14305
867.579	14298
867.71	14336
867.841	14278
867.972	14393
868.103	14400
868.233	14457
868.364	14423
868.495	14518
868.625	14674
868.756	14777
868.886	14590
869.017	14682
869.147	14731
869.278	14807
869.408	14617
869.539	14632
869.669	14682
869.799	14636
869.929	14667
870.06	14788
870.19	14967
870.32	14967
870.45	14834
870.58	14990
870.71	15211
870.84	15119
870.97	15009
871.1	15150
871.23	15294
871.36	15306
871.489	15157
871.619	15192
871.749	15310
871.879	15241
872.008	15355
872.138	15245
872.267	15203
872.397	15108
872.526	14948
872.656	15024
872.785	15066
872.915	15256
873.044	15351
873.173	15329
873.303	15374
873.432	15283
873.561	15317
873.69	15287
873.819	15241
873.948	15370
874.077	15245
874.206	15241
874.335	15340
874.464	15469
874.593	15504
874.722	15473
874.851	15633
874.979	15599
875.108	15728
875.237	15549
875.365	15485
875.494	15652
875.623	15698
875.751	15576
875.88	15766
876.008	15759
876.136	15778
876.265	15983
876.393	16109
876.521	16158
876.65	16048
876.778	16131
876.906	15994
877.034	15960
877.162	15903
877.29	15876
877.418	15994
877.546	16021
877.674	16055
877.802	15926
877.93	15998
878.058	15972
878.185	15979
878.313	16086
878.441	16071
878.568	15823
878.696	16029
878.824	16128
878.951	16086
879.079	16211
879.206	16455
879.333	16325
879.461	16204
879.588	16303
879.715	16314
879.842	16504
879.97	16200
880.097	15941
880.224	15899
880.351	15991
880.478	15857
880.605	15797
880.732	15903
880.859	16120
880.986	15869
881.112	15892
881.239	15804
881.366	15622
881.493	15720
881.619	15519
881.746	15580
881.872	15576
881.999	15599
882.125	15534
882.252	15606
882.378	15591
882.505	15690
882.631	15492
882.757	15378
882.883	15469
883.01	15481
883.136	15241
883.262	15256
883.388	15180
883.514	15393
883.64	15496
883.766	15332
883.892	15195
884.018	15252
884.143	15355
884.269	15412
884.395	15100
884.52	15013
884.646	15077
884.772	15017
884.897	14971
885.023	15066
885.148	15188
885.274	15199
885.399	15226
885.524	15077
885.65	15108
885.775	15093
885.9	15017
886.025	15070
886.15	15108
886.275	14960
886.4	14895
886.525	14998
886.65	14872
886.775	15081
886.9	15173
887.025	15249
887.149	15024
887.274	14937
887.399	14857
887.523	14804
887.648	14724
887.773	14800
887.897	15009
888.021	14990
888.146	14788
888.27	14933
888.395	15020
888.519	14918
888.643	14998
888.767	14918
888.891	14781
889.015	14617
889.139	14674
889.263	14686
889.387	14842
889.511	14944
889.635	14800
889.759	14796
889.883	14632
890.006	14876
890.13	14796
890.254	14610
890.377	14625
890.501	14533
890.624	14396
890.748	14659
890.871	14450
890.995	14355
891.118	14328
891.241	14427
891.364	14495
891.488	14537
891.611	14400
891.734	14431
891.857	14545
891.98	14454
892.103	14518
892.226	14423
892.349	14400
892.471	14214
892.594	14358
892.717	14473
892.839	14309
892.962	14385
893.085	14480
893.207	14419
893.33	14309
893.452	14404
893.575	14499
893.697	14339
893.819	14450
893.941	14590
894.064	14621
894.186	14446
894.308	14336
894.43	14556
894.552	14495
894.674	14457
894.796	14328
894.918	14408
895.04	14396
895.161	14499
895.283	14480
895.405	14412
895.526	14457
895.648	14526
895.769	14526
895.891	14568
896.012	14556
896.134	14530
896.255	14579
896.376	14480
896.498	14617
896.619	14568
896.74	14602
896.861	14575
896.982	14883
897.103	15089
897.224	14857
897.345	14925
897.466	14727
897.587	14815
897.708	14937
897.828	14891
897.949	14815
898.07	14724
898.19	14804
898.311	14929
898.431	14872
898.552	14906
898.672	14990
898.792	15100
898.913	14998
899.033	14887
899.153	14693
899.273	14727
899.393	14769
899.513	14769
899.633	14811
899.753	14830
899.873	14651
899.993	14765
900.113	14758
900.232	14781
900.352	14678
900.472	14682
900.591	14541
900.711	14731
900.83	14530
900.95	14644
901.069	14712
901.189	14560
901.308	14317
901.427	14294
901.546	14271
901.665	14332
901.784	14313
901.904	14176
902.023	14115
902.141	13887
902.26	13852
902.379	13883
902.498	13890
902.617	13822
902.735	13860
902.854	13807
902.973	13708
903.091	13552
903.21	13632
903.328	13601
903.446	13422
903.565	13369
903.683	13495
903.801	13354
903.919	13384
904.038	13441
904.156	13316
904.274	13331
904.392	13251
904.51	13225
904.627	13270
904.745	13221
904.863	13247
904.981	13031
905.098	12928
905.216	12932
905.334	13000
905.451	13000
905.569	12856
905.686	12932
905.803	12993
905.921	12738
906.038	12875
906.155	12753
906.272	12642
906.389	12677
906.506	12521
906.623	12506
906.74	12460
906.857	12357
906.974	12399
907.091	12525
907.208	12585
907.324	12536
907.441	12391
907.557	12372
907.674	12292
907.79	12197
907.907	12289
908.023	12365
908.139	12292
908.256	12136
908.372	12232
908.488	12171
908.604	11996
908.72	11961
908.836	12026
908.952	11999
909.068	12011
909.184	12121
909.3	11901
909.415	12030
909.531	12064
909.647	11805
909.762	11824
909.878	11714
909.993	11779
910.108	11752
910.224	11714
910.339	11729
910.454	11627
910.57	11596
910.685	11528
910.8	11855
910.915	11741
911.03	11630
911.145	11452
911.259	11402
911.374	11532
911.489	11402
911.604	11417
911.718	11227
911.833	11204
911.947	11178
912.062	11014
912.176	11151
912.291	11197
912.405	11242
912.519	11429
912.633	11341
912.748	11288
912.862	11185
912.976	11132
913.09	10946
913.204	10995
913.318	11067
913.431	11220
913.545	11197
913.659	11223
913.772	11109
913.886	10984
914	11003
914.113	11052
914.226	11140
914.34	10991
914.453	10873
914.566	11056
914.68	10908
914.793	10850
914.906	10706
915.019	10675
915.132	10653
915.245	10664
915.358	10668
915.47	10694
915.583	10740
915.696	10797
915.809	10759
915.921	10877
916.034	10763
916.146	10687
916.259	10607
916.371	10721
916.483	10710
916.595	10649
916.708	10660
916.82	10675
916.932	10653
917.044	10675
917.156	10592
917.268	10500
917.38	10478
917.491	10599
917.603	10504
917.715	10588
917.826	10626
917.938	10508
918.049	10447
918.161	10546
918.272	10637
918.384	10710
918.495	10561
918.606	10356
918.717	10352
918.828	10462
918.939	10531
919.05	10295
919.161	10421
919.272	10223
919.383	10280
919.494	10371
919.604	10611
919.715	10500
919.826	10382
919.936	10344
920.047	10462
920.157	10405
920.267	10637
920.378	10432
920.488	10371
920.598	10622
920.708	10763
920.818	10664
920.928	10622
921.038	10752
921.148	10729
921.258	10470
921.368	10268
921.477	10291
921.587	10257
921.697	10124
921.806	10230
921.916	10139
922.025	10013
922.134	10021
922.244	9911
922.353	10036
922.462	9865
922.571	9785
922.68	9690
922.789	9587
922.898	9644
923.007	9568
923.116	9717
923.224	9591
923.333	9595
923.442	9584
923.55	9458
923.659	9515
923.767	9591
923.876	9485
923.984	9576
924.092	9511
924.201	9542
924.309	9538
924.417	9538
924.525	9370
924.633	9534
924.741	10409
924.849	9310
924.956	9477
925.064	9321
925.172	9211
925.279	9245
925.387	9340
925.494	9367
925.602	9393
925.709	9397
925.816	9249
925.924	9272
926.031	9405
926.138	9310
926.245	9359
926.352	9180
926.459	9321
926.566	9439
926.673	9287
926.779	9116
926.886	9169
926.993	9142
927.099	9051
927.206	9043
927.312	9017
927.419	9024
927.525	9020
927.631	9093
927.737	8952
927.843	8952
927.95	8762
928.056	8899
928.162	8971
928.267	8925
928.373	9526
928.479	8990
928.585	8746
928.69	8872
928.796	8971
928.901	8849
929.007	8705
929.112	8834
929.218	8807
929.323	8804
929.428	8705
929.533	8872
929.638	8720
929.743	8674
929.848	8766
929.953	8708
930.058	8632
930.163	8473
930.267	8590
930.372	8629
930.477	8400
930.581	8727
930.685	8610
930.79	8438
930.894	8454
930.998	8419
931.103	8537
931.207	8248
931.311	8126
931.415	8096
931.519	7940
931.623	7868
