Data from test_V78500241_666.txt Node
Date: Fri Mar 25 14:38:21 CST 2022
User: usil
Spectrometer: V785-0024
Trigger mode: 0
Integration Time (sec): 4.000000E-1
Scans to average: 1
Nonlinearity correction enabled: false
Boxcar width: 0
Storing dark spectrum: false
XAxis mode: Wavelengths
Number of Pixels in Spectrum: 1024
>>>>>Begin Spectral Data<<<<<
801.071	28173
801.214	27975
801.356	27846
801.499	27686
801.641	27572
801.783	27504
801.926	27351
802.068	27427
802.211	27214
802.353	27393
802.496	27074
802.638	27142
802.78	27062
802.923	26925
803.065	26880
803.208	26849
803.35	26944
803.492	27009
803.635	27192
803.777	26910
803.919	27211
804.061	27534
804.204	27241
804.346	27211
804.488	27283
804.63	27306
804.773	27142
804.915	27393
805.057	27443
805.199	27412
805.341	27435
805.483	27835
805.626	27709
805.768	27755
805.91	27892
806.052	28070
806.194	28105
806.336	28542
806.478	28436
806.62	28519
806.762	28968
806.904	29181
807.046	29756
807.188	30060
807.33	30445
807.472	31110
807.614	31590
807.756	32606
807.898	33656
808.04	35056
808.182	37080
808.324	39751
808.465	42566
808.607	45545
808.749	48601
808.891	50240
809.033	50374
809.174	48711
809.316	45956
809.458	42502
809.6	39302
809.741	36612
809.883	34516
810.025	33180
810.166	32122
810.308	31080
810.45	30764
810.591	30148
810.733	29668
810.875	29288
811.016	28911
811.158	28774
811.299	28839
811.441	28607
811.582	28428
811.724	28249
811.865	28078
812.007	28036
812.148	27827
812.29	28032
812.431	28086
812.573	28013
812.714	28139
812.855	28211
812.997	28211
813.138	28333
813.279	28093
813.421	27975
813.562	27899
813.703	27717
813.845	27572
813.986	27222
814.127	26975
814.268	26849
814.41	26982
814.551	26800
814.692	26887
814.833	26834
814.974	26686
815.115	26693
815.256	26609
815.397	26545
815.539	26431
815.68	26328
815.821	26214
815.962	26286
816.103	26275
816.244	26012
816.385	25978
816.526	26031
816.666	25818
816.807	25685
816.948	25803
817.089	25594
817.23	25563
817.371	25655
817.512	25548
817.653	25464
817.793	25464
817.934	25499
818.075	25529
818.216	25518
818.356	25540
818.497	25358
818.638	25285
818.778	25244
818.919	25255
819.06	25129
819.2	25373
819.341	25635
819.481	25449
819.622	25552
819.762	25704
819.903	25582
820.043	25525
820.184	25476
820.324	25521
820.465	25464
820.605	25483
820.746	25232
820.886	25164
821.026	25324
821.167	25263
821.307	25396
821.447	25251
821.588	25110
821.728	25000
821.868	24935
822.008	24726
822.149	24635
822.289	24547
822.429	24338
822.569	24391
822.709	24273
822.849	24064
822.99	24186
823.13	23961
823.27	23939
823.41	23878
823.55	23672
823.69	23817
823.83	23855
823.97	23665
824.11	23600
824.25	23512
824.389	23524
824.529	23760
824.669	23577
824.809	23851
824.949	23646
825.089	23585
825.228	23581
825.368	23455
825.508	23482
825.648	23337
825.787	23334
825.927	23292
826.067	23250
826.206	23330
826.346	23433
826.485	23497
826.625	23341
826.765	23493
826.904	23410
827.044	23143
827.183	23113
827.323	23105
827.462	23117
827.601	23094
827.741	23105
827.88	22987
828.02	23033
828.159	23029
828.298	23010
828.437	23121
828.577	23010
828.716	23132
828.855	22953
828.994	22672
829.134	22664
829.273	22672
829.412	22630
829.551	22573
829.69	22660
829.829	22607
829.968	22721
830.107	22664
830.246	22710
830.385	22630
830.524	22550
830.663	22440
830.802	22413
830.941	22177
831.08	22337
831.219	22386
831.357	22394
831.496	22523
831.635	22276
831.774	22143
831.913	22268
832.051	22158
832.19	22013
832.329	22303
832.467	22192
832.606	22120
832.744	22166
832.883	22223
833.022	22268
833.16	22379
833.299	22451
833.437	22645
833.576	22694
833.714	22790
833.852	22987
833.991	23075
834.129	23178
834.267	23208
834.406	23162
834.544	23060
834.682	22995
834.821	22835
834.959	23010
835.097	22527
835.235	22542
835.373	22455
835.511	22417
835.65	22139
835.788	22223
835.926	21956
836.064	21701
836.202	21808
836.34	21880
836.478	21884
836.615	21865
836.753	21797
836.891	21983
837.029	21823
837.167	21827
837.305	21736
837.443	21717
837.58	21534
837.718	21682
837.856	21675
837.993	21542
838.131	21553
838.269	21500
838.406	21386
838.544	21408
838.681	21275
838.819	21218
838.956	21131
839.094	20971
839.231	21131
839.369	21176
839.506	21332
839.643	21199
839.781	21058
839.918	21081
840.055	20906
840.193	21055
840.33	20895
840.467	20982
840.604	20944
840.742	21104
840.879	20826
841.016	20849
841.153	20785
841.29	21066
841.427	21036
841.564	20990
841.701	20899
841.838	20845
841.975	20899
842.112	20830
842.249	20842
842.385	20712
842.522	20986
842.659	20769
842.796	20758
842.933	20876
843.069	20788
843.206	20796
843.343	20891
843.479	20758
843.616	21005
843.752	20857
843.889	20902
844.025	20990
844.162	20906
844.298	21043
844.435	21291
844.571	21370
844.708	21553
844.844	22147
844.98	22542
845.117	23140
845.253	23950
845.389	25761
845.525	29261
845.661	34980
845.798	41600
845.934	46432
846.07	48346
846.206	46957
846.342	42441
846.478	35615
846.614	30125
846.75	26301
846.886	24262
847.022	22885
847.158	22025
847.294	21435
847.429	21112
847.565	20811
847.701	20910
847.837	20214
847.972	20164
848.108	20187
848.244	20130
848.379	19890
848.515	19795
848.65	19780
848.786	19715
848.921	19833
849.057	19776
849.192	19849
849.328	19780
849.463	19662
849.598	19616
849.734	19559
849.869	19537
850.004	19476
850.14	19548
850.275	19495
850.41	19339
850.545	19441
850.68	19358
850.815	19312
850.95	19453
851.085	19571
851.22	19537
851.355	19392
851.49	19316
851.625	19354
851.76	19335
851.895	19282
852.03	19232
852.165	19293
852.299	19434
852.434	19438
852.569	19445
852.703	19464
852.838	19377
852.973	19468
853.107	19567
853.242	19453
853.376	19384
853.511	19251
853.645	19369
853.78	19575
853.914	19594
854.048	19635
854.183	19567
854.317	19548
854.451	19742
854.585	19419
854.72	19483
854.854	19499
854.988	19403
855.122	19506
855.256	19304
855.39	19346
855.524	19324
855.658	19407
855.792	19346
855.926	19362
856.06	19426
856.194	19285
856.327	19194
856.461	19187
856.595	19187
856.729	19251
856.862	19236
856.996	19259
857.13	19282
857.263	19240
857.397	19179
857.53	19156
857.664	19118
857.797	19213
857.931	19255
858.064	19019
858.197	19240
858.331	19141
858.464	19042
858.597	18867
858.731	19095
858.864	19072
858.997	19053
859.13	19012
859.263	18993
859.396	19141
859.529	19095
859.662	19038
859.795	18951
859.928	19050
860.061	19198
860.194	19171
860.327	19061
860.46	18916
860.592	19046
860.725	19084
860.858	19088
860.99	18833
861.123	18890
861.256	18882
861.388	18909
861.521	19544
861.653	18913
861.786	18829
861.918	18814
862.05	18935
862.183	19053
862.315	18954
862.447	19023
862.58	18802
862.712	18787
862.844	18593
862.976	18802
863.108	18757
863.24	18905
863.372	18650
863.504	18684
863.636	18555
863.768	18726
863.9	18654
864.032	18654
864.164	18570
864.296	18665
864.428	18589
864.559	18783
864.691	18741
864.823	18707
864.954	18665
865.086	18757
865.217	18574
865.349	18506
865.48	18570
865.612	18627
865.743	18688
865.875	18661
866.006	18650
866.137	18623
866.269	18559
866.4	18646
866.531	18464
866.662	18544
866.793	18456
866.924	18525
867.055	18525
867.186	18658
867.317	18547
867.448	18525
867.579	18608
867.71	18601
867.841	18601
867.972	18555
868.103	18547
868.233	18532
868.364	18536
868.495	18764
868.625	18745
868.756	18981
868.886	18661
869.017	18840
869.147	18943
869.278	18901
869.408	18867
869.539	18817
869.669	18939
869.799	18886
869.929	18905
870.06	18993
870.19	19141
870.32	19126
870.45	19103
870.58	19301
870.71	19343
870.84	19422
870.97	19354
871.1	19285
871.23	19419
871.36	19441
871.489	19396
871.619	19472
871.749	19552
871.879	19544
872.008	19677
872.138	19582
872.267	19556
872.397	19472
872.526	19529
872.656	19495
872.785	19411
872.915	19620
873.044	19628
873.173	19685
873.303	19845
873.432	19765
873.561	19913
873.69	19837
873.819	19761
873.948	19883
874.077	19917
874.206	19852
874.335	19875
874.464	19993
874.593	20145
874.722	20081
874.851	20301
874.979	20347
875.108	20408
875.237	20225
875.365	20328
875.494	20400
875.623	20507
875.751	20465
875.88	20454
876.008	20720
876.136	20735
876.265	20944
876.393	21279
876.521	21230
876.65	21329
876.778	21226
876.906	21252
877.034	21264
877.162	21272
877.29	21408
877.418	21542
877.546	21694
877.674	21827
877.802	21956
877.93	22070
878.058	22249
878.185	22299
878.313	22649
878.441	22976
878.568	23170
878.696	23859
878.824	24521
878.951	25662
879.079	27252
879.206	29185
879.333	31312
879.461	32758
879.588	34006
879.715	33914
879.842	33100
879.97	31358
880.097	29254
880.224	27557
880.351	26461
880.478	25597
880.605	25091
880.732	24658
880.859	24840
880.986	24414
881.112	24296
881.239	23992
881.366	23866
881.493	23786
881.619	23760
881.746	23707
881.872	23687
881.999	23863
882.125	23809
882.252	23980
882.378	24011
882.505	24186
882.631	23866
882.757	23794
882.883	23840
883.01	23771
883.136	23653
883.262	23604
883.388	23558
883.514	23672
883.64	23779
883.766	23562
883.892	23414
884.018	23490
884.143	23733
884.269	23832
884.395	23589
884.52	23474
884.646	23535
884.772	23433
884.897	23368
885.023	23516
885.148	23581
885.274	23505
885.399	23364
885.524	23258
885.65	23193
885.775	22984
885.9	22885
886.025	22736
886.15	22634
886.275	22443
886.4	22280
886.525	22196
886.65	22074
886.775	21899
886.9	21964
887.025	21964
887.149	21724
887.274	21298
887.399	21157
887.523	21192
887.648	21074
887.773	20952
887.897	21009
888.021	20975
888.146	20785
888.27	20895
888.395	20838
888.519	20636
888.643	20735
888.767	20644
888.891	20507
889.015	20412
889.139	20355
889.263	20240
889.387	20317
889.511	20282
889.635	20267
889.759	20081
889.883	20126
890.006	20168
890.13	20031
890.254	19913
890.377	19875
890.501	19712
890.624	19556
890.748	19727
890.871	19449
890.995	19559
891.118	19301
891.241	19373
891.364	19460
891.488	19422
891.611	19293
891.734	19324
891.857	19247
891.98	19263
892.103	19217
892.226	19217
892.349	19247
892.471	18977
892.594	19080
892.717	19061
892.839	18981
892.962	18973
893.085	18871
893.207	18905
893.33	18768
893.452	18696
893.575	18859
893.697	18791
893.819	18909
893.941	18954
894.064	18905
894.186	18738
894.308	18681
894.43	18715
894.552	18817
894.674	18646
894.796	18597
894.918	18631
895.04	18528
895.161	18559
895.283	18593
895.405	18342
895.526	18608
895.648	18460
895.769	18551
895.891	18563
896.012	18578
896.134	18528
896.255	18513
896.376	18547
896.498	18585
896.619	18418
896.74	18418
896.861	18696
896.982	18829
897.103	18958
897.224	18909
897.345	18681
897.466	18661
897.587	18544
897.708	18745
897.828	18574
897.949	18646
898.07	18502
898.19	18547
898.311	18730
898.431	18597
898.552	18658
898.672	18753
898.792	18730
898.913	18719
899.033	18585
899.153	18471
899.273	18361
899.393	18517
899.513	18414
899.633	18384
899.753	18414
899.873	18464
899.993	18323
900.113	18403
900.232	18407
900.352	18235
900.472	18239
900.591	18194
900.711	18220
900.83	18216
900.95	18266
901.069	18407
901.189	18213
901.308	17889
901.427	17748
901.546	17794
901.665	17737
901.784	17821
901.904	17600
902.023	17501
902.141	17315
902.26	17326
902.379	17254
902.498	17235
902.617	17170
902.735	17200
902.854	17159
902.973	17094
903.091	16930
903.21	16869
903.328	16877
903.446	16691
903.565	16649
903.683	16687
903.801	16596
903.919	16630
904.038	16584
904.156	16333
904.274	16462
904.392	16322
904.51	16367
904.627	16402
904.745	16466
904.863	16375
904.981	16131
905.098	16090
905.216	16032
905.334	16059
905.451	16059
905.569	15937
905.686	15960
905.803	15994
905.921	15785
906.038	15876
906.155	15846
906.272	15675
906.389	15667
906.506	15568
906.623	15526
906.74	15469
906.857	15386
906.974	15458
907.091	15686
907.208	15625
907.324	15572
907.441	15431
907.557	15264
907.674	15199
907.79	15127
907.907	15165
908.023	15275
908.139	15218
908.256	15154
908.372	15199
908.488	15032
908.604	14982
908.72	14811
908.836	15009
908.952	14868
909.068	14960
909.184	14975
909.3	14925
909.415	15001
909.531	14956
909.647	14731
909.762	14648
909.878	14571
909.993	14644
910.108	14613
910.224	14670
910.339	14602
910.454	14590
910.57	14427
910.685	14298
910.8	14659
910.915	14594
911.03	14412
911.145	14275
911.259	14313
911.374	14229
911.489	14214
911.604	14214
911.718	14043
911.833	14031
911.947	14008
912.062	13871
912.176	14031
912.291	13959
912.405	13925
912.519	14103
912.633	14248
912.748	14092
912.862	13982
912.976	13849
913.09	13830
913.204	13845
913.318	13822
913.431	13940
913.545	13837
913.659	13970
913.772	13894
913.886	13693
914	13696
914.113	13811
914.226	13826
914.34	13670
914.453	13662
914.566	13788
914.68	13666
914.793	13616
914.906	13335
915.019	13343
915.132	13411
915.245	13354
915.358	13407
915.47	13392
915.583	13438
915.696	13430
915.809	13464
915.921	13613
916.034	13274
916.146	13293
916.259	13293
916.371	13441
916.483	13476
916.595	13289
916.708	13335
916.82	13285
916.932	13316
917.044	13278
917.156	13285
917.268	13198
917.38	13320
917.491	13057
917.603	13190
917.715	13194
917.826	13194
917.938	13129
918.049	12958
918.161	13084
918.272	13244
918.384	13164
918.495	13080
918.606	12939
918.717	12753
918.828	12981
918.939	12897
919.05	12711
919.161	12810
919.272	12639
919.383	12821
919.494	12962
919.604	13046
919.715	12802
919.826	12787
919.936	12787
920.047	12878
920.157	12753
920.267	13004
920.378	12856
920.488	12745
920.598	12977
920.708	13122
920.818	13004
920.928	12989
921.038	13202
921.148	12989
921.258	12745
921.368	12707
921.477	12555
921.587	12582
921.697	12475
921.806	12578
921.916	12486
922.025	12357
922.134	12273
922.244	12197
922.353	12395
922.462	12102
922.571	12045
922.68	11916
922.789	11988
922.898	11931
923.007	11733
923.116	11847
923.224	11904
923.333	11889
923.442	11783
923.55	11824
923.659	11764
923.767	11790
923.876	11688
923.984	11824
924.092	11672
924.201	11733
924.309	11748
924.417	11726
924.525	11695
924.633	11608
924.741	12574
924.849	11440
924.956	11558
925.064	11372
925.172	11391
925.279	11433
925.387	11433
925.494	11474
925.602	11452
925.709	11455
925.816	11277
925.924	11273
926.031	11417
926.138	11429
926.245	11330
926.352	11318
926.459	11493
926.566	11520
926.673	11284
926.779	11208
926.886	11140
926.993	11048
927.099	11048
927.206	10976
927.312	10938
927.419	11094
927.525	10965
927.631	10999
927.737	10923
927.843	10885
927.95	10828
928.056	10812
928.162	10862
928.267	10869
928.373	11444
928.479	10934
928.585	10793
928.69	10767
928.796	10828
928.901	10710
929.007	10649
929.112	10828
929.218	10740
929.323	10630
929.428	10584
929.533	10824
929.638	10626
929.743	10580
929.848	10668
929.953	10649
930.058	10542
930.163	10390
930.267	10424
930.372	10512
930.477	10386
930.581	10584
930.685	10375
930.79	10325
930.894	10284
930.998	10333
931.103	10303
931.207	10139
931.311	10002
931.415	9934
931.519	9705
931.623	9622
