Data from test_V78500241_3705.txt Node
Date: Fri Mar 25 14:59:31 CST 2022
User: usil
Spectrometer: V785-0024
Trigger mode: 0
Integration Time (sec): 4.000000E-1
Scans to average: 1
Nonlinearity correction enabled: false
Boxcar width: 0
Storing dark spectrum: false
XAxis mode: Wavelengths
Number of Pixels in Spectrum: 1024
>>>>>Begin Spectral Data<<<<<
801.071	22086
801.214	21861
801.356	21488
801.499	21477
801.641	21340
801.783	21272
801.926	21306
802.068	21287
802.211	21192
802.353	21230
802.496	20807
802.638	20876
802.78	20796
802.923	20697
803.065	20587
803.208	20533
803.35	20564
803.492	20697
803.635	20857
803.777	20564
803.919	20667
804.061	21013
804.204	20655
804.346	20537
804.488	20419
804.63	20587
804.773	20511
804.915	20492
805.057	20602
805.199	20301
805.341	20590
805.483	20606
805.626	20556
805.768	20457
805.91	20495
806.052	20541
806.194	20408
806.336	20716
806.478	20473
806.62	20355
806.762	20564
806.904	20906
807.046	20948
807.188	20857
807.33	20739
807.472	20819
807.614	20754
807.756	20727
807.898	20727
808.04	20514
808.182	20560
808.324	20651
808.465	20560
808.607	20777
808.749	20899
808.891	21100
809.033	20967
809.174	20941
809.316	20845
809.458	20899
809.6	20758
809.741	20891
809.883	20727
810.025	20937
810.166	21093
810.308	21032
810.45	20948
810.591	20857
810.733	20697
810.875	20743
811.016	20552
811.158	20434
811.299	20693
811.441	20667
811.582	20804
811.724	20571
811.865	20602
812.007	20533
812.148	20674
812.29	20640
812.431	20781
812.573	20891
812.714	21195
812.855	21047
812.997	21226
813.138	21359
813.279	21241
813.421	21131
813.562	21017
813.703	20929
813.845	20823
813.986	20393
814.127	20343
814.268	20199
814.41	20138
814.551	20084
814.692	20183
814.833	20073
814.974	20100
815.115	20065
815.256	19909
815.397	20172
815.539	20016
815.68	19940
815.821	19761
815.962	19864
816.103	19776
816.244	19750
816.385	19662
816.526	19715
816.666	19460
816.807	19320
816.948	19304
817.089	19354
817.23	19422
817.371	19293
817.512	19354
817.653	19358
817.793	19183
817.934	19381
818.075	19373
818.216	19206
818.356	19301
818.497	19122
818.638	18981
818.778	18928
818.919	18977
819.06	18909
819.2	19122
819.341	19137
819.481	19183
819.622	19266
819.762	19396
819.903	19403
820.043	19350
820.184	19236
820.324	19187
820.465	19381
820.605	19308
820.746	19244
820.886	19240
821.026	19339
821.167	19171
821.307	19324
821.447	19255
821.588	19091
821.728	18924
821.868	18867
822.008	18635
822.149	18749
822.289	18745
822.429	18437
822.569	18441
822.709	18467
822.849	18323
822.99	18197
823.13	18087
823.27	18159
823.41	17961
823.55	17946
823.69	17942
823.83	17935
823.97	17958
824.11	17767
824.25	17847
824.389	17828
824.529	17691
824.669	17657
824.809	17935
824.949	17889
825.089	17832
825.228	17752
825.368	17699
825.508	17566
825.648	17547
825.787	17524
825.927	17577
826.067	17478
826.206	17471
826.346	17627
826.485	17634
826.625	17493
826.765	17707
826.904	17554
827.044	17353
827.183	17296
827.323	17227
827.462	17239
827.601	17216
827.741	17147
827.88	17242
828.02	17079
828.159	17162
828.298	17174
828.437	17258
828.577	17258
828.716	17296
828.855	17109
828.994	17086
829.134	16987
829.273	17033
829.412	16911
829.551	16854
829.69	17048
829.829	16984
829.968	17025
830.107	16995
830.246	16980
830.385	16968
830.524	16877
830.663	16820
830.802	16752
830.941	16565
831.08	16554
831.219	16637
831.357	16653
831.496	16805
831.635	16675
831.774	16542
831.913	16523
832.051	16489
832.19	16413
832.329	16382
832.467	16402
832.606	16268
832.744	16272
832.883	16268
833.022	16253
833.16	16287
833.299	16344
833.437	16287
833.576	16375
833.714	16287
833.852	16295
833.991	16325
834.129	16447
834.267	16413
834.406	16356
834.544	16421
834.682	16455
834.821	16322
834.959	16497
835.097	16375
835.235	16402
835.373	16413
835.511	16367
835.65	16268
835.788	16318
835.926	16116
836.064	16078
836.202	16166
836.34	16261
836.478	16344
836.615	16322
836.753	16295
836.891	16284
837.029	16242
837.167	16272
837.305	16181
837.443	16219
837.58	16131
837.718	16299
837.856	16223
837.993	16143
838.131	16200
838.269	16067
838.406	16135
838.544	16131
838.681	15903
838.819	15827
838.956	15743
839.094	15846
839.231	15717
839.369	15941
839.506	16147
839.643	15972
839.781	15732
839.918	15701
840.055	15808
840.193	15701
840.33	15682
840.467	15751
840.604	15781
840.742	15983
840.879	15595
841.016	15595
841.153	15717
841.29	15873
841.427	15797
841.564	15739
841.701	15720
841.838	15690
841.975	15713
842.112	15667
842.249	15530
842.385	15557
842.522	15732
842.659	15595
842.796	15564
842.933	15469
843.069	15637
843.206	15553
843.343	15534
843.479	15557
843.616	15587
843.752	15291
843.889	15302
844.025	15523
844.162	15325
844.298	15466
844.435	15325
844.571	15329
844.708	15340
844.844	15458
844.98	15450
845.117	15545
845.253	15382
845.389	15256
845.525	15298
845.661	15237
845.798	15169
845.934	15195
846.07	15085
846.206	15184
846.342	15195
846.478	15184
846.614	14982
846.75	14838
846.886	14872
847.022	14979
847.158	14933
847.294	14963
847.429	15001
847.565	14986
847.701	15256
847.837	14693
847.972	14617
848.108	14785
848.244	14781
848.379	14575
848.515	14522
848.65	14434
848.786	14484
848.921	14461
849.057	14568
849.192	14655
849.328	14556
849.463	14507
849.598	14465
849.734	14385
849.869	14366
850.004	14202
850.14	14370
850.275	14301
850.41	14191
850.545	14240
850.68	14282
850.815	14339
850.95	14332
851.085	14396
851.22	14408
851.355	14305
851.49	14233
851.625	14206
851.76	14267
851.895	14244
852.03	14138
852.165	14271
852.299	14290
852.434	14328
852.569	14328
852.703	14324
852.838	14377
852.973	14393
853.107	14393
853.242	14183
853.376	14084
853.511	14027
853.645	14153
853.78	14267
853.914	14088
854.048	14088
854.183	14134
854.317	14096
854.451	14339
854.585	14195
854.72	14107
854.854	14248
854.988	14046
855.122	14126
855.256	13982
855.39	14161
855.524	14164
855.658	14187
855.792	14168
855.926	14202
856.06	14142
856.194	14191
856.327	14142
856.461	14084
856.595	14111
856.729	14145
856.862	14309
856.996	14168
857.13	14256
857.263	14301
857.397	14233
857.53	14134
857.664	14164
857.797	14271
857.931	14313
858.064	14199
858.197	14183
858.331	14084
858.464	14161
858.597	13883
858.731	14123
858.864	14142
858.997	14157
859.13	14164
859.263	14214
859.396	14123
859.529	14157
859.662	14183
859.795	14058
859.928	14153
860.061	14244
860.194	14286
860.327	14214
860.46	14077
860.592	14164
860.725	14229
860.858	14210
860.99	14149
861.123	14069
861.256	14084
861.388	14119
861.521	14788
861.653	14031
861.786	13970
861.918	13986
862.05	14084
862.183	14069
862.315	14031
862.447	14248
862.58	13951
862.712	13883
862.844	13841
862.976	13913
863.108	13944
863.24	14237
863.372	13814
863.504	13951
863.636	13989
863.768	13986
863.9	13856
864.032	13875
864.164	13940
864.296	13902
864.428	14092
864.559	14024
864.691	14062
864.823	14043
864.954	13978
865.086	13913
865.217	13894
865.349	13849
865.48	13917
865.612	13978
865.743	14084
865.875	13986
866.006	13898
866.137	14001
866.269	13902
866.4	13921
866.531	13894
866.662	13788
866.793	13944
866.924	13898
867.055	13936
867.186	13909
867.317	13852
867.448	13822
867.579	13807
867.71	13795
867.841	13830
867.972	13868
868.103	13879
868.233	13970
868.364	13936
868.495	14016
868.625	14111
868.756	14225
868.886	14092
869.017	14126
869.147	14275
869.278	14305
869.408	14210
869.539	14115
869.669	14248
869.799	14157
869.929	14393
870.06	14339
870.19	14492
870.32	14484
870.45	14362
870.58	14636
870.71	14636
870.84	14712
870.97	14454
871.1	14488
871.23	14682
871.36	14781
871.489	14636
871.619	14689
871.749	14773
871.879	14811
872.008	14834
872.138	14804
872.267	14804
872.397	14667
872.526	14629
872.656	14545
872.785	14705
872.915	14796
873.044	14765
873.173	14746
873.303	14910
873.432	14864
873.561	14990
873.69	14773
873.819	14914
873.948	14849
874.077	14807
874.206	14769
874.335	14765
874.464	14941
874.593	15154
874.722	15020
874.851	15108
874.979	15211
875.108	15188
875.237	15226
875.365	15024
875.494	15093
875.623	15310
875.751	15173
875.88	15203
876.008	15329
876.136	15416
876.265	15580
876.393	15686
876.521	15641
876.65	15507
876.778	15587
876.906	15515
877.034	15428
877.162	15435
877.29	15397
877.418	15587
877.546	15473
877.674	15694
877.802	15428
877.93	15477
878.058	15447
878.185	15374
878.313	15488
878.441	15526
878.568	15439
878.696	15519
878.824	15576
878.951	15599
879.079	15667
879.206	15857
879.333	15739
879.461	15584
879.588	15625
879.715	15675
879.842	15827
879.97	15561
880.097	15420
880.224	15389
880.351	15359
880.478	15401
880.605	15367
880.732	15405
880.859	15652
880.986	15496
881.112	15420
881.239	15279
881.366	15211
881.493	15077
881.619	15047
881.746	15142
881.872	15039
881.999	15043
882.125	14975
882.252	15157
882.378	15066
882.505	15298
882.631	14952
882.757	14941
882.883	14937
883.01	14857
883.136	14842
883.262	14746
883.388	14682
883.514	14849
883.64	14834
883.766	14804
883.892	14686
884.018	14758
884.143	14872
884.269	14937
884.395	14670
884.52	14507
884.646	14682
884.772	14571
884.897	14511
885.023	14552
885.148	14689
885.274	14598
885.399	14640
885.524	14625
885.65	14602
885.775	14629
885.9	14606
886.025	14735
886.15	14606
886.275	14598
886.4	14465
886.525	14480
886.65	14476
886.775	14518
886.9	14792
887.025	14819
887.149	14606
887.274	14454
887.399	14396
887.523	14339
887.648	14347
887.773	14252
887.897	14469
888.021	14454
888.146	14362
888.27	14583
888.395	14663
888.519	14442
888.643	14423
888.767	14473
888.891	14320
889.015	14290
889.139	14355
889.263	14343
889.387	14362
889.511	14552
889.635	14358
889.759	14339
889.883	14244
890.006	14355
890.13	14476
890.254	14225
890.377	14248
890.501	14020
890.624	14081
890.748	14180
890.871	14058
890.995	13947
891.118	13845
891.241	13986
891.364	14050
891.488	14046
891.611	13944
891.734	13928
891.857	14046
891.98	14046
892.103	14062
892.226	14035
892.349	13955
892.471	13826
892.594	13947
892.717	13989
892.839	13925
892.962	14005
893.085	13917
893.207	13974
893.33	13769
893.452	13940
893.575	14008
893.697	13970
893.819	14058
893.941	14161
894.064	14092
894.186	13944
894.308	13974
894.43	14088
894.552	14168
894.674	14130
894.796	13982
894.918	14024
895.04	14035
895.161	14100
895.283	14035
895.405	13928
895.526	14062
895.648	13974
895.769	14164
895.891	14214
896.012	14218
896.134	14229
896.255	14035
896.376	14119
896.498	14157
896.619	14199
896.74	14248
896.861	14221
896.982	14571
897.103	14670
897.224	14431
897.345	14385
897.466	14351
897.587	14454
897.708	14575
897.828	14484
897.949	14374
898.07	14324
898.19	14343
898.311	14533
898.431	14408
898.552	14438
898.672	14499
898.792	14560
898.913	14556
899.033	14415
899.153	14381
899.273	14252
899.393	14336
899.513	14385
899.633	14324
899.753	14332
899.873	14355
899.993	14358
900.113	14351
900.232	14355
900.352	14358
900.472	14176
900.591	14134
900.711	14278
900.83	14149
900.95	14298
901.069	14370
901.189	14183
901.308	13936
901.427	13982
901.546	13803
901.665	13849
901.784	13936
901.904	13761
902.023	13769
902.141	13544
902.26	13533
902.379	13582
902.498	13388
902.617	13438
902.735	13533
902.854	13476
902.973	13346
903.091	13228
903.21	13217
903.328	13266
903.446	13126
903.565	13050
903.683	12989
903.801	12817
903.919	12977
904.038	13084
904.156	12840
904.274	12901
904.392	12768
904.51	12814
904.627	12863
904.745	12890
904.863	12913
904.981	12608
905.098	12544
905.216	12490
905.334	12608
905.451	12589
905.569	12544
905.686	12604
905.803	12639
905.921	12315
906.038	12445
906.155	12346
906.272	12194
906.389	12315
906.506	12186
906.623	12209
906.74	12213
906.857	12045
906.974	11984
907.091	12197
907.208	12319
907.324	12125
907.441	12129
907.557	11916
907.674	11859
907.79	11851
907.907	11863
908.023	11901
908.139	11874
908.256	11767
908.372	11851
908.488	11828
908.604	11657
908.72	11573
908.836	11577
908.952	11642
909.068	11672
909.184	11764
909.3	11653
909.415	11653
909.531	11604
909.647	11433
909.762	11360
909.878	11311
909.993	11467
910.108	11417
910.224	11337
910.339	11490
910.454	11326
910.57	11269
910.685	11273
910.8	11474
910.915	11406
911.03	11284
911.145	11140
911.259	11204
911.374	11086
911.489	10980
911.604	10976
911.718	10942
911.833	10942
911.947	10774
912.062	10687
912.176	10869
912.291	10908
912.405	10896
912.519	11094
912.633	11094
912.748	10942
912.862	10900
912.976	10717
913.09	10706
913.204	10710
913.318	10835
913.431	10908
913.545	10919
913.659	10831
913.772	10812
913.886	10634
914	10626
914.113	10729
914.226	10767
914.34	10793
914.453	10672
914.566	10615
914.68	10603
914.793	10558
914.906	10421
915.019	10443
915.132	10329
915.245	10466
915.358	10352
915.47	10398
915.583	10413
915.696	10428
915.809	10424
915.921	10554
916.034	10344
916.146	10386
916.259	10322
916.371	10451
916.483	10363
916.595	10257
916.708	10394
916.82	10413
916.932	10295
917.044	10382
917.156	10261
917.268	10246
917.38	10196
917.491	10192
917.603	10204
917.715	10390
917.826	10341
917.938	10181
918.049	10169
918.161	10215
918.272	10360
918.384	10363
918.495	10314
918.606	10078
918.717	10029
918.828	10048
918.939	10120
919.05	10048
919.161	10078
919.272	9922
919.383	9968
919.494	10192
919.604	10382
919.715	10105
919.826	10051
919.936	10150
920.047	10109
920.157	10150
920.267	10287
920.378	10166
920.488	10166
920.598	10367
920.708	10523
920.818	10291
920.928	10303
921.038	10497
921.148	10375
921.258	10128
921.368	10082
921.477	10051
921.587	9960
921.697	9857
921.806	10017
921.916	9880
922.025	9644
922.134	9694
922.244	9633
922.353	9797
922.462	9606
922.571	9507
922.68	9370
922.789	9363
922.898	9443
923.007	9287
923.116	9393
923.224	9401
923.333	9435
923.442	9230
923.55	9253
923.659	9298
923.767	9355
923.876	9230
923.984	9374
924.092	9241
924.201	9230
924.309	9241
924.417	9268
924.525	9138
924.633	9180
924.741	10116
924.849	9074
924.956	9131
925.064	8990
925.172	8986
925.279	8952
925.387	9093
925.494	9085
925.602	9112
925.709	9142
925.816	8975
925.924	9001
926.031	9150
926.138	9020
926.245	9123
926.352	8990
926.459	9108
926.566	9161
926.673	9024
926.779	8868
926.886	8864
926.993	8864
927.099	8777
927.206	8731
927.312	8659
927.419	8758
927.525	8777
927.631	8792
927.737	8590
927.843	8568
927.95	8583
928.056	8636
928.162	8648
928.267	8693
928.373	9294
928.479	8762
928.585	8533
928.69	8651
928.796	8651
928.901	8560
929.007	8488
929.112	8560
929.218	8518
929.323	8522
929.428	8518
929.533	8667
929.638	8404
929.743	8431
929.848	8526
929.953	8518
930.058	8408
930.163	8237
930.267	8187
930.372	8434
930.477	8221
930.581	8450
930.685	8271
930.79	8176
930.894	8259
930.998	8191
931.103	8290
931.207	7967
931.311	7936
931.415	7879
931.519	7685
931.623	7731
