Data from test_V78500241_89.txt Node
Date: Fri Mar 25 14:34:20 CST 2022
User: usil
Spectrometer: V785-0024
Trigger mode: 0
Integration Time (sec): 4.000000E-1
Scans to average: 1
Nonlinearity correction enabled: false
Boxcar width: 0
Storing dark spectrum: false
XAxis mode: Wavelengths
Number of Pixels in Spectrum: 1024
>>>>>Begin Spectral Data<<<<<
801.071	28896
801.214	28771
801.356	28596
801.499	28504
801.641	28367
801.783	28318
801.926	28226
802.068	28204
802.211	28097
802.353	28128
802.496	28067
802.638	27953
802.78	27831
802.923	27831
803.065	27759
803.208	27857
803.35	27918
803.492	28025
803.635	27964
803.777	27819
803.919	28067
804.061	28253
804.204	27987
804.346	27903
804.488	27781
804.63	27983
804.773	27937
804.915	27861
805.057	27800
805.199	27903
805.341	27903
805.483	28120
805.626	28139
805.768	27926
805.91	27922
806.052	27880
806.194	27854
806.336	28093
806.478	28051
806.62	27941
806.762	28257
806.904	28318
807.046	28565
807.188	28356
807.33	28352
807.472	28493
807.614	28344
807.756	28379
807.898	28272
808.04	28284
808.182	28192
808.324	28253
808.465	28382
808.607	28436
808.749	28615
808.891	28664
809.033	28596
809.174	28641
809.316	28519
809.458	28596
809.6	28668
809.741	28634
809.883	28550
810.025	28748
810.166	28691
810.308	28938
810.45	28786
810.591	28523
810.733	28554
810.875	28527
811.016	28246
811.158	28409
811.299	28527
811.441	28546
811.582	28470
811.724	28455
811.865	28447
812.007	28436
812.148	28352
812.29	28527
812.431	28489
812.573	28668
812.714	28839
812.855	28744
812.997	28946
813.138	29041
813.279	29041
813.421	28987
813.562	28873
813.703	28748
813.845	28653
813.986	28360
814.127	28120
814.268	28116
814.41	28169
814.551	28063
814.692	28044
814.833	27857
814.974	27797
815.115	27941
815.256	27842
815.397	27816
815.539	27869
815.68	27789
815.821	27698
815.962	27774
816.103	27679
816.244	27713
816.385	27454
816.526	27447
816.666	27142
816.807	27074
816.948	27165
817.089	27218
817.23	27032
817.371	27081
817.512	27252
817.653	27173
817.793	26971
817.934	27112
818.075	27108
818.216	27195
818.356	26990
818.497	26906
818.638	26739
818.778	26815
818.919	26720
819.06	26883
819.2	26963
819.341	26960
819.481	26944
819.622	27138
819.762	27370
819.903	27184
820.043	27173
820.184	27138
820.324	26998
820.465	27116
820.605	27024
820.746	27017
820.886	26960
821.026	27005
821.167	26975
821.307	27070
821.447	26921
821.588	26731
821.728	26754
821.868	26457
822.008	26492
822.149	26450
822.289	26362
822.429	26286
822.569	26100
822.709	25989
822.849	26027
822.99	25784
823.13	25852
823.27	25727
823.41	25597
823.55	25495
823.69	25643
823.83	25575
823.97	25510
824.11	25479
824.25	25403
824.389	25426
824.529	25575
824.669	25304
824.809	25476
824.949	25441
825.089	25354
825.228	25331
825.368	25289
825.508	25255
825.648	25255
825.787	25263
825.927	25228
826.067	25209
826.206	25278
826.346	25270
826.485	25232
826.625	25301
826.765	25206
826.904	25156
827.044	24951
827.183	24924
827.323	24894
827.462	24863
827.601	24852
827.741	24779
827.88	24878
828.02	24734
828.159	24901
828.298	24909
828.437	24833
828.577	24821
828.716	24932
828.855	24593
828.994	24658
829.134	24661
829.273	24627
829.412	24642
829.551	24517
829.69	24414
829.829	24532
829.968	24467
830.107	24570
830.246	24471
830.385	24570
830.524	24342
830.663	24334
830.802	24201
830.941	24102
831.08	24045
831.219	24163
831.357	24045
831.496	24319
831.635	24083
831.774	23999
831.913	23866
832.051	23802
832.19	23973
832.329	24007
832.467	23756
832.606	23790
832.744	23786
832.883	23722
833.022	23726
833.16	23748
833.299	23748
833.437	23737
833.576	23794
833.714	23733
833.852	23722
833.991	23707
834.129	23855
834.267	23821
834.406	23665
834.544	23775
834.682	23703
834.821	23676
834.959	23798
835.097	23809
835.235	23737
835.373	23714
835.511	23558
835.65	23558
835.788	23596
835.926	23326
836.064	23311
836.202	23379
836.34	23634
836.478	23592
836.615	23417
836.753	23577
836.891	23581
837.029	23459
837.167	23433
837.305	23440
837.443	23345
837.58	23337
837.718	23376
837.856	23509
837.993	23246
838.131	23391
838.269	23341
838.406	23258
838.544	23109
838.681	23086
838.819	23044
838.956	22771
839.094	22717
839.231	22736
839.369	22953
839.506	23090
839.643	23033
839.781	22820
839.918	22736
840.055	22721
840.193	22660
840.33	22634
840.467	22535
840.604	22645
840.742	22999
840.879	22478
841.016	22675
841.153	22531
841.29	22717
841.427	22592
841.564	22717
841.701	22618
841.838	22523
841.975	22462
842.112	22542
842.249	22398
842.385	22325
842.522	22546
842.659	22394
842.796	22276
842.933	22462
843.069	22352
843.206	22143
843.343	22451
843.479	22314
843.616	22287
843.752	22169
843.889	22124
844.025	22325
844.162	22036
844.298	22291
844.435	21968
844.571	22029
844.708	22173
844.844	22162
844.98	22265
845.117	22154
845.253	21956
845.389	21979
845.525	22021
845.661	21994
845.798	22078
845.934	21857
846.07	21873
846.206	21991
846.342	22078
846.478	21831
846.614	21641
846.75	21603
846.886	21557
847.022	21572
847.158	21553
847.294	21526
847.429	21603
847.565	21389
847.701	21720
847.837	21256
847.972	21085
848.108	21211
848.244	21256
848.379	21077
848.515	21077
848.65	21032
848.786	20986
848.921	21123
849.057	21226
849.192	21154
849.328	21173
849.463	21081
849.598	20918
849.734	20857
849.869	20960
850.004	20739
850.14	20872
850.275	20762
850.41	20708
850.545	20655
850.68	20765
850.815	20746
850.95	20743
851.085	20796
851.22	20815
851.355	20785
851.49	20701
851.625	20739
851.76	20686
851.895	20617
852.03	20644
852.165	20659
852.299	20796
852.434	20857
852.569	20823
852.703	20686
852.838	20758
852.973	20857
853.107	20914
853.242	20617
853.376	20480
853.511	20427
853.645	20389
853.78	20712
853.914	20526
854.048	20594
854.183	20541
854.317	20499
854.451	20716
854.585	20514
854.72	20571
854.854	20503
854.988	20457
855.122	20495
855.256	20336
855.39	20530
855.524	20655
855.658	20579
855.792	20602
855.926	20507
856.06	20693
856.194	20499
856.327	20549
856.461	20358
856.595	20419
856.729	20552
856.862	20636
856.996	20598
857.13	20648
857.263	20556
857.397	20613
857.53	20438
857.664	20537
857.797	20575
857.931	20602
858.064	20537
858.197	20686
858.331	20446
858.464	20381
858.597	20336
858.731	20438
858.864	20492
858.997	20400
859.13	20419
859.263	20434
859.396	20609
859.529	20358
859.662	20415
859.795	20366
859.928	20393
860.061	20507
860.194	20484
860.327	20450
860.46	20374
860.592	20526
860.725	20537
860.858	20594
860.99	20446
861.123	20358
861.256	20419
861.388	20511
861.521	21089
861.653	20237
861.786	20298
861.918	20278
862.05	20324
862.183	20503
862.315	20499
862.447	20511
862.58	20541
862.712	20294
862.844	20214
862.976	20370
863.108	20195
863.24	20590
863.372	20176
863.504	20130
863.636	20153
863.768	20263
863.9	20145
864.032	20122
864.164	20161
864.296	20069
864.428	20305
864.559	20218
864.691	20202
864.823	20191
864.954	20157
865.086	20126
865.217	20092
865.349	19997
865.48	20027
865.612	20065
865.743	20172
865.875	20069
866.006	20031
866.137	19921
866.269	20050
866.4	20077
866.531	19898
866.662	19860
866.793	20012
866.924	19887
867.055	19997
867.186	19936
867.317	19947
867.448	19814
867.579	19864
867.71	19822
867.841	19906
867.972	20012
868.103	19906
868.233	19894
868.364	19967
868.495	20050
868.625	20122
868.756	20199
868.886	20031
869.017	20142
869.147	20412
869.278	20309
869.408	20164
869.539	20206
869.669	20256
869.799	20130
869.929	20305
870.06	20385
870.19	20549
870.32	20457
870.45	20366
870.58	20552
870.71	20743
870.84	20655
870.97	20651
871.1	20457
871.23	20746
871.36	20743
871.489	20689
871.619	20712
871.749	20739
871.879	20849
872.008	20864
872.138	20781
872.267	20743
872.397	20701
872.526	20708
872.656	20640
872.785	20484
872.915	20826
873.044	20845
873.173	20804
873.303	20899
873.432	20880
873.561	20830
873.69	20804
873.819	20807
873.948	20899
874.077	20880
874.206	20716
874.335	20804
874.464	20819
874.593	21028
874.722	20982
874.851	21036
874.979	21119
875.108	21165
875.237	21116
875.365	20914
875.494	21081
875.623	21211
875.751	21039
875.88	21108
876.008	21154
876.136	21230
876.265	21595
876.393	21633
876.521	21523
876.65	21557
876.778	21603
876.906	21439
877.034	21313
877.162	21431
877.29	21397
877.418	21488
877.546	21313
877.674	21401
877.802	21519
877.93	21507
878.058	21473
878.185	21260
878.313	21534
878.441	21435
878.568	21370
878.696	21340
878.824	21359
878.951	21439
879.079	21690
879.206	21812
879.333	21606
879.461	21633
879.588	21587
879.715	21625
879.842	21770
879.97	21568
880.097	21165
880.224	21389
880.351	21291
880.478	21332
880.605	21252
880.732	21291
880.859	21561
880.986	21283
881.112	21321
881.239	21237
881.366	21039
881.493	20971
881.619	20918
881.746	20967
881.872	20853
881.999	20750
882.125	20842
882.252	20971
882.378	20861
882.505	20857
882.631	20758
882.757	20651
882.883	20804
883.01	20621
883.136	20648
883.262	20499
883.388	20431
883.514	20697
883.64	20629
883.766	20465
883.892	20385
884.018	20454
884.143	20492
884.269	20651
884.395	20381
884.52	20252
884.646	20301
884.772	20259
884.897	20214
885.023	20259
885.148	20305
885.274	20400
885.399	20343
885.524	20161
885.65	20305
885.775	20176
885.9	20183
886.025	20347
886.15	20328
886.275	20180
886.4	20092
886.525	20233
886.65	20130
886.775	20100
886.9	20305
887.025	20301
887.149	20062
887.274	20016
887.399	19978
887.523	20012
887.648	19963
887.773	19921
887.897	20008
888.021	20012
888.146	20035
888.27	19993
888.395	20062
888.519	20043
888.643	20008
888.767	20107
888.891	19909
889.015	19719
889.139	19856
889.263	19746
889.387	19986
889.511	19951
889.635	19826
889.759	19708
889.883	19727
890.006	19791
890.13	19841
890.254	19742
890.377	19757
890.501	19487
890.624	19396
890.748	19594
890.871	19464
890.995	19430
891.118	19278
891.241	19426
891.364	19365
891.488	19556
891.611	19335
891.734	19396
891.857	19388
891.98	19274
892.103	19392
892.226	19343
892.349	19316
892.471	19244
892.594	19190
892.717	19228
892.839	19266
892.962	19282
893.085	19381
893.207	19324
893.33	19179
893.452	19259
893.575	19244
893.697	19221
893.819	19483
893.941	19464
894.064	19407
894.186	19190
894.308	19126
894.43	19301
894.552	19388
894.674	19346
894.796	19141
894.918	19320
895.04	19232
895.161	19297
895.283	19331
895.405	19213
895.526	19274
895.648	19270
895.769	19373
895.891	19282
896.012	19400
896.134	19350
896.255	19274
896.376	19293
896.498	19346
896.619	19438
896.74	19392
896.861	19365
896.982	19525
897.103	19723
897.224	19632
897.345	19483
897.466	19544
897.587	19620
897.708	19628
897.828	19624
897.949	19480
898.07	19502
898.19	19441
898.311	19700
898.431	19510
898.552	19415
898.672	19674
898.792	19685
898.913	19559
899.033	19392
899.153	19365
899.273	19145
899.393	19202
899.513	19392
899.633	19202
899.753	19384
899.873	19251
899.993	19255
900.113	19304
900.232	19381
900.352	19095
900.472	19103
900.591	19053
900.711	19145
900.83	19050
900.95	19034
901.069	19232
901.189	19023
901.308	18776
901.427	18673
901.546	18741
901.665	18703
901.784	18753
901.904	18467
902.023	18490
902.141	18216
902.26	18117
902.379	18205
902.498	18205
902.617	18053
902.735	18140
902.854	18174
902.973	18076
903.091	17855
903.21	17821
903.328	17802
903.446	17737
903.565	17661
903.683	17558
903.801	17535
903.919	17649
904.038	17619
904.156	17387
904.274	17433
904.392	17379
904.51	17299
904.627	17501
904.745	17433
904.863	17292
904.981	17204
905.098	16957
905.216	17052
905.334	17109
905.451	16980
905.569	17003
905.686	17022
905.803	16984
905.921	16820
906.038	16930
906.155	16782
906.272	16755
906.389	16694
906.506	16599
906.623	16622
906.74	16622
906.857	16478
906.974	16462
907.091	16615
907.208	16660
907.324	16603
907.441	16512
907.557	16284
907.674	16261
907.79	16268
907.907	16314
908.023	16280
908.139	16185
908.256	16223
908.372	16139
908.488	15956
908.604	16032
908.72	15899
908.836	15987
908.952	15892
909.068	16002
909.184	16032
909.3	15922
909.415	16025
909.531	15975
909.647	15549
909.762	15663
909.878	15667
909.993	15652
910.108	15515
910.224	15564
910.339	15667
910.454	15397
910.57	15492
910.685	15454
910.8	15724
910.915	15622
911.03	15481
911.145	15306
911.259	15264
911.374	15260
911.489	15165
911.604	15062
911.718	14902
911.833	15062
911.947	14899
912.062	14758
912.176	14910
912.291	15036
912.405	14872
912.519	15097
912.633	15146
912.748	14933
912.862	14986
912.976	14864
913.09	14697
913.204	14800
913.318	14705
913.431	14815
913.545	14895
913.659	14887
913.772	14731
913.886	14682
914	14621
914.113	14708
914.226	14720
914.34	14663
914.453	14484
914.566	14621
914.68	14484
914.793	14400
914.906	14298
915.019	14218
915.132	14145
915.245	14267
915.358	14313
915.47	14305
915.583	14282
915.696	14225
915.809	14332
915.921	14294
916.034	14233
916.146	14130
916.259	14123
916.371	14187
916.483	14145
916.595	14138
916.708	14046
916.82	14073
916.932	14180
917.044	14054
917.156	14077
917.268	13890
917.38	13928
917.491	13856
917.603	13864
917.715	13974
917.826	13959
917.938	13883
918.049	13715
918.161	13845
918.272	14069
918.384	13940
918.495	13921
918.606	13719
918.717	13757
918.828	13723
918.939	13753
919.05	13616
919.161	13525
919.272	13426
919.383	13521
919.494	13647
919.604	13670
919.715	13624
919.826	13537
919.936	13594
920.047	13723
920.157	13636
920.267	13776
920.378	13624
920.488	13533
920.598	13818
920.708	13947
920.818	13757
920.928	13655
921.038	13925
921.148	13860
921.258	13571
921.368	13491
921.477	13339
921.587	13312
921.697	13293
921.806	13411
921.916	13171
922.025	12996
922.134	13008
922.244	12985
922.353	13008
922.462	12871
922.571	12776
922.68	12662
922.789	12608
922.898	12650
923.007	12650
923.116	12738
923.224	12570
923.333	12597
923.442	12608
923.55	12517
923.659	12578
923.767	12513
923.876	12483
923.984	12479
924.092	12403
924.201	12494
924.309	12426
924.417	12490
924.525	12327
924.633	12296
924.741	13358
924.849	12152
924.956	12216
925.064	12144
925.172	12007
925.279	12159
925.387	12152
925.494	12114
925.602	12285
925.709	12277
925.816	12022
925.924	12083
926.031	12190
926.138	12030
926.245	12129
926.352	11950
926.459	12133
926.566	12140
926.673	11980
926.779	11904
926.886	11946
926.993	11722
927.099	11821
927.206	11786
927.312	11661
927.419	11897
927.525	11699
927.631	11608
927.737	11726
927.843	11589
927.95	11516
928.056	11627
928.162	11543
928.267	11562
928.373	12209
928.479	11657
928.585	11383
928.69	11532
928.796	11577
928.901	11493
929.007	11303
929.112	11497
929.218	11356
929.323	11349
929.428	11318
929.533	11509
929.638	11341
929.743	11227
929.848	11356
929.953	11269
930.058	11181
930.163	11048
930.267	11025
930.372	11098
930.477	11006
930.581	11261
930.685	11067
930.79	10885
930.894	10965
930.998	10885
931.103	10961
931.207	10740
931.311	10618
931.415	10497
931.519	10398
931.623	10238
