Data from test_V78500241_1768.txt Node
Date: Fri Mar 25 14:46:01 CST 2022
User: usil
Spectrometer: V785-0024
Trigger mode: 0
Integration Time (sec): 4.000000E-1
Scans to average: 1
Nonlinearity correction enabled: false
Boxcar width: 0
Storing dark spectrum: false
XAxis mode: Wavelengths
Number of Pixels in Spectrum: 1024
>>>>>Begin Spectral Data<<<<<
801.071	22124
801.214	22112
801.356	21835
801.499	21759
801.641	21564
801.783	21515
801.926	21473
802.068	21553
802.211	21420
802.353	21329
802.496	21154
802.638	21077
802.78	21066
802.923	20925
803.065	20883
803.208	20960
803.35	20944
803.492	21024
803.635	21062
803.777	20887
803.919	20929
804.061	21344
804.204	20815
804.346	20853
804.488	20845
804.63	20849
804.773	20743
804.915	20762
805.057	20910
805.199	20765
805.341	20944
805.483	20845
805.626	20906
805.768	20724
805.91	20781
806.052	20941
806.194	20781
806.336	20971
806.478	20716
806.62	20750
806.762	20887
806.904	21024
807.046	21252
807.188	21142
807.33	21085
807.472	21256
807.614	21104
807.756	21028
807.898	20906
808.04	20819
808.182	20906
808.324	20914
808.465	21020
808.607	21138
808.749	21157
808.891	21291
809.033	21382
809.174	21169
809.316	21146
809.458	21279
809.6	21161
809.741	21169
809.883	21230
810.025	21447
810.166	21412
810.308	21378
810.45	21226
810.591	21226
810.733	21123
810.875	21100
811.016	20929
811.158	20815
811.299	21058
811.441	21131
811.582	21096
811.724	20982
811.865	20921
812.007	21024
812.148	21077
812.29	20944
812.431	21165
812.573	21287
812.714	21435
812.855	21504
812.997	21614
813.138	21739
813.279	21576
813.421	21492
813.562	21363
813.703	21184
813.845	21161
813.986	20880
814.127	20716
814.268	20556
814.41	20419
814.551	20575
814.692	20552
814.833	20473
814.974	20476
815.115	20590
815.256	20305
815.397	20324
815.539	20366
815.68	20324
815.821	20237
815.962	20301
816.103	20187
816.244	20138
816.385	20142
816.526	19947
816.666	19780
816.807	19700
816.948	19696
817.089	19818
817.23	19662
817.371	19708
817.512	19746
817.653	19750
817.793	19609
817.934	19712
818.075	19674
818.216	19639
818.356	19597
818.497	19533
818.638	19415
818.778	19304
818.919	19301
819.06	19384
819.2	19472
819.341	19476
819.481	19468
819.622	19616
819.762	19776
819.903	19837
820.043	19791
820.184	19723
820.324	19784
820.465	19674
820.605	19719
820.746	19597
820.886	19499
821.026	19624
821.167	19590
821.307	19658
821.447	19502
821.588	19464
821.728	19343
821.868	19183
822.008	19072
822.149	18981
822.289	18882
822.429	18844
822.569	18639
822.709	18791
822.849	18715
822.99	18509
823.13	18433
823.27	18585
823.41	18376
823.55	18273
823.69	18311
823.83	18311
823.97	18285
824.11	18167
824.25	18110
824.389	18087
824.529	18235
824.669	18076
824.809	18182
824.949	18152
825.089	18182
825.228	18102
825.368	17965
825.508	17912
825.648	17882
825.787	17965
825.927	17923
826.067	17931
826.206	17832
826.346	17866
826.485	17893
826.625	17897
826.765	17980
826.904	17897
827.044	17699
827.183	17691
827.323	17551
827.462	17589
827.601	17638
827.741	17615
827.88	17646
828.02	17482
828.159	17543
828.298	17600
828.437	17699
828.577	17509
828.716	17707
828.855	17562
828.994	17315
829.134	17387
829.273	17398
829.412	17349
829.551	17250
829.69	17353
829.829	17414
829.968	17417
830.107	17330
830.246	17349
830.385	17242
830.524	17322
830.663	17098
830.802	17067
830.941	16911
831.08	16938
831.219	17083
831.357	17014
831.496	17258
831.635	16953
831.774	16889
831.913	16877
832.051	16801
832.19	16767
832.329	16771
832.467	16702
832.606	16683
832.744	16710
832.883	16706
833.022	16634
833.16	16710
833.299	16672
833.437	16656
833.576	16645
833.714	16713
833.852	16649
833.991	16721
834.129	16767
834.267	16824
834.406	16687
834.544	16733
834.682	16725
834.821	16637
834.959	16866
835.097	16675
835.235	16847
835.373	16683
835.511	16710
835.65	16474
835.788	16558
835.926	16512
836.064	16455
836.202	16352
836.34	16622
836.478	16683
836.615	16565
836.753	16687
836.891	16653
837.029	16630
837.167	16523
837.305	16500
837.443	16519
837.58	16440
837.718	16596
837.856	16455
837.993	16424
838.131	16421
838.269	16470
838.406	16428
838.544	16348
838.681	16253
838.819	16200
838.956	15972
839.094	16021
839.231	16032
839.369	16101
839.506	16367
839.643	16177
839.781	16044
839.918	15956
840.055	16055
840.193	15964
840.33	15987
840.467	15998
840.604	16032
840.742	16325
840.879	15918
841.016	15949
841.153	15987
841.29	16124
841.427	15991
841.564	16055
841.701	16029
841.838	15865
841.975	15918
842.112	15804
842.249	15911
842.385	15709
842.522	16029
842.659	15861
842.796	15774
842.933	15770
843.069	15759
843.206	15816
843.343	15892
843.479	15892
843.616	15827
843.752	15584
843.889	15671
844.025	15743
844.162	15564
844.298	15656
844.435	15553
844.571	15515
844.708	15667
844.844	15800
844.98	15728
845.117	15717
845.253	15526
845.389	15481
845.525	15481
845.661	15534
845.798	15420
845.934	15454
846.07	15374
846.206	15431
846.342	15477
846.478	15420
846.614	15233
846.75	15112
846.886	15123
847.022	15260
847.158	15279
847.294	15184
847.429	15173
847.565	15131
847.701	15340
847.837	14948
847.972	14781
848.108	14937
848.244	14910
848.379	14800
848.515	14765
848.65	14693
848.786	14754
848.921	14758
849.057	14925
849.192	14834
849.328	14849
849.463	14815
849.598	14826
849.734	14651
849.869	14602
850.004	14617
850.14	14560
850.275	14568
850.41	14355
850.545	14503
850.68	14484
850.815	14518
850.95	14579
851.085	14727
851.22	14625
851.355	14522
851.49	14530
851.625	14522
851.76	14434
851.895	14290
852.03	14457
852.165	14541
852.299	14602
852.434	14621
852.569	14530
852.703	14518
852.838	14545
852.973	14693
853.107	14617
853.242	14446
853.376	14408
853.511	14298
853.645	14404
853.78	14526
853.914	14442
854.048	14358
854.183	14381
854.317	14381
854.451	14602
854.585	14396
854.72	14381
854.854	14358
854.988	14267
855.122	14370
855.256	14290
855.39	14450
855.524	14526
855.658	14434
855.792	14434
855.926	14469
856.06	14488
856.194	14545
856.327	14427
856.461	14362
856.595	14389
856.729	14457
856.862	14396
856.996	14427
857.13	14518
857.263	14594
857.397	14533
857.53	14358
857.664	14461
857.797	14514
857.931	14434
858.064	14484
858.197	14518
858.331	14457
858.464	14389
858.597	14393
858.731	14488
858.864	14400
858.997	14244
859.13	14336
859.263	14450
859.396	14457
859.529	14446
859.662	14366
859.795	14328
859.928	14469
860.061	14499
860.194	14610
860.327	14343
860.46	14393
860.592	14454
860.725	14492
860.858	14533
860.99	14389
861.123	14294
861.256	14248
861.388	14362
861.521	14998
861.653	14313
861.786	14263
861.918	14267
862.05	14305
862.183	14358
862.315	14404
862.447	14518
862.58	14374
862.712	14218
862.844	14073
862.976	14301
863.108	14221
863.24	14514
863.372	14221
863.504	14225
863.636	14157
863.768	14324
863.9	14164
864.032	14027
864.164	14126
864.296	14123
864.428	14301
864.559	14202
864.691	14225
864.823	14240
864.954	14210
865.086	14206
865.217	14149
865.349	14005
865.48	14088
865.612	14130
865.743	14298
865.875	14240
866.006	14229
866.137	14134
866.269	14153
866.4	14172
866.531	14024
866.662	14103
866.793	14145
866.924	14142
867.055	14244
867.186	14210
867.317	14069
867.448	13986
867.579	13986
867.71	14050
867.841	14024
867.972	14214
868.103	14176
868.233	14172
868.364	14149
868.495	14294
868.625	14358
868.756	14568
868.886	14358
869.017	14427
869.147	14454
869.278	14461
869.408	14431
869.539	14385
869.669	14473
869.799	14465
869.929	14488
870.06	14556
870.19	14678
870.32	14785
870.45	14735
870.58	14826
870.71	14838
870.84	14952
870.97	14815
871.1	14815
871.23	15009
871.36	14994
871.489	14895
871.619	14982
871.749	15020
871.879	15085
872.008	15188
872.138	15089
872.267	14872
872.397	14910
872.526	14861
872.656	14872
872.785	14842
872.915	15055
873.044	15150
873.173	15085
873.303	15074
873.432	15161
873.561	15150
873.69	15123
873.819	15074
873.948	15108
874.077	15066
874.206	15055
874.335	15089
874.464	15199
874.593	15321
874.722	15203
874.851	15363
874.979	15469
875.108	15488
875.237	15325
875.365	15363
875.494	15329
875.623	15397
875.751	15264
875.88	15458
876.008	15549
876.136	15542
876.265	15789
876.393	15991
876.521	15873
876.65	15869
876.778	15888
876.906	15835
877.034	15686
877.162	15701
877.29	15675
877.418	15778
877.546	15736
877.674	15842
877.802	15816
877.93	15743
878.058	15739
878.185	15637
878.313	15831
878.441	15739
878.568	15557
878.696	15751
878.824	15812
878.951	15827
879.079	15911
879.206	16097
879.333	15892
879.461	15823
879.588	15876
879.715	15888
879.842	16048
879.97	15842
880.097	15667
880.224	15660
880.351	15603
880.478	15618
880.605	15599
880.732	15629
880.859	15895
880.986	15568
881.112	15717
881.239	15561
881.366	15473
881.493	15416
881.619	15275
881.746	15294
881.872	15310
881.999	15154
882.125	15340
882.252	15275
882.378	15275
882.505	15389
882.631	15138
882.757	15032
882.883	15131
883.01	15081
883.136	15104
883.262	14910
883.388	14872
883.514	15055
883.64	15081
883.766	15058
883.892	14960
884.018	14941
884.143	15135
884.269	15165
884.395	14876
884.52	14788
884.646	14895
884.772	14746
884.897	14712
885.023	14800
885.148	14891
885.274	14902
885.399	14876
885.524	14883
885.65	14788
885.775	14807
885.9	14807
886.025	14971
886.15	14823
886.275	14758
886.4	14663
886.525	14750
886.65	14735
886.775	14667
886.9	15009
887.025	15032
887.149	14807
887.274	14667
887.399	14571
887.523	14579
887.648	14617
887.773	14545
887.897	14762
888.021	14746
888.146	14678
888.27	14644
888.395	14716
888.519	14644
888.643	14693
888.767	14682
888.891	14541
889.015	14495
889.139	14511
889.263	14465
889.387	14556
889.511	14659
889.635	14632
889.759	14492
889.883	14484
890.006	14507
890.13	14606
890.254	14469
890.377	14427
890.501	14298
890.624	14225
890.748	14374
890.871	14240
890.995	14134
891.118	14077
891.241	14199
891.364	14153
891.488	14355
891.611	14195
891.734	14180
891.857	14210
891.98	14259
892.103	14248
892.226	14286
892.349	14206
892.471	14039
892.594	14191
892.717	14187
892.839	14149
892.962	14161
893.085	14183
893.207	14244
893.33	14100
893.452	14168
893.575	14206
893.697	14168
893.819	14298
893.941	14450
894.064	14290
894.186	14180
894.308	14084
894.43	14240
894.552	14419
894.674	14393
894.796	14161
894.918	14161
895.04	14199
895.161	14396
895.283	14427
895.405	14225
895.526	14199
895.648	14313
895.769	14248
895.891	14393
896.012	14324
896.134	14393
896.255	14362
896.376	14313
896.498	14396
896.619	14381
896.74	14328
896.861	14465
896.982	14667
897.103	14819
897.224	14526
897.345	14678
897.466	14537
897.587	14594
897.708	14720
897.828	14640
897.949	14621
898.07	14533
898.19	14606
898.311	14815
898.431	14613
898.552	14636
898.672	14857
898.792	14724
898.913	14758
899.033	14655
899.153	14579
899.273	14545
899.393	14400
899.513	14617
899.633	14518
899.753	14590
899.873	14571
899.993	14640
900.113	14480
900.232	14575
900.352	14484
900.472	14438
900.591	14400
900.711	14507
900.83	14366
900.95	14446
901.069	14484
901.189	14336
901.308	14138
901.427	14020
901.546	14084
901.665	14084
901.784	14145
901.904	14024
902.023	13852
902.141	13727
902.26	13685
902.379	13814
902.498	13643
902.617	13643
902.735	13693
902.854	13723
902.973	13658
903.091	13441
903.21	13327
903.328	13331
903.446	13343
903.565	13202
903.683	13244
903.801	13160
903.919	13202
904.038	13251
904.156	13023
904.274	13141
904.392	12973
904.51	12981
904.627	13072
904.745	13076
904.863	13168
904.981	12894
905.098	12688
905.216	12673
905.334	12764
905.451	12715
905.569	12719
905.686	12829
905.803	12749
905.921	12502
906.038	12601
906.155	12547
906.272	12372
906.389	12403
906.506	12388
906.623	12460
906.74	12311
906.857	12209
906.974	12277
907.091	12410
907.208	12437
907.324	12350
907.441	12247
907.557	12011
907.674	12045
907.79	12011
907.907	12026
908.023	12022
908.139	12053
908.256	12034
908.372	11965
908.488	11946
908.604	11851
908.72	11786
908.836	11851
908.952	11809
909.068	11775
909.184	11916
909.3	11745
909.415	11832
909.531	11878
909.647	11627
909.762	11608
909.878	11581
909.993	11596
910.108	11577
910.224	11551
910.339	11589
910.454	11554
910.57	11425
910.685	11429
910.8	11668
910.915	11585
911.03	11425
911.145	11296
911.259	11292
911.374	11360
911.489	11204
911.604	11147
911.718	11048
911.833	11086
911.947	10930
912.062	10915
912.176	11086
912.291	11060
912.405	11075
912.519	11242
912.633	11254
912.748	11109
912.862	11064
912.976	10980
913.09	10721
913.204	10923
913.318	10911
913.431	11064
913.545	11083
913.659	11181
913.772	10946
913.886	10801
914	10771
914.113	10930
914.226	10915
914.34	10900
914.453	10702
914.566	10892
914.68	10675
914.793	10740
914.906	10550
915.019	10523
915.132	10504
915.245	10493
915.358	10497
915.47	10615
915.583	10569
915.696	10641
915.809	10664
915.921	10691
916.034	10497
916.146	10481
916.259	10470
916.371	10656
916.483	10592
916.595	10428
916.708	10485
916.82	10531
916.932	10497
917.044	10512
917.156	10447
917.268	10295
917.38	10440
917.491	10402
917.603	10451
917.715	10440
917.826	10474
917.938	10360
918.049	10276
918.161	10405
918.272	10493
918.384	10580
918.495	10440
918.606	10246
918.717	10173
918.828	10337
918.939	10272
919.05	10120
919.161	10272
919.272	9979
919.383	10158
919.494	10287
919.604	10489
919.715	10257
919.826	10185
919.936	10249
920.047	10352
920.157	10219
920.267	10500
920.378	10375
920.488	10234
920.598	10402
920.708	10637
920.818	10542
920.928	10497
921.038	10656
921.148	10542
921.258	10306
921.368	10257
921.477	10135
921.587	10093
921.697	10040
921.806	10131
921.916	10048
922.025	9793
922.134	9873
922.244	9793
922.353	9854
922.462	9686
922.571	9625
922.68	9599
922.789	9511
922.898	9580
923.007	9507
923.116	9523
923.224	9504
923.333	9511
923.442	9408
923.55	9386
923.659	9405
923.767	9416
923.876	9325
923.984	9424
924.092	9348
924.201	9382
924.309	9397
924.417	9389
924.525	9393
924.633	9389
924.741	10227
924.849	9195
924.956	9275
925.064	9222
925.172	9104
925.279	9146
925.387	9165
925.494	9199
925.602	9374
925.709	9260
925.816	9097
925.924	9173
926.031	9245
926.138	9203
926.245	9241
926.352	9043
926.459	9241
926.566	9256
926.673	9116
926.779	9066
926.886	9077
926.993	8933
927.099	8914
927.206	8883
927.312	8849
927.419	8880
927.525	8952
927.631	8956
927.737	8800
927.843	8766
927.95	8777
928.056	8777
928.162	8796
928.267	8849
928.373	9458
928.479	8807
928.585	8636
928.69	8785
928.796	8792
928.901	8636
929.007	8537
929.112	8705
929.218	8648
929.323	8583
929.428	8602
929.533	8670
929.638	8598
929.743	8579
929.848	8689
929.953	8629
930.058	8568
930.163	8412
930.267	8377
930.372	8492
930.477	8347
930.581	8514
930.685	8507
930.79	8355
930.894	8298
930.998	8248
931.103	8431
931.207	8142
931.311	8065
931.415	8065
931.519	7845
931.623	7845
