Data from test_V78500241_1801.txt Node
Date: Fri Mar 25 14:46:15 CST 2022
User: usil
Spectrometer: V785-0024
Trigger mode: 0
Integration Time (sec): 4.000000E-1
Scans to average: 1
Nonlinearity correction enabled: false
Boxcar width: 0
Storing dark spectrum: false
XAxis mode: Wavelengths
Number of Pixels in Spectrum: 1024
>>>>>Begin Spectral Data<<<<<
801.071	22226
801.214	22105
801.356	21838
801.499	21679
801.641	21561
801.783	21454
801.926	21580
802.068	21408
802.211	21401
802.353	21332
802.496	21096
802.638	21013
802.78	21001
802.923	20891
803.065	20895
803.208	20819
803.35	20876
803.492	21005
803.635	20948
803.777	20746
803.919	21032
804.061	21218
804.204	20956
804.346	20914
804.488	20762
804.63	20857
804.773	20644
804.915	20788
805.057	20868
805.199	20785
805.341	20887
805.483	20891
805.626	20902
805.768	20720
805.91	20788
806.052	20891
806.194	20769
806.336	20906
806.478	20811
806.62	20659
806.762	20758
806.904	20887
807.046	21195
807.188	21020
807.33	21112
807.472	21081
807.614	20975
807.756	21157
807.898	20788
808.04	20785
808.182	20910
808.324	20777
808.465	20853
808.607	21108
808.749	21180
808.891	21131
809.033	21389
809.174	21310
809.316	21302
809.458	21161
809.6	21192
809.741	21230
809.883	21260
810.025	21272
810.166	21287
810.308	21310
810.45	21302
810.591	21176
810.733	21119
810.875	20956
811.016	20906
811.158	20785
811.299	20941
811.441	20982
811.582	20986
811.724	20918
811.865	20792
812.007	20750
812.148	20868
812.29	20891
812.431	21100
812.573	21447
812.714	21363
812.855	21378
812.997	21523
813.138	21637
813.279	21580
813.421	21424
813.562	21424
813.703	21169
813.845	21070
813.986	20876
814.127	20632
814.268	20537
814.41	20564
814.551	20530
814.692	20412
814.833	20400
814.974	20343
815.115	20499
815.256	20374
815.397	20294
815.539	20278
815.68	20164
815.821	20214
815.962	20233
816.103	20305
816.244	20081
816.385	20039
816.526	19928
816.666	19727
816.807	19548
816.948	19765
817.089	19708
817.23	19537
817.371	19624
817.512	19613
817.653	19658
817.793	19597
817.934	19559
818.075	19643
818.216	19731
818.356	19556
818.497	19495
818.638	19236
818.778	19327
818.919	19403
819.06	19270
819.2	19422
819.341	19358
819.481	19552
819.622	19662
819.762	19750
819.903	19761
820.043	19693
820.184	19586
820.324	19590
820.465	19662
820.605	19689
820.746	19624
820.886	19480
821.026	19563
821.167	19548
821.307	19624
821.447	19594
821.588	19510
821.728	19278
821.868	19232
822.008	19061
822.149	19027
822.289	18970
822.429	18779
822.569	18627
822.709	18654
822.849	18490
822.99	18563
823.13	18566
823.27	18422
823.41	18300
823.55	18262
823.69	18258
823.83	18270
823.97	18186
824.11	18079
824.25	18076
824.389	18079
824.529	18136
824.669	18091
824.809	18144
824.949	18133
825.089	18083
825.228	18007
825.368	17988
825.508	18038
825.648	17889
825.787	17908
825.927	18019
826.067	17840
826.206	17908
826.346	17889
826.485	17882
826.625	17794
826.765	17923
826.904	17954
827.044	17722
827.183	17672
827.323	17512
827.462	17592
827.601	17672
827.741	17585
827.88	17657
828.02	17501
828.159	17535
828.298	17600
828.437	17657
828.577	17509
828.716	17684
828.855	17665
828.994	17315
829.134	17349
829.273	17395
829.412	17337
829.551	17261
829.69	17250
829.829	17303
829.968	17345
830.107	17398
830.246	17212
830.385	17178
830.524	17090
830.663	17231
830.802	17060
830.941	16900
831.08	16858
831.219	17018
831.357	16957
831.496	17124
831.635	16987
831.774	16873
831.913	16729
832.051	16744
832.19	16702
832.329	16752
832.467	16679
832.606	16512
832.744	16626
832.883	16584
833.022	16592
833.16	16637
833.299	16717
833.437	16622
833.576	16675
833.714	16615
833.852	16691
833.991	16710
834.129	16729
834.267	16668
834.406	16588
834.544	16630
834.682	16744
834.821	16668
834.959	16862
835.097	16744
835.235	16664
835.373	16683
835.511	16733
835.65	16611
835.788	16592
835.926	16462
836.064	16386
836.202	16371
836.34	16668
836.478	16698
836.615	16538
836.753	16653
836.891	16679
837.029	16615
837.167	16596
837.305	16481
837.443	16508
837.58	16512
837.718	16535
837.856	16443
837.993	16413
838.131	16440
838.269	16356
838.406	16390
838.544	16318
838.681	16192
838.819	16048
838.956	16032
839.094	15945
839.231	15975
839.369	16150
839.506	16436
839.643	16162
839.781	16048
839.918	16090
840.055	15991
840.193	16071
840.33	15960
840.467	15915
840.604	16071
840.742	16306
840.879	15865
841.016	15975
841.153	15998
841.29	16101
841.427	16006
841.564	16013
841.701	16067
841.838	15903
841.975	15930
842.112	15838
842.249	15846
842.385	15686
842.522	16017
842.659	15781
842.796	15743
842.933	15785
843.069	15724
843.206	15736
843.343	15895
843.479	15785
843.616	15781
843.752	15599
843.889	15564
844.025	15766
844.162	15534
844.298	15739
844.435	15557
844.571	15523
844.708	15686
844.844	15728
844.98	15739
845.117	15739
845.253	15625
845.389	15439
845.525	15606
845.661	15466
845.798	15363
845.934	15488
846.07	15389
846.206	15450
846.342	15542
846.478	15382
846.614	15249
846.75	15192
846.886	15028
847.022	15173
847.158	15146
847.294	15161
847.429	15146
847.565	15203
847.701	15370
847.837	14842
847.972	14807
848.108	14948
848.244	15112
848.379	14785
848.515	14773
848.65	14697
848.786	14731
848.921	14762
849.057	14929
849.192	14880
849.328	14769
849.463	14811
849.598	14773
849.734	14610
849.869	14632
850.004	14579
850.14	14594
850.275	14541
850.41	14408
850.545	14469
850.68	14564
850.815	14484
850.95	14579
851.085	14724
851.22	14663
851.355	14610
851.49	14545
851.625	14556
851.76	14560
851.895	14476
852.03	14457
852.165	14522
852.299	14526
852.434	14636
852.569	14598
852.703	14511
852.838	14636
852.973	14716
853.107	14644
853.242	14476
853.376	14457
853.511	14237
853.645	14286
853.78	14518
853.914	14465
854.048	14339
854.183	14427
854.317	14442
854.451	14530
854.585	14431
854.72	14393
854.854	14454
854.988	14351
855.122	14404
855.256	14298
855.39	14358
855.524	14446
855.658	14377
855.792	14446
855.926	14533
856.06	14492
856.194	14560
856.327	14374
856.461	14343
856.595	14469
856.729	14347
856.862	14480
856.996	14454
857.13	14389
857.263	14522
857.397	14556
857.53	14362
857.664	14461
857.797	14507
857.931	14465
858.064	14495
858.197	14579
858.331	14469
858.464	14457
858.597	14309
858.731	14442
858.864	14366
858.997	14427
859.13	14495
859.263	14560
859.396	14465
859.529	14423
859.662	14355
859.795	14351
859.928	14362
860.061	14526
860.194	14514
860.327	14419
860.46	14408
860.592	14450
860.725	14530
860.858	14678
860.99	14351
861.123	14240
861.256	14358
861.388	14343
861.521	15001
861.653	14332
861.786	14317
861.918	14282
862.05	14259
862.183	14389
862.315	14385
862.447	14507
862.58	14423
862.712	14221
862.844	14115
862.976	14347
863.108	14263
863.24	14583
863.372	14062
863.504	14218
863.636	14172
863.768	14278
863.9	14157
864.032	14149
864.164	14100
864.296	14237
864.428	14271
864.559	14286
864.691	14351
864.823	14282
864.954	14168
865.086	14286
865.217	14237
865.349	14103
865.48	14195
865.612	14157
865.743	14362
865.875	14256
866.006	14191
866.137	14138
866.269	14138
866.4	14138
866.531	14065
866.662	14077
866.793	14142
866.924	14168
867.055	14126
867.186	14229
867.317	14138
867.448	14008
867.579	14130
867.71	14058
867.841	14012
867.972	14237
868.103	14195
868.233	14088
868.364	14218
868.495	14301
868.625	14408
868.756	14518
868.886	14320
869.017	14358
869.147	14514
869.278	14632
869.408	14457
869.539	14400
869.669	14465
869.799	14518
869.929	14568
870.06	14522
870.19	14754
870.32	14743
870.45	14804
870.58	14743
870.71	14929
870.84	14944
870.97	14842
871.1	14857
871.23	14994
871.36	14948
871.489	14948
871.619	14883
871.749	15001
871.879	15047
872.008	15192
872.138	15100
872.267	14963
872.397	14887
872.526	14895
872.656	14743
872.785	14861
872.915	14979
873.044	15214
873.173	15100
873.303	15047
873.432	15112
873.561	15005
873.69	15100
873.819	15089
873.948	15173
874.077	15077
874.206	15043
874.335	15119
874.464	15256
874.593	15473
874.722	15245
874.851	15332
874.979	15454
875.108	15431
875.237	15386
875.365	15306
875.494	15370
875.623	15515
875.751	15294
875.88	15393
876.008	15595
876.136	15698
876.265	15732
876.393	15979
876.521	15934
876.65	15911
876.778	15770
876.906	15838
877.034	15701
877.162	15770
877.29	15732
877.418	15762
877.546	15797
877.674	15816
877.802	15823
877.93	15751
878.058	15694
878.185	15747
878.313	15781
878.441	15884
878.568	15614
878.696	15743
878.824	15759
878.951	15759
879.079	15892
879.206	16173
879.333	16036
879.461	15808
879.588	15945
879.715	16021
879.842	16032
879.97	15876
880.097	15762
880.224	15599
880.351	15622
880.478	15618
880.605	15492
880.732	15728
880.859	15865
880.986	15682
881.112	15663
881.239	15469
881.366	15382
881.493	15367
881.619	15256
881.746	15325
881.872	15264
881.999	15245
882.125	15321
882.252	15268
882.378	15321
882.505	15473
882.631	15211
882.757	15077
882.883	15093
883.01	15207
883.136	15138
883.262	14994
883.388	14899
883.514	15138
883.64	15135
883.766	15036
883.892	14861
884.018	14929
884.143	15138
884.269	15211
884.395	14899
884.52	14800
884.646	14781
884.772	14750
884.897	14697
885.023	14792
885.148	14895
885.274	14979
885.399	14929
885.524	14815
885.65	14902
885.775	14853
885.9	14743
886.025	14883
886.15	14887
886.275	14807
886.4	14830
886.525	14815
886.65	14769
886.775	14678
886.9	14925
887.025	15020
887.149	14849
887.274	14644
887.399	14507
887.523	14629
887.648	14549
887.773	14530
887.897	14701
888.021	14785
888.146	14617
888.27	14682
888.395	14823
888.519	14716
888.643	14636
888.767	14739
888.891	14526
889.015	14526
889.139	14530
889.263	14427
889.387	14632
889.511	14655
889.635	14670
889.759	14434
889.883	14461
890.006	14408
890.13	14636
890.254	14362
890.377	14438
890.501	14347
890.624	14271
890.748	14412
890.871	14252
890.995	14199
891.118	14050
891.241	14343
891.364	14157
891.488	14415
891.611	14199
891.734	14206
891.857	14233
891.98	14183
892.103	14252
892.226	14210
892.349	14138
892.471	14092
892.594	14161
892.717	14218
892.839	14199
892.962	14256
893.085	14301
893.207	14240
893.33	14157
893.452	14100
893.575	14267
893.697	14161
893.819	14412
893.941	14355
894.064	14339
894.186	14214
894.308	14161
894.43	14358
894.552	14358
894.674	14358
894.796	14214
894.918	14214
895.04	14267
895.161	14415
895.283	14275
895.405	14252
895.526	14332
895.648	14362
895.769	14294
895.891	14298
896.012	14514
896.134	14419
896.255	14324
896.376	14381
896.498	14328
896.619	14446
896.74	14415
896.861	14484
896.982	14811
897.103	14815
897.224	14724
897.345	14670
897.466	14594
897.587	14594
897.708	14727
897.828	14743
897.949	14613
898.07	14454
898.19	14526
898.311	14724
898.431	14682
898.552	14705
898.672	14830
898.792	14804
898.913	14750
899.033	14655
899.153	14568
899.273	14488
899.393	14450
899.513	14667
899.633	14560
899.753	14549
899.873	14511
899.993	14568
900.113	14564
900.232	14610
900.352	14514
900.472	14556
900.591	14427
900.711	14503
900.83	14385
900.95	14564
901.069	14575
901.189	14427
901.308	14164
901.427	14183
901.546	14100
901.665	14092
901.784	14092
901.904	13993
902.023	13887
902.141	13715
902.26	13666
902.379	13715
902.498	13624
902.617	13628
902.735	13738
902.854	13563
902.973	13582
903.091	13403
903.21	13369
903.328	13430
903.446	13346
903.565	13240
903.683	13358
903.801	13213
903.919	13156
904.038	13293
904.156	13069
904.274	13088
904.392	13118
904.51	12977
904.627	13031
904.745	13069
904.863	13149
904.981	12814
905.098	12677
905.216	12741
905.334	12833
905.451	12757
905.569	12707
905.686	12852
905.803	12738
905.921	12555
906.038	12650
906.155	12422
906.272	12517
906.389	12513
906.506	12304
906.623	12376
906.74	12266
906.857	12270
906.974	12357
907.091	12429
907.208	12509
907.324	12456
907.441	12232
907.557	12064
907.674	12102
907.79	12034
907.907	12083
908.023	12072
908.139	12159
908.256	12087
908.372	12053
908.488	11977
908.604	11893
908.72	11760
908.836	11878
908.952	11836
909.068	11813
909.184	11942
909.3	11863
909.415	11874
909.531	11809
909.647	11604
909.762	11649
909.878	11585
909.993	11634
910.108	11630
910.224	11535
910.339	11543
910.454	11512
910.57	11410
910.685	11387
910.8	11695
910.915	11657
911.03	11490
911.145	11326
911.259	11334
911.374	11326
911.489	11208
911.604	11109
911.718	11064
911.833	11102
911.947	10968
912.062	10946
912.176	11006
912.291	11090
912.405	11010
912.519	11197
912.633	11212
912.748	11231
912.862	11067
912.976	10942
913.09	10782
913.204	10923
913.318	10911
913.431	11071
913.545	10991
913.659	11136
913.772	11003
913.886	10793
914	10801
914.113	10957
914.226	11003
914.34	10961
914.453	10809
914.566	10980
914.68	10847
914.793	10793
914.906	10531
915.019	10531
915.132	10519
915.245	10599
915.358	10588
915.47	10573
915.583	10504
915.696	10618
915.809	10725
915.921	10736
916.034	10641
916.146	10565
916.259	10577
916.371	10592
916.483	10630
916.595	10485
916.708	10561
916.82	10554
916.932	10478
917.044	10443
917.156	10440
917.268	10402
917.38	10447
917.491	10371
917.603	10443
917.715	10542
917.826	10497
917.938	10436
918.049	10306
918.161	10382
918.272	10550
918.384	10584
918.495	10489
918.606	10299
918.717	10352
918.828	10386
918.939	10382
919.05	10238
919.161	10287
919.272	10128
919.383	10173
919.494	10409
919.604	10561
919.715	10348
919.826	10249
919.936	10234
920.047	10413
920.157	10337
920.267	10512
920.378	10337
920.488	10356
920.598	10565
920.708	10634
920.818	10538
920.928	10466
921.038	10717
921.148	10736
921.258	10284
921.368	10242
921.477	10139
921.587	10097
921.697	10063
921.806	10234
921.916	10101
922.025	9915
922.134	9838
922.244	9876
922.353	9915
922.462	9717
922.571	9641
922.68	9606
922.789	9485
922.898	9587
923.007	9473
923.116	9542
923.224	9545
923.333	9599
923.442	9454
923.55	9435
923.659	9447
923.767	9576
923.876	9389
923.984	9557
924.092	9355
924.201	9428
924.309	9428
924.417	9408
924.525	9428
924.633	9435
924.741	10246
924.849	9207
924.956	9378
925.064	9199
925.172	9138
925.279	9165
925.387	9184
925.494	9268
925.602	9367
925.709	9241
925.816	9093
925.924	9237
926.031	9294
926.138	9253
926.245	9272
926.352	9161
926.459	9195
926.566	9237
926.673	9146
926.779	9112
926.886	9085
926.993	8952
927.099	8902
927.206	8868
927.312	8876
927.419	9051
927.525	8944
927.631	8948
927.737	8876
927.843	8804
927.95	8682
928.056	8796
928.162	8781
928.267	8849
928.373	9462
928.479	8952
928.585	8621
928.69	8815
928.796	8807
928.901	8773
929.007	8663
929.112	8750
929.218	8708
929.323	8651
929.428	8610
929.533	8750
929.638	8583
929.743	8571
929.848	8655
929.953	8640
930.058	8533
930.163	8465
930.267	8362
930.372	8545
930.477	8400
930.581	8632
930.685	8465
930.79	8408
930.894	8377
930.998	8355
931.103	8469
931.207	8145
931.311	8111
931.415	7940
931.519	7864
931.623	7803
