Data from test_V78500241_3285.txt Node
Date: Fri Mar 25 14:56:35 CST 2022
User: usil
Spectrometer: V785-0024
Trigger mode: 0
Integration Time (sec): 4.000000E-1
Scans to average: 1
Nonlinearity correction enabled: false
Boxcar width: 0
Storing dark spectrum: false
XAxis mode: Wavelengths
Number of Pixels in Spectrum: 1024
>>>>>Begin Spectral Data<<<<<
801.071	22101
801.214	21884
801.356	21576
801.499	21481
801.641	21401
801.783	21298
801.926	21313
802.068	21351
802.211	21173
802.353	21123
802.496	20826
802.638	20830
802.78	20716
802.923	20743
803.065	20568
803.208	20606
803.35	20682
803.492	20689
803.635	20796
803.777	20689
803.919	20746
804.061	20944
804.204	20758
804.346	20632
804.488	20583
804.63	20674
804.773	20465
804.915	20503
805.057	20617
805.199	20594
805.341	20571
805.483	20678
805.626	20716
805.768	20457
805.91	20503
806.052	20602
806.194	20533
806.336	20617
806.478	20480
806.62	20465
806.762	20697
806.904	20651
807.046	20982
807.188	20914
807.33	20788
807.472	20979
807.614	20762
807.756	20895
807.898	20663
808.04	20492
808.182	20636
808.324	20579
808.465	20708
808.607	20842
808.749	20868
808.891	20899
809.033	21024
809.174	21005
809.316	20899
809.458	20895
809.6	20944
809.741	20895
809.883	20956
810.025	21001
810.166	21112
810.308	21123
810.45	20914
810.591	20990
810.733	20853
810.875	20887
811.016	20587
811.158	20579
811.299	20727
811.441	20727
811.582	20834
811.724	20670
811.865	20564
812.007	20579
812.148	20716
812.29	20811
812.431	20724
812.573	20849
812.714	21135
812.855	21184
812.997	21195
813.138	21344
813.279	21165
813.421	21199
813.562	21036
813.703	20975
813.845	20861
813.986	20640
814.127	20339
814.268	20218
814.41	20149
814.551	20183
814.692	20202
814.833	20202
814.974	20237
815.115	20233
815.256	20073
815.397	20081
815.539	20043
815.68	19902
815.821	19811
815.962	19883
816.103	19936
816.244	19871
816.385	19795
816.526	19742
816.666	19597
816.807	19441
816.948	19415
817.089	19422
817.23	19426
817.371	19335
817.512	19419
817.653	19289
817.793	19324
817.934	19377
818.075	19308
818.216	19362
818.356	19251
818.497	19358
818.638	19031
818.778	18985
818.919	19027
819.06	19080
819.2	19095
819.341	19266
819.481	19179
819.622	19304
819.762	19613
819.903	19381
820.043	19358
820.184	19415
820.324	19289
820.465	19411
820.605	19297
820.746	19297
820.886	19065
821.026	19285
821.167	19194
821.307	19422
821.447	19202
821.588	19346
821.728	19187
821.868	18867
822.008	18776
822.149	18779
822.289	18738
822.429	18479
822.569	18369
822.709	18426
822.849	18220
822.99	18232
823.13	18140
823.27	18209
823.41	18110
823.55	18079
823.69	18106
823.83	17992
823.97	17939
824.11	17802
824.25	17707
824.389	17741
824.529	17783
824.669	17828
824.809	17939
824.949	17882
825.089	17843
825.228	17733
825.368	17600
825.508	17672
825.648	17585
825.787	17558
825.927	17649
826.067	17493
826.206	17592
826.346	17646
826.485	17558
826.625	17539
826.765	17726
826.904	17729
827.044	17387
827.183	17402
827.323	17261
827.462	17372
827.601	17227
827.741	17296
827.88	17326
828.02	17166
828.159	17326
828.298	17296
828.437	17402
828.577	17254
828.716	17372
828.855	17162
828.994	17090
829.134	17098
829.273	17018
829.412	17029
829.551	16976
829.69	16968
829.829	17003
829.968	17197
830.107	17105
830.246	17094
830.385	17052
830.524	17022
830.663	16908
830.802	16797
830.941	16626
831.08	16691
831.219	16721
831.357	16774
831.496	16835
831.635	16649
831.774	16618
831.913	16504
832.051	16413
832.19	16516
832.329	16462
832.467	16409
832.606	16371
832.744	16303
832.883	16314
833.022	16310
833.16	16375
833.299	16325
833.437	16421
833.576	16440
833.714	16455
833.852	16398
833.991	16394
834.129	16497
834.267	16421
834.406	16455
834.544	16341
834.682	16379
834.821	16413
834.959	16546
835.097	16333
835.235	16375
835.373	16413
835.511	16561
835.65	16337
835.788	16352
835.926	16188
836.064	16124
836.202	16162
836.34	16295
836.478	16337
836.615	16261
836.753	16344
836.891	16443
837.029	16306
837.167	16367
837.305	16276
837.443	16226
837.58	16116
837.718	16337
837.856	16226
837.993	16177
838.131	16196
838.269	16162
838.406	16074
838.544	16032
838.681	15895
838.819	15876
838.956	15838
839.094	15778
839.231	15842
839.369	15865
839.506	16135
839.643	16010
839.781	15812
839.918	15690
840.055	15888
840.193	15720
840.33	15584
840.467	15857
840.604	15797
840.742	15934
840.879	15599
841.016	15679
841.153	15644
841.29	15937
841.427	15720
841.564	15876
841.701	15755
841.838	15705
841.975	15652
842.112	15717
842.249	15644
842.385	15557
842.522	15686
842.659	15485
842.796	15488
842.933	15625
843.069	15447
843.206	15511
843.343	15576
843.479	15488
843.616	15542
843.752	15408
843.889	15268
844.025	15469
844.162	15310
844.298	15412
844.435	15222
844.571	15298
844.708	15329
844.844	15397
844.98	15416
845.117	15492
845.253	15256
845.389	15226
845.525	15093
845.661	15192
845.798	15077
845.934	15146
846.07	15070
846.206	15093
846.342	15264
846.478	15207
846.614	14956
846.75	14876
846.886	14933
847.022	14979
847.158	14933
847.294	14956
847.429	14994
847.565	14868
847.701	15097
847.837	14731
847.972	14632
848.108	14800
848.244	14636
848.379	14556
848.515	14457
848.65	14518
848.786	14507
848.921	14415
849.057	14602
849.192	14625
849.328	14526
849.463	14495
849.598	14415
849.734	14389
849.869	14404
850.004	14317
850.14	14309
850.275	14267
850.41	14123
850.545	14248
850.68	14168
850.815	14320
850.95	14256
851.085	14419
851.22	14336
851.355	14278
851.49	14210
851.625	14240
851.76	14187
851.895	14111
852.03	14077
852.165	14172
852.299	14309
852.434	14275
852.569	14237
852.703	14267
852.838	14377
852.973	14419
853.107	14427
853.242	14161
853.376	14161
853.511	14031
853.645	14096
853.78	14294
853.914	14073
854.048	13947
854.183	14123
854.317	14168
854.451	14298
854.585	14081
854.72	14134
854.854	14172
854.988	13967
855.122	14221
855.256	13951
855.39	14024
855.524	14195
855.658	14081
855.792	14119
855.926	14183
856.06	14153
856.194	14298
856.327	14100
856.461	14153
856.595	14031
856.729	14153
856.862	14191
856.996	14142
857.13	14221
857.263	14240
857.397	14225
857.53	14153
857.664	14191
857.797	14225
857.931	14290
858.064	14210
858.197	14355
858.331	14157
858.464	14077
858.597	14012
858.731	14084
858.864	14062
858.997	14107
859.13	14168
859.263	14119
859.396	14199
859.529	14039
859.662	14096
859.795	14123
859.928	14107
860.061	14320
860.194	14298
860.327	14176
860.46	14096
860.592	14263
860.725	14317
860.858	14191
860.99	14210
861.123	14069
861.256	14126
861.388	14191
861.521	14899
861.653	14084
861.786	13909
861.918	13993
862.05	14058
862.183	13978
862.315	14153
862.447	14248
862.58	14077
862.712	13879
862.844	13902
862.976	14024
863.108	13928
863.24	14252
863.372	13894
863.504	13944
863.636	13890
863.768	13967
863.9	13849
864.032	13769
864.164	13883
864.296	13928
864.428	14039
864.559	13967
864.691	14046
864.823	13951
864.954	13993
865.086	13921
865.217	13940
865.349	13784
865.48	13875
865.612	13913
865.743	14043
865.875	13944
866.006	13902
866.137	13879
866.269	13807
866.4	13833
866.531	13997
866.662	13799
866.793	13830
866.924	13936
867.055	13894
867.186	13864
867.317	13837
867.448	13890
867.579	13822
867.71	13696
867.841	13826
867.972	13875
868.103	13951
868.233	13898
868.364	13913
868.495	14065
868.625	14130
868.756	14301
868.886	14081
869.017	14172
869.147	14248
869.278	14294
869.408	14256
869.539	14138
869.669	14206
869.799	14103
869.929	14282
870.06	14324
870.19	14454
870.32	14423
870.45	14598
870.58	14556
870.71	14648
870.84	14625
870.97	14522
871.1	14575
871.23	14811
871.36	14785
871.489	14697
871.619	14739
871.749	14792
871.879	14826
872.008	14891
872.138	14918
872.267	14773
872.397	14571
872.526	14632
872.656	14606
872.785	14686
872.915	14826
873.044	14906
873.173	14906
873.303	14796
873.432	14910
873.561	14899
873.69	14804
873.819	14891
873.948	15009
874.077	14887
874.206	14796
874.335	14834
874.464	15074
874.593	15142
874.722	15123
874.851	15173
874.979	15313
875.108	15279
875.237	15127
875.365	15070
875.494	15207
875.623	15260
875.751	15165
875.88	15157
876.008	15272
876.136	15416
876.265	15515
876.393	15751
876.521	15755
876.65	15637
876.778	15549
876.906	15561
877.034	15431
877.162	15507
877.29	15515
877.418	15648
877.546	15542
877.674	15568
877.802	15568
877.93	15641
878.058	15557
878.185	15424
878.313	15591
878.441	15637
878.568	15310
878.696	15549
878.824	15580
878.951	15679
879.079	15838
879.206	15972
879.333	15705
879.461	15595
879.588	15686
879.715	15816
879.842	15907
879.97	15660
880.097	15397
880.224	15344
880.351	15485
880.478	15435
880.605	15428
880.732	15462
880.859	15625
880.986	15500
881.112	15469
881.239	15389
881.366	15173
881.493	15127
881.619	15074
881.746	15104
881.872	14971
881.999	15176
882.125	15089
882.252	15108
882.378	15058
882.505	15264
882.631	15070
882.757	14948
882.883	14906
883.01	14891
883.136	14830
883.262	14788
883.388	14712
883.514	15017
883.64	14914
883.766	14804
883.892	14720
884.018	14724
884.143	14899
884.269	14998
884.395	14682
884.52	14663
884.646	14617
884.772	14571
884.897	14503
885.023	14640
885.148	14731
885.274	14731
885.399	14724
885.524	14648
885.65	14549
885.775	14651
885.9	14556
886.025	14655
886.15	14602
886.275	14549
886.4	14526
886.525	14583
886.65	14530
886.775	14556
886.9	14682
887.025	14796
887.149	14648
887.274	14431
887.399	14385
887.523	14286
887.648	14374
887.773	14377
887.897	14606
888.021	14492
888.146	14408
888.27	14427
888.395	14556
888.519	14412
888.643	14499
888.767	14549
888.891	14461
889.015	14313
889.139	14267
889.263	14324
889.387	14381
889.511	14522
889.635	14492
889.759	14332
889.883	14244
890.006	14320
890.13	14423
890.254	14267
890.377	14259
890.501	14111
890.624	13921
890.748	14183
890.871	14062
890.995	13940
891.118	13921
891.241	14054
891.364	14001
891.488	14062
891.611	13997
891.734	14024
891.857	14176
891.98	13947
892.103	14096
892.226	14024
892.349	13963
892.471	13936
892.594	13925
892.717	13989
892.839	13947
892.962	13944
893.085	14134
893.207	14088
893.33	13955
893.452	13955
893.575	14081
893.697	13967
893.819	14221
893.941	14252
894.064	14161
894.186	13978
894.308	13955
894.43	14210
894.552	14221
894.674	14237
894.796	13932
894.918	14016
895.04	14027
895.161	14134
895.283	14020
895.405	14077
895.526	14123
895.648	14240
895.769	14130
895.891	14240
896.012	14214
896.134	14206
896.255	14153
896.376	14119
896.498	14240
896.619	14187
896.74	14240
896.861	14278
896.982	14590
897.103	14682
897.224	14488
897.345	14473
897.466	14332
897.587	14389
897.708	14625
897.828	14511
897.949	14377
898.07	14328
898.19	14362
898.311	14526
898.431	14530
898.552	14606
898.672	14579
898.792	14621
898.913	14598
899.033	14446
899.153	14381
899.273	14309
899.393	14389
899.513	14427
899.633	14355
899.753	14511
899.873	14374
899.993	14423
900.113	14412
900.232	14442
900.352	14332
900.472	14309
900.591	14180
900.711	14294
900.83	14206
900.95	14366
901.069	14412
901.189	14157
901.308	14001
901.427	13955
901.546	13894
901.665	14039
901.784	14001
901.904	13856
902.023	13674
902.141	13525
902.26	13506
902.379	13556
902.498	13476
902.617	13491
902.735	13521
902.854	13540
902.973	13384
903.091	13213
903.21	13198
903.328	13263
903.446	13247
903.565	13183
903.683	13027
903.801	12916
903.919	13042
904.038	13046
904.156	12909
904.274	13050
904.392	12833
904.51	12878
904.627	12821
904.745	12916
904.863	12958
904.981	12745
905.098	12608
905.216	12509
905.334	12540
905.451	12608
905.569	12540
905.686	12623
905.803	12650
905.921	12418
906.038	12555
906.155	12429
906.272	12369
906.389	12247
906.506	12167
906.623	12175
906.74	12235
906.857	12098
906.974	12091
907.091	12304
907.208	12346
907.324	12220
907.441	12152
907.557	11984
907.674	11882
907.79	11920
907.907	11882
908.023	11996
908.139	11920
908.256	11904
908.372	11882
908.488	11790
908.604	11714
908.72	11714
908.836	11611
908.952	11684
909.068	11665
909.184	11783
909.3	11741
909.415	11790
909.531	11638
909.647	11547
909.762	11459
909.878	11459
909.993	11474
910.108	11501
910.224	11391
910.339	11433
910.454	11372
910.57	11341
910.685	11166
910.8	11551
910.915	11482
911.03	11379
911.145	11162
911.259	11147
911.374	11227
911.489	11060
911.604	11033
911.718	10949
911.833	10881
911.947	10866
912.062	10729
912.176	10862
912.291	10862
912.405	10911
912.519	11079
912.633	11128
912.748	10999
912.862	10953
912.976	10869
913.09	10626
913.204	10694
913.318	10828
913.431	10900
913.545	10930
913.659	10911
913.772	10778
913.886	10626
914	10626
914.113	10698
914.226	10774
914.34	10793
914.453	10554
914.566	10729
914.68	10561
914.793	10656
914.906	10447
915.019	10421
915.132	10386
915.245	10428
915.358	10424
915.47	10390
915.583	10531
915.696	10451
915.809	10546
915.921	10634
916.034	10310
916.146	10413
916.259	10295
916.371	10436
916.483	10421
916.595	10363
916.708	10390
916.82	10382
916.932	10287
917.044	10333
917.156	10318
917.268	10299
917.38	10272
917.491	10200
917.603	10287
917.715	10379
917.826	10363
917.938	10219
918.049	10158
918.161	10238
918.272	10398
918.384	10402
918.495	10257
918.606	10105
918.717	10143
918.828	10154
918.939	10211
919.05	10044
919.161	10090
919.272	9903
919.383	9949
919.494	10242
919.604	10329
919.715	10192
919.826	10055
919.936	10071
920.047	10234
920.157	10196
920.267	10295
920.378	10120
920.488	10116
920.598	10314
920.708	10428
920.818	10348
920.928	10344
921.038	10516
921.148	10485
921.258	10188
921.368	10135
921.477	10101
921.587	9934
921.697	9880
921.806	10109
921.916	9975
922.025	9736
922.134	9732
922.244	9682
922.353	9819
922.462	9545
922.571	9496
922.68	9408
922.789	9405
922.898	9428
923.007	9329
923.116	9424
923.224	9370
923.333	9370
923.442	9294
923.55	9249
923.659	9351
923.767	9477
923.876	9287
923.984	9393
924.092	9237
924.201	9222
924.309	9264
924.417	9306
924.525	9207
924.633	9275
924.741	10200
924.849	9100
924.956	9135
925.064	9028
925.172	8956
925.279	9100
925.387	9055
925.494	9020
925.602	9154
925.709	9146
925.816	8971
925.924	9089
926.031	9237
926.138	9176
926.245	9165
926.352	8990
926.459	9116
926.566	9157
926.673	9020
926.779	9013
926.886	8899
926.993	8766
927.099	8724
927.206	8777
927.312	8781
927.419	8792
927.525	8785
927.631	8807
927.737	8697
927.843	8686
927.95	8629
928.056	8655
928.162	8716
928.267	8781
928.373	9298
928.479	8849
928.585	8568
928.69	8674
928.796	8663
928.901	8644
929.007	8415
929.112	8541
929.218	8571
929.323	8507
929.428	8495
929.533	8625
929.638	8495
929.743	8514
929.848	8526
929.953	8476
930.058	8381
930.163	8294
930.267	8267
930.372	8377
930.477	8229
930.581	8503
930.685	8374
930.79	8161
930.894	8309
930.998	8267
931.103	8355
931.207	7989
931.311	7967
931.415	7909
931.519	7708
931.623	7674
