Data from test_V78500241_3195.txt Node
Date: Fri Mar 25 14:55:57 CST 2022
User: usil
Spectrometer: V785-0024
Trigger mode: 0
Integration Time (sec): 4.000000E-1
Scans to average: 1
Nonlinearity correction enabled: false
Boxcar width: 0
Storing dark spectrum: false
XAxis mode: Wavelengths
Number of Pixels in Spectrum: 1024
>>>>>Begin Spectral Data<<<<<
801.071	22021
801.214	21861
801.356	21816
801.499	21458
801.641	21572
801.783	21378
801.926	21370
802.068	21260
802.211	21256
802.353	21184
802.496	20948
802.638	20750
802.78	20811
802.923	20849
803.065	20762
803.208	20674
803.35	20708
803.492	20868
803.635	20838
803.777	20693
803.919	20792
804.061	21047
804.204	20731
804.346	20621
804.488	20686
804.63	20705
804.773	20613
804.915	20651
805.057	20727
805.199	20492
805.341	20743
805.483	20743
805.626	20651
805.768	20549
805.91	20621
806.052	20526
806.194	20522
806.336	20868
806.478	20602
806.62	20594
806.762	20731
806.904	20796
807.046	21047
807.188	20960
807.33	20994
807.472	20933
807.614	20872
807.756	20819
807.898	20792
808.04	20644
808.182	20655
808.324	20575
808.465	20857
808.607	20956
808.749	21013
808.891	21104
809.033	21127
809.174	21119
809.316	20891
809.458	20979
809.6	20872
809.741	21096
809.883	21055
810.025	21108
810.166	21176
810.308	21096
810.45	21218
810.591	20960
810.733	20777
810.875	20758
811.016	20659
811.158	20678
811.299	20743
811.441	20800
811.582	20921
811.724	20682
811.865	20800
812.007	20667
812.148	20682
812.29	20746
812.431	20777
812.573	21108
812.714	21100
812.855	21184
812.997	21313
813.138	21481
813.279	21359
813.421	21279
813.562	21108
813.703	21032
813.845	20902
813.986	20697
814.127	20431
814.268	20366
814.41	20442
814.551	20275
814.692	20339
814.833	20183
814.974	20256
815.115	20309
815.256	20157
815.397	20084
815.539	20206
815.68	20126
815.821	19974
815.962	20103
816.103	19997
816.244	19860
816.385	19784
816.526	19715
816.666	19567
816.807	19468
816.948	19613
817.089	19552
817.23	19476
817.371	19476
817.512	19480
817.653	19483
817.793	19297
817.934	19457
818.075	19445
818.216	19411
818.356	19304
818.497	19259
818.638	19080
818.778	19148
818.919	19095
819.06	19099
819.2	19293
819.341	19335
819.481	19419
819.622	19419
819.762	19639
819.903	19567
820.043	19510
820.184	19362
820.324	19445
820.465	19499
820.605	19320
820.746	19388
820.886	19202
821.026	19373
821.167	19403
821.307	19278
821.447	19400
821.588	19244
821.728	19145
821.868	18909
822.008	18821
822.149	18844
822.289	18825
822.429	18597
822.569	18494
822.709	18494
822.849	18247
822.99	18194
823.13	18277
823.27	18251
823.41	18155
823.55	17927
823.69	18076
823.83	18224
823.97	18011
824.11	18041
824.25	17954
824.389	17882
824.529	17980
824.669	17908
824.809	17973
824.949	17996
825.089	17878
825.228	17870
825.368	17714
825.508	17687
825.648	17699
825.787	17714
825.927	17710
826.067	17596
826.206	17543
826.346	17611
826.485	17547
826.625	17649
826.765	17771
826.904	17600
827.044	17486
827.183	17406
827.323	17242
827.462	17444
827.601	17334
827.741	17334
827.88	17341
828.02	17299
828.159	17299
828.298	17345
828.437	17398
828.577	17200
828.716	17440
828.855	17254
828.994	17208
829.134	17105
829.273	17086
829.412	16942
829.551	17064
829.69	17045
829.829	17079
829.968	17159
830.107	17025
830.246	17121
830.385	17022
830.524	17018
830.663	16896
830.802	16839
830.941	16683
831.08	16698
831.219	16767
831.357	16915
831.496	16995
831.635	16767
831.774	16607
831.913	16592
832.051	16573
832.19	16382
832.329	16485
832.467	16344
832.606	16268
832.744	16417
832.883	16440
833.022	16322
833.16	16436
833.299	16470
833.437	16417
833.576	16493
833.714	16451
833.852	16504
833.991	16462
834.129	16474
834.267	16546
834.406	16523
834.544	16424
834.682	16481
834.821	16451
834.959	16675
835.097	16478
835.235	16535
835.373	16478
835.511	16580
835.65	16360
835.788	16318
835.926	16188
836.064	16154
836.202	16257
836.34	16443
836.478	16531
836.615	16402
836.753	16303
836.891	16424
837.029	16375
837.167	16390
837.305	16333
837.443	16310
837.58	16135
837.718	16306
837.856	16204
837.993	16223
838.131	16166
838.269	16055
838.406	16128
838.544	16109
838.681	15994
838.819	15941
838.956	15774
839.094	15762
839.231	15766
839.369	15994
839.506	16219
839.643	16040
839.781	15766
839.918	15739
840.055	15755
840.193	15774
840.33	15846
840.467	15789
840.604	15838
840.742	15983
840.879	15709
841.016	15698
841.153	15671
841.29	15880
841.427	15861
841.564	15789
841.701	15831
841.838	15774
841.975	15739
842.112	15720
842.249	15534
842.385	15542
842.522	15766
842.659	15701
842.796	15469
842.933	15633
843.069	15431
843.206	15534
843.343	15572
843.479	15595
843.616	15564
843.752	15348
843.889	15351
844.025	15454
844.162	15370
844.298	15401
844.435	15424
844.571	15252
844.708	15443
844.844	15477
844.98	15515
845.117	15576
845.253	15382
845.389	15252
845.525	15306
845.661	15272
845.798	15085
845.934	15260
846.07	15112
846.206	15233
846.342	15249
846.478	15157
846.614	14941
846.75	14849
846.886	14921
847.022	15047
847.158	14891
847.294	14948
847.429	14948
847.565	14895
847.701	15199
847.837	14598
847.972	14640
848.108	14735
848.244	14697
848.379	14503
848.515	14503
848.65	14431
848.786	14488
848.921	14545
849.057	14697
849.192	14575
849.328	14594
849.463	14545
849.598	14454
849.734	14438
849.869	14381
850.004	14214
850.14	14336
850.275	14317
850.41	14195
850.545	14309
850.68	14320
850.815	14301
850.95	14164
851.085	14556
851.22	14355
851.355	14275
851.49	14290
851.625	14176
851.76	14278
851.895	14134
852.03	14229
852.165	14229
852.299	14294
852.434	14408
852.569	14263
852.703	14328
852.838	14339
852.973	14514
853.107	14377
853.242	14263
853.376	14214
853.511	14111
853.645	14130
853.78	14332
853.914	14206
854.048	14123
854.183	14088
854.317	14180
854.451	14301
854.585	14145
854.72	14092
854.854	14168
854.988	14111
855.122	14157
855.256	14020
855.39	14111
855.524	14221
855.658	14218
855.792	14191
855.926	14157
856.06	14298
856.194	14214
856.327	14153
856.461	14134
856.595	14046
856.729	14073
856.862	14229
856.996	14191
857.13	14271
857.263	14347
857.397	14309
857.53	14164
857.664	14210
857.797	14271
857.931	14259
858.064	14138
858.197	14351
858.331	14195
858.464	14100
858.597	14107
858.731	14142
858.864	14164
858.997	14202
859.13	14199
859.263	14233
859.396	14168
859.529	14134
859.662	14142
859.795	14069
859.928	14157
860.061	14259
860.194	14298
860.327	14202
860.46	14168
860.592	14229
860.725	14309
860.858	14278
860.99	14100
861.123	14092
861.256	14065
861.388	14119
861.521	14979
861.653	14077
861.786	13986
861.918	13989
862.05	14111
862.183	14145
862.315	14111
862.447	14088
862.58	14027
862.712	13989
862.844	13913
862.976	14001
863.108	14001
863.24	14301
863.372	13898
863.504	13925
863.636	13913
863.768	14077
863.9	13909
864.032	13951
864.164	13970
864.296	13902
864.428	14043
864.559	13951
864.691	14058
864.823	14058
864.954	13959
865.086	13936
865.217	13917
865.349	13795
865.48	13921
865.612	14001
865.743	14119
865.875	13932
866.006	13928
866.137	13906
866.269	13974
866.4	13932
866.531	13822
866.662	13902
866.793	13894
866.924	13963
867.055	13947
867.186	13860
867.317	13833
867.448	13734
867.579	13913
867.71	13818
867.841	13871
867.972	13997
868.103	14008
868.233	13921
868.364	13936
868.495	13967
868.625	14161
868.756	14313
868.886	14016
869.017	14214
869.147	14298
869.278	14282
869.408	14278
869.539	14115
869.669	14282
869.799	14290
869.929	14278
870.06	14309
870.19	14488
870.32	14484
870.45	14564
870.58	14632
870.71	14750
870.84	14655
870.97	14594
871.1	14541
871.23	14739
871.36	14781
871.489	14651
871.619	14758
871.749	14735
871.879	14830
872.008	14864
872.138	14705
872.267	14807
872.397	14625
872.526	14571
872.656	14571
872.785	14575
872.915	14830
873.044	14872
873.173	14857
873.303	14845
873.432	14857
873.561	14914
873.69	14826
873.819	14880
873.948	14982
874.077	14921
874.206	14750
874.335	14788
874.464	15074
874.593	15184
874.722	15047
874.851	15176
874.979	15169
875.108	15226
875.237	15146
875.365	15043
875.494	15108
875.623	15157
875.751	15135
875.88	15146
876.008	15237
876.136	15397
876.265	15701
876.393	15732
876.521	15584
876.65	15606
876.778	15633
876.906	15481
877.034	15443
877.162	15591
877.29	15500
877.418	15568
877.546	15641
877.674	15599
877.802	15511
877.93	15500
878.058	15443
878.185	15496
878.313	15606
878.441	15511
878.568	15378
878.696	15515
878.824	15557
878.951	15656
879.079	15709
879.206	15842
879.333	15770
879.461	15606
879.588	15652
879.715	15717
879.842	15907
879.97	15694
880.097	15424
880.224	15401
880.351	15488
880.478	15431
880.605	15355
880.732	15302
880.859	15633
880.986	15447
881.112	15454
881.239	15249
881.366	15211
881.493	15028
881.619	15131
881.746	15138
881.872	15161
881.999	15055
882.125	15020
882.252	15077
882.378	15157
882.505	15211
882.631	15017
882.757	14918
882.883	14948
883.01	14872
883.136	14891
883.262	14815
883.388	14758
883.514	14967
883.64	14845
883.766	14868
883.892	14682
884.018	14724
884.143	14883
884.269	14971
884.395	14651
884.52	14587
884.646	14644
884.772	14541
884.897	14484
885.023	14594
885.148	14640
885.274	14758
885.399	14781
885.524	14655
885.65	14571
885.775	14636
885.9	14632
886.025	14727
886.15	14682
886.275	14488
886.4	14564
886.525	14644
886.65	14431
886.775	14518
886.9	14735
887.025	14845
887.149	14590
887.274	14381
887.399	14431
887.523	14347
887.648	14381
887.773	14244
887.897	14507
888.021	14442
888.146	14381
888.27	14518
888.395	14503
888.519	14511
888.643	14530
888.767	14465
888.891	14419
889.015	14218
889.139	14263
889.263	14351
889.387	14351
889.511	14450
889.635	14366
889.759	14240
889.883	14305
890.006	14240
890.13	14461
890.254	14240
890.377	14164
890.501	14069
890.624	14130
890.748	14103
890.871	14081
890.995	13875
891.118	13959
891.241	14024
891.364	13978
891.488	14065
891.611	13970
891.734	14027
891.857	14164
891.98	14054
892.103	14187
892.226	14050
892.349	14001
892.471	13803
892.594	13982
892.717	13993
892.839	14001
892.962	14012
893.085	14134
893.207	14031
893.33	13898
893.452	13856
893.575	14043
893.697	13894
893.819	14153
893.941	14248
894.064	14191
894.186	13936
894.308	13955
894.43	14115
894.552	14256
894.674	14088
894.796	14027
894.918	14077
895.04	14008
895.161	14088
895.283	14115
895.405	14058
895.526	14054
895.648	14092
895.769	14103
895.891	14126
896.012	14237
896.134	14202
896.255	14221
896.376	14096
896.498	14164
896.619	14290
896.74	14237
896.861	14210
896.982	14450
897.103	14648
897.224	14434
897.345	14377
897.466	14336
897.587	14503
897.708	14514
897.828	14545
897.949	14434
898.07	14313
898.19	14377
898.311	14568
898.431	14317
898.552	14537
898.672	14659
898.792	14663
898.913	14594
899.033	14590
899.153	14355
899.273	14317
899.393	14412
899.513	14400
899.633	14351
899.753	14385
899.873	14301
899.993	14404
900.113	14301
900.232	14400
900.352	14313
900.472	14218
900.591	14221
900.711	14240
900.83	14115
900.95	14389
901.069	14358
901.189	14161
901.308	14103
901.427	13902
901.546	13959
901.665	13944
901.784	13947
901.904	13818
902.023	13750
902.141	13548
902.26	13411
902.379	13502
902.498	13457
902.617	13316
902.735	13491
902.854	13491
902.973	13571
903.091	13308
903.21	13183
903.328	13190
903.446	13133
903.565	13069
903.683	13038
903.801	13008
903.919	13072
904.038	13107
904.156	12856
904.274	13004
904.392	12913
904.51	12806
904.627	12882
904.745	12973
904.863	12894
904.981	12627
905.098	12559
905.216	12620
905.334	12566
905.451	12593
905.569	12604
905.686	12544
905.803	12563
905.921	12388
906.038	12426
906.155	12315
906.272	12262
906.389	12308
906.506	12114
906.623	12152
906.74	12186
906.857	12110
906.974	12102
907.091	12228
907.208	12251
907.324	12228
907.441	12175
907.557	11969
907.674	11863
907.79	11863
907.907	11882
908.023	11999
908.139	11863
908.256	11901
908.372	11859
908.488	11794
908.604	11703
908.72	11688
908.836	11688
908.952	11695
909.068	11676
909.184	11874
909.3	11649
909.415	11638
909.531	11619
909.647	11554
909.762	11482
909.878	11410
909.993	11570
910.108	11376
910.224	11444
910.339	11459
910.454	11376
910.57	11269
910.685	11311
910.8	11440
910.915	11497
911.03	11284
911.145	11067
911.259	11189
911.374	11143
911.489	11071
911.604	11060
911.718	10881
911.833	10965
911.947	10862
912.062	10733
912.176	10828
912.291	10923
912.405	10847
912.519	11159
912.633	11140
912.748	10961
912.862	10885
912.976	10877
913.09	10634
913.204	10736
913.318	10763
913.431	10919
913.545	10805
913.659	10900
913.772	10805
913.886	10679
914	10645
914.113	10778
914.226	10748
914.34	10778
914.453	10504
914.566	10740
914.68	10577
914.793	10641
914.906	10462
915.019	10344
915.132	10322
915.245	10447
915.358	10455
915.47	10363
915.583	10443
915.696	10478
915.809	10550
915.921	10538
916.034	10295
916.146	10417
916.259	10356
916.371	10497
916.483	10504
916.595	10265
916.708	10375
916.82	10329
916.932	10333
917.044	10299
917.156	10227
917.268	10227
917.38	10265
917.491	10177
917.603	10265
917.715	10322
917.826	10322
917.938	10207
918.049	10093
918.161	10219
918.272	10390
918.384	10379
918.495	10360
918.606	10078
918.717	10055
918.828	10135
918.939	10147
919.05	10048
919.161	10074
919.272	9915
919.383	9979
919.494	10120
919.604	10363
919.715	10177
919.826	10131
919.936	10063
920.047	10227
920.157	10101
920.267	10303
920.378	10112
920.488	10109
920.598	10398
920.708	10432
920.818	10310
920.928	10379
921.038	10512
921.148	10424
921.258	10185
921.368	10078
921.477	9983
921.587	9960
921.697	9884
921.806	10029
921.916	9941
922.025	9740
922.134	9713
922.244	9770
922.353	9774
922.462	9584
922.571	9545
922.68	9306
922.789	9401
922.898	9431
923.007	9283
923.116	9450
923.224	9325
923.333	9405
923.442	9272
923.55	9249
923.659	9310
923.767	9329
923.876	9195
923.984	9363
924.092	9157
924.201	9203
924.309	9268
924.417	9283
924.525	9195
924.633	9230
924.741	10173
924.849	9020
924.956	9135
925.064	9047
925.172	8956
925.279	9032
925.387	9074
925.494	9039
925.602	9192
925.709	9104
925.816	8971
925.924	9043
926.031	9142
926.138	9062
926.245	9142
926.352	8979
926.459	9173
926.566	9097
926.673	9039
926.779	8944
926.886	8902
926.993	8823
927.099	8766
927.206	8731
927.312	8724
927.419	8823
927.525	8731
927.631	8838
927.737	8701
927.843	8667
927.95	8583
928.056	8651
928.162	8678
928.267	8708
928.373	9241
928.479	8807
928.585	8621
928.69	8697
928.796	8735
928.901	8648
929.007	8514
929.112	8629
929.218	8579
929.323	8583
929.428	8499
929.533	8663
929.638	8450
929.743	8484
929.848	8568
929.953	8518
930.058	8461
930.163	8279
930.267	8298
930.372	8438
930.477	8244
930.581	8511
930.685	8343
930.79	8214
930.894	8157
930.998	8233
931.103	8320
931.207	8008
931.311	7967
931.415	7902
931.519	7693
931.623	7685
