Data from test_V78500241_3550.txt Node
Date: Fri Mar 25 14:58:26 CST 2022
User: usil
Spectrometer: V785-0024
Trigger mode: 0
Integration Time (sec): 4.000000E-1
Scans to average: 1
Nonlinearity correction enabled: false
Boxcar width: 0
Storing dark spectrum: false
XAxis mode: Wavelengths
Number of Pixels in Spectrum: 1024
>>>>>Begin Spectral Data<<<<<
801.071	21903
801.214	21873
801.356	21644
801.499	21443
801.641	21336
801.783	21218
801.926	21351
802.068	21264
802.211	21230
802.353	21081
802.496	20937
802.638	20750
802.78	20705
802.923	20777
803.065	20545
803.208	20476
803.35	20606
803.492	20727
803.635	20796
803.777	20636
803.919	20697
804.061	20944
804.204	20632
804.346	20476
804.488	20495
804.63	20686
804.773	20427
804.915	20564
805.057	20632
805.199	20568
805.341	20670
805.483	20564
805.626	20663
805.768	20533
805.91	20541
806.052	20568
806.194	20446
806.336	20648
806.478	20613
806.62	20480
806.762	20549
806.904	20640
807.046	20956
807.188	20792
807.33	20777
807.472	20902
807.614	20724
807.756	20705
807.898	20552
808.04	20670
808.182	20594
808.324	20640
808.465	20750
808.607	20743
808.749	20952
808.891	20906
809.033	21131
809.174	20967
809.316	20823
809.458	20929
809.6	20804
809.741	20914
809.883	20899
810.025	21085
810.166	21123
810.308	20979
810.45	20937
810.591	20895
810.733	20727
810.875	20743
811.016	20503
811.158	20533
811.299	20762
811.441	20739
811.582	20849
811.724	20587
811.865	20575
812.007	20640
812.148	20556
812.29	20712
812.431	20735
812.573	21009
812.714	20960
812.855	21131
812.997	21195
813.138	21389
813.279	21195
813.421	21108
813.562	21089
813.703	20849
813.845	20834
813.986	20598
814.127	20275
814.268	20282
814.41	20278
814.551	20168
814.692	20256
814.833	20199
814.974	20229
815.115	20100
815.256	20027
815.397	19986
815.539	20050
815.68	19997
815.821	19822
815.962	19837
816.103	19822
816.244	19765
816.385	19757
816.526	19639
816.666	19499
816.807	19293
816.948	19434
817.089	19495
817.23	19426
817.371	19377
817.512	19343
817.653	19228
817.793	19301
817.934	19464
818.075	19331
818.216	19187
818.356	19282
818.497	19133
818.638	18913
818.778	19000
818.919	18932
819.06	19076
819.2	19141
819.341	19152
819.481	19232
819.622	19388
819.762	19472
819.903	19487
820.043	19407
820.184	19244
820.324	19255
820.465	19453
820.605	19217
820.746	19335
820.886	19152
821.026	19228
821.167	19259
821.307	19244
821.447	19141
821.588	19164
821.728	18909
821.868	18795
822.008	18730
822.149	18688
822.289	18623
822.429	18384
822.569	18433
822.709	18441
822.849	18201
822.99	18190
823.13	18167
823.27	18159
823.41	18045
823.55	18011
823.69	18072
823.83	18068
823.97	17920
824.11	17843
824.25	17718
824.389	17752
824.529	17916
824.669	17733
824.809	17882
824.949	17790
825.089	17821
825.228	17775
825.368	17638
825.508	17520
825.648	17722
825.787	17573
825.927	17600
826.067	17543
826.206	17474
826.346	17524
826.485	17532
826.625	17482
826.765	17710
826.904	17600
827.044	17322
827.183	17254
827.323	17212
827.462	17239
827.601	17216
827.741	17246
827.88	17288
828.02	17174
828.159	17208
828.298	17254
828.437	17296
828.577	17105
828.716	17265
828.855	17143
828.994	16972
829.134	17064
829.273	17060
829.412	16930
829.551	16873
829.69	17014
829.829	16976
829.968	17025
830.107	17048
830.246	17052
830.385	16968
830.524	16927
830.663	16828
830.802	16869
830.941	16599
831.08	16603
831.219	16683
831.357	16679
831.496	16767
831.635	16675
831.774	16535
831.913	16478
832.051	16443
832.19	16413
832.329	16436
832.467	16348
832.606	16344
832.744	16268
832.883	16200
833.022	16379
833.16	16341
833.299	16386
833.437	16466
833.576	16341
833.714	16409
833.852	16344
833.991	16375
834.129	16394
834.267	16352
834.406	16413
834.544	16386
834.682	16409
834.821	16402
834.959	16561
835.097	16348
835.235	16493
835.373	16470
835.511	16325
835.65	16356
835.788	16299
835.926	16063
836.064	16131
836.202	16147
836.34	16253
836.478	16405
836.615	16284
836.753	16287
836.891	16436
837.029	16402
837.167	16424
837.305	16287
837.443	16162
837.58	16166
837.718	16280
837.856	16226
837.993	16238
838.131	16162
838.269	16112
838.406	16101
838.544	16082
838.681	15888
838.819	15838
838.956	15724
839.094	15766
839.231	15800
839.369	15880
839.506	16124
839.643	15922
839.781	15770
839.918	15675
840.055	15838
840.193	15743
840.33	15656
840.467	15823
840.604	15850
840.742	15968
840.879	15625
841.016	15644
841.153	15622
841.29	15800
841.427	15751
841.564	15812
841.701	15717
841.838	15671
841.975	15743
842.112	15663
842.249	15618
842.385	15485
842.522	15778
842.659	15511
842.796	15519
842.933	15507
843.069	15542
843.206	15450
843.343	15534
843.479	15564
843.616	15606
843.752	15306
843.889	15348
844.025	15526
844.162	15241
844.298	15473
844.435	15351
844.571	15298
844.708	15367
844.844	15458
844.98	15382
845.117	15420
845.253	15241
845.389	15226
845.525	15306
845.661	15283
845.798	15085
845.934	15146
846.07	15089
846.206	15108
846.342	15298
846.478	15195
846.614	14902
846.75	14971
846.886	14834
847.022	14975
847.158	14937
847.294	14842
847.429	14956
847.565	14849
847.701	15100
847.837	14610
847.972	14507
848.108	14693
848.244	14659
848.379	14533
848.515	14492
848.65	14446
848.786	14400
848.921	14636
849.057	14480
849.192	14545
849.328	14537
849.463	14434
849.598	14518
849.734	14381
849.869	14438
850.004	14237
850.14	14332
850.275	14252
850.41	14309
850.545	14301
850.68	14225
850.815	14313
850.95	14301
851.085	14552
851.22	14423
851.355	14320
851.49	14233
851.625	14145
851.76	14278
851.895	14161
852.03	14164
852.165	14313
852.299	14355
852.434	14324
852.569	14298
852.703	14324
852.838	14393
852.973	14434
853.107	14408
853.242	14240
853.376	14111
853.511	14077
853.645	14084
853.78	14233
853.914	14142
854.048	14050
854.183	14088
854.317	14187
854.451	14278
854.585	14172
854.72	14115
854.854	14324
854.988	14084
855.122	14111
855.256	14008
855.39	14206
855.524	14240
855.658	14119
855.792	14103
855.926	14202
856.06	14229
856.194	14267
856.327	14214
856.461	14123
856.595	14046
856.729	14142
856.862	14157
856.996	14244
857.13	14275
857.263	14275
857.397	14286
857.53	14126
857.664	14248
857.797	14187
857.931	14317
858.064	14214
858.197	14252
858.331	14130
858.464	14123
858.597	14096
858.731	14161
858.864	14130
858.997	14199
859.13	14164
859.263	14164
859.396	14202
859.529	14107
859.662	14123
859.795	14077
859.928	14237
860.061	14328
860.194	14385
860.327	14263
860.46	14176
860.592	14199
860.725	14214
860.858	14275
860.99	14221
861.123	14027
861.256	13974
861.388	14111
861.521	14944
861.653	14088
861.786	13947
861.918	13989
862.05	14046
862.183	14153
862.315	14157
862.447	14187
862.58	14161
862.712	13887
862.844	13913
862.976	14016
863.108	13955
863.24	14343
863.372	13928
863.504	13921
863.636	13845
863.768	13932
863.9	13970
864.032	13890
864.164	13887
864.296	14001
864.428	14031
864.559	14100
864.691	13993
864.823	14031
864.954	13955
865.086	14031
865.217	13883
865.349	13883
865.48	13875
865.612	14039
865.743	14008
865.875	13944
866.006	13947
866.137	13925
866.269	13955
866.4	13913
866.531	13852
866.662	13765
866.793	13909
866.924	13974
867.055	13967
867.186	13883
867.317	13845
867.448	13845
867.579	13868
867.71	13917
867.841	13868
867.972	13875
868.103	13913
868.233	13883
868.364	13906
868.495	13928
868.625	14176
868.756	14317
868.886	14176
869.017	14221
869.147	14286
869.278	14248
869.408	14176
869.539	14084
869.669	14282
869.799	14149
869.929	14252
870.06	14343
870.19	14526
870.32	14419
870.45	14621
870.58	14583
870.71	14785
870.84	14640
870.97	14556
871.1	14518
871.23	14678
871.36	14769
871.489	14625
871.619	14849
871.749	14762
871.879	14720
872.008	14910
872.138	14815
872.267	14716
872.397	14663
872.526	14610
872.656	14629
872.785	14667
872.915	14868
873.044	14880
873.173	14921
873.303	14861
873.432	14815
873.561	14853
873.69	14792
873.819	14830
873.948	14933
874.077	14853
874.206	14769
874.335	14834
874.464	15005
874.593	15127
874.722	15135
874.851	15116
874.979	15089
875.108	15195
875.237	15192
875.365	15104
875.494	15116
875.623	15291
875.751	15104
875.88	15173
876.008	15203
876.136	15336
876.265	15618
876.393	15660
876.521	15545
876.65	15675
876.778	15599
876.906	15652
877.034	15477
877.162	15648
877.29	15504
877.418	15576
877.546	15504
877.674	15629
877.802	15557
877.93	15603
878.058	15370
878.185	15428
878.313	15591
878.441	15622
878.568	15557
878.696	15614
878.824	15553
878.951	15675
879.079	15800
879.206	15876
879.333	15785
879.461	15462
879.588	15736
879.715	15778
879.842	15892
879.97	15625
880.097	15488
880.224	15348
880.351	15481
880.478	15424
880.605	15397
880.732	15397
880.859	15660
880.986	15439
881.112	15424
881.239	15306
881.366	15214
881.493	15116
881.619	15055
881.746	15093
881.872	15116
881.999	15032
882.125	14967
882.252	15169
882.378	15028
882.505	15211
882.631	15062
882.757	14982
882.883	14948
883.01	14902
883.136	14777
883.262	14743
883.388	14663
883.514	14861
883.64	14944
883.766	14800
883.892	14750
884.018	14853
884.143	14785
884.269	14967
884.395	14640
884.52	14575
884.646	14636
884.772	14503
884.897	14450
885.023	14526
885.148	14705
885.274	14674
885.399	14663
885.524	14613
885.65	14533
885.775	14667
885.9	14575
886.025	14743
886.15	14651
886.275	14610
886.4	14587
886.525	14514
886.65	14499
886.775	14446
886.9	14712
887.025	14670
887.149	14610
887.274	14404
887.399	14438
887.523	14461
887.648	14301
887.773	14396
887.897	14476
888.021	14495
888.146	14339
888.27	14594
888.395	14564
888.519	14469
888.643	14454
888.767	14480
888.891	14339
889.015	14244
889.139	14374
889.263	14275
889.387	14400
889.511	14514
889.635	14396
889.759	14237
889.883	14301
890.006	14218
890.13	14492
890.254	14202
890.377	14298
890.501	14119
890.624	14123
890.748	14180
890.871	13997
890.995	13887
891.118	13909
891.241	13959
891.364	14096
891.488	14103
891.611	13909
891.734	14039
891.857	14012
891.98	13993
892.103	14008
892.226	14161
892.349	13864
892.471	13841
892.594	13936
892.717	14001
892.839	13925
892.962	13993
893.085	14024
893.207	14001
893.33	13921
893.452	13925
893.575	14138
893.697	14035
893.819	14183
893.941	14168
894.064	14161
894.186	13989
894.308	13970
894.43	14149
894.552	14157
894.674	14126
894.796	13993
894.918	14100
895.04	14073
895.161	14183
895.283	14275
895.405	14062
895.526	14153
895.648	14210
895.769	14111
895.891	14092
896.012	14237
896.134	14214
896.255	14168
896.376	14073
896.498	14115
896.619	14225
896.74	14202
896.861	14240
896.982	14442
897.103	14575
897.224	14507
897.345	14377
897.466	14419
897.587	14366
897.708	14575
897.828	14431
897.949	14389
898.07	14324
898.19	14469
898.311	14617
898.431	14465
898.552	14526
898.672	14636
898.792	14655
898.913	14606
899.033	14377
899.153	14438
899.273	14358
899.393	14450
899.513	14396
899.633	14442
899.753	14358
899.873	14374
899.993	14419
900.113	14385
900.232	14385
900.352	14339
900.472	14290
900.591	14176
900.711	14214
900.83	14115
900.95	14366
901.069	14423
901.189	14145
901.308	13879
901.427	13818
901.546	13963
901.665	13955
901.784	13944
901.904	13742
902.023	13731
902.141	13563
902.26	13480
902.379	13571
902.498	13426
902.617	13434
902.735	13582
902.854	13430
902.973	13350
903.091	13240
903.21	13244
903.328	13179
903.446	13091
903.565	13008
903.683	13023
903.801	12989
903.919	13012
904.038	12970
904.156	12928
904.274	12913
904.392	12886
904.51	12837
904.627	12890
904.745	12920
904.863	12951
904.981	12642
905.098	12532
905.216	12597
905.334	12559
905.451	12536
905.569	12437
905.686	12589
905.803	12616
905.921	12353
906.038	12574
906.155	12395
906.272	12353
906.389	12357
906.506	12201
906.623	12064
906.74	12148
906.857	11999
906.974	12117
907.091	12182
907.208	12304
907.324	12182
907.441	12155
907.557	11969
907.674	11977
907.79	11863
907.907	11843
908.023	11920
908.139	11798
908.256	11851
908.372	11828
908.488	11874
908.604	11779
908.72	11649
908.836	11729
908.952	11703
909.068	11691
909.184	11783
909.3	11623
909.415	11691
909.531	11707
909.647	11516
909.762	11410
909.878	11360
909.993	11493
910.108	11433
910.224	11379
910.339	11436
910.454	11296
910.57	11277
910.685	11223
910.8	11505
910.915	11459
911.03	11330
911.145	11132
911.259	11128
911.374	11090
911.489	11075
911.604	11003
911.718	10923
911.833	10831
911.947	10793
912.062	10725
912.176	10911
912.291	10869
912.405	10927
912.519	11022
912.633	11086
912.748	10961
912.862	10911
912.976	10824
913.09	10717
913.204	10679
913.318	10782
913.431	10850
913.545	10816
913.659	10930
913.772	10866
913.886	10729
914	10645
914.113	10774
914.226	10774
914.34	10702
914.453	10558
914.566	10683
914.68	10519
914.793	10577
914.906	10367
915.019	10272
915.132	10337
915.245	10344
915.358	10371
915.47	10447
915.583	10363
915.696	10470
915.809	10512
915.921	10592
916.034	10417
916.146	10303
916.259	10322
916.371	10413
916.483	10382
916.595	10261
916.708	10402
916.82	10386
916.932	10272
917.044	10352
917.156	10314
917.268	10230
917.38	10287
917.491	10185
917.603	10287
917.715	10310
917.826	10295
917.938	10215
918.049	10135
918.161	10295
918.272	10348
918.384	10363
918.495	10333
918.606	10154
918.717	10059
918.828	10177
918.939	10105
919.05	9994
919.161	10078
919.272	9869
919.383	10048
919.494	10253
919.604	10371
919.715	10082
919.826	10063
919.936	10071
920.047	10158
920.157	10223
920.267	10299
920.378	10150
920.488	10112
920.598	10318
920.708	10424
920.818	10371
920.928	10299
921.038	10481
921.148	10398
921.258	10166
921.368	10074
921.477	9960
921.587	9964
921.697	9861
921.806	10013
921.916	9911
922.025	9736
922.134	9671
922.244	9675
922.353	9743
922.462	9667
922.571	9549
922.68	9412
922.789	9355
922.898	9466
923.007	9321
923.116	9424
923.224	9405
923.333	9359
923.442	9321
923.55	9245
923.659	9294
923.767	9424
923.876	9310
923.984	9393
924.092	9157
924.201	9287
924.309	9283
924.417	9283
924.525	9195
924.633	9245
924.741	9953
924.849	8956
924.956	9195
925.064	9058
925.172	8952
925.279	8956
925.387	9100
925.494	9112
925.602	9211
925.709	9131
925.816	8960
925.924	9047
926.031	9112
926.138	9119
926.245	9077
926.352	8986
926.459	9066
926.566	9123
926.673	9005
926.779	8933
926.886	8906
926.993	8785
927.099	8727
927.206	8712
927.312	8678
927.419	8811
927.525	8758
927.631	8868
927.737	8712
927.843	8663
927.95	8541
928.056	8743
928.162	8644
928.267	8708
928.373	9382
928.479	8800
928.585	8556
928.69	8705
928.796	8682
928.901	8571
929.007	8389
929.112	8651
929.218	8583
929.323	8484
929.428	8454
929.533	8587
929.638	8488
929.743	8518
929.848	8514
929.953	8518
930.058	8343
930.163	8210
930.267	8225
930.372	8385
930.477	8183
930.581	8446
930.685	8332
930.79	8252
930.894	8229
930.998	8210
931.103	8355
931.207	7993
931.311	7951
931.415	7852
931.519	7704
931.623	7704
