Data from test_V78500241_3248.txt Node
Date: Fri Mar 25 14:56:19 CST 2022
User: usil
Spectrometer: V785-0024
Trigger mode: 0
Integration Time (sec): 4.000000E-1
Scans to average: 1
Nonlinearity correction enabled: false
Boxcar width: 0
Storing dark spectrum: false
XAxis mode: Wavelengths
Number of Pixels in Spectrum: 1024
>>>>>Begin Spectral Data<<<<<
801.071	22040
801.214	21899
801.356	21743
801.499	21561
801.641	21454
801.783	21405
801.926	21447
802.068	21260
802.211	21325
802.353	21123
802.496	20948
802.638	20937
802.78	20883
802.923	20807
803.065	20781
803.208	20689
803.35	20731
803.492	20838
803.635	20880
803.777	20777
803.919	20800
804.061	21074
804.204	20670
804.346	20598
804.488	20606
804.63	20739
804.773	20587
804.915	20648
805.057	20602
805.199	20564
805.341	20663
805.483	20765
805.626	20648
805.768	20575
805.91	20518
806.052	20583
806.194	20632
806.336	20739
806.478	20514
806.62	20602
806.762	20594
806.904	20845
807.046	20990
807.188	20914
807.33	20944
807.472	21017
807.614	20792
807.756	20864
807.898	20765
808.04	20750
808.182	20727
808.324	20667
808.465	20705
808.607	20906
808.749	21013
808.891	21028
809.033	21081
809.174	20952
809.316	20902
809.458	20902
809.6	20937
809.741	20967
809.883	21062
810.025	21161
810.166	21081
810.308	20998
810.45	21047
810.591	20963
810.733	20743
810.875	20716
811.016	20625
811.158	20613
811.299	20807
811.441	20849
811.582	20777
811.724	20750
811.865	20743
812.007	20708
812.148	20724
812.29	20743
812.431	20948
812.573	21058
812.714	21020
812.855	21268
812.997	21332
813.138	21408
813.279	21450
813.421	21249
813.562	21138
813.703	20994
813.845	20830
813.986	20560
814.127	20404
814.268	20465
814.41	20320
814.551	20259
814.692	20157
814.833	20183
814.974	20202
815.115	20214
815.256	20142
815.397	20157
815.539	20134
815.68	20069
815.821	19906
815.962	19993
816.103	19993
816.244	19940
816.385	19693
816.526	19814
816.666	19544
816.807	19415
816.948	19464
817.089	19472
817.23	19472
817.371	19400
817.512	19400
817.653	19460
817.793	19270
817.934	19251
818.075	19331
818.216	19324
818.356	19335
818.497	19110
818.638	19042
818.778	19213
818.919	19069
819.06	19114
819.2	19202
819.341	19285
819.481	19373
819.622	19464
819.762	19639
819.903	19552
820.043	19510
820.184	19289
820.324	19388
820.465	19441
820.605	19407
820.746	19381
820.886	19289
821.026	19415
821.167	19464
821.307	19434
821.447	19274
821.588	19255
821.728	19004
821.868	18909
822.008	18783
822.149	18833
822.289	18738
822.429	18540
822.569	18448
822.709	18418
822.849	18346
822.99	18319
823.13	18247
823.27	18209
823.41	18095
823.55	18038
823.69	18174
823.83	18041
823.97	18022
824.11	17866
824.25	17942
824.389	17893
824.529	17916
824.669	17855
824.809	17920
824.949	18011
825.089	17927
825.228	17843
825.368	17783
825.508	17665
825.648	17718
825.787	17710
825.927	17646
826.067	17627
826.206	17615
826.346	17642
826.485	17809
826.625	17661
826.765	17824
826.904	17672
827.044	17467
827.183	17402
827.323	17265
827.462	17387
827.601	17391
827.741	17341
827.88	17337
828.02	17216
828.159	17204
828.298	17383
828.437	17349
828.577	17296
828.716	17452
828.855	17277
828.994	17090
829.134	17151
829.273	17098
829.412	16968
829.551	16991
829.69	17105
829.829	17060
829.968	17231
830.107	17124
830.246	17083
830.385	17018
830.524	17010
830.663	16896
830.802	16911
830.941	16637
831.08	16622
831.219	16847
831.357	16782
831.496	17006
831.635	16679
831.774	16607
831.913	16554
832.051	16508
832.19	16519
832.329	16527
832.467	16390
832.606	16356
832.744	16382
832.883	16261
833.022	16402
833.16	16497
833.299	16417
833.437	16413
833.576	16512
833.714	16542
833.852	16451
833.991	16489
834.129	16577
834.267	16485
834.406	16436
834.544	16382
834.682	16398
834.821	16485
834.959	16504
835.097	16417
835.235	16607
835.373	16504
835.511	16519
835.65	16371
835.788	16371
835.926	16280
836.064	16131
836.202	16223
836.34	16485
836.478	16470
836.615	16314
836.753	16360
836.891	16493
837.029	16333
837.167	16299
837.305	16329
837.443	16268
837.58	16055
837.718	16352
837.856	16246
837.993	16169
838.131	16219
838.269	16204
838.406	16074
838.544	16147
838.681	15998
838.819	15911
838.956	15808
839.094	15778
839.231	15800
839.369	15899
839.506	16169
839.643	16029
839.781	15766
839.918	15701
840.055	15827
840.193	15739
840.33	15789
840.467	15816
840.604	15819
840.742	16021
840.879	15625
841.016	15641
841.153	15622
841.29	15816
841.427	15755
841.564	15797
841.701	15865
841.838	15713
841.975	15644
842.112	15781
842.249	15507
842.385	15625
842.522	15732
842.659	15682
842.796	15523
842.933	15576
843.069	15656
843.206	15545
843.343	15629
843.479	15705
843.616	15545
843.752	15370
843.889	15340
844.025	15462
844.162	15310
844.298	15553
844.435	15351
844.571	15302
844.708	15439
844.844	15523
844.98	15545
845.117	15443
845.253	15302
845.389	15287
845.525	15268
845.661	15272
845.798	15112
845.934	15241
846.07	15157
846.206	15112
846.342	15283
846.478	15150
846.614	14990
846.75	14902
846.886	14861
847.022	14963
847.158	14990
847.294	14998
847.429	14941
847.565	14967
847.701	15195
847.837	14682
847.972	14625
848.108	14765
848.244	14758
848.379	14621
848.515	14442
848.65	14537
848.786	14469
848.921	14450
849.057	14602
849.192	14629
849.328	14480
849.463	14465
849.598	14533
849.734	14457
849.869	14393
850.004	14385
850.14	14381
850.275	14290
850.41	14149
850.545	14237
850.68	14256
850.815	14336
850.95	14301
851.085	14404
851.22	14461
851.355	14320
851.49	14309
851.625	14328
851.76	14191
851.895	14180
852.03	14183
852.165	14263
852.299	14351
852.434	14408
852.569	14366
852.703	14374
852.838	14366
852.973	14480
853.107	14358
853.242	14286
853.376	14149
853.511	13978
853.645	14107
853.78	14199
853.914	14096
854.048	14107
854.183	14069
854.317	14126
854.451	14358
854.585	14149
854.72	14115
854.854	14199
854.988	14161
855.122	14100
855.256	14077
855.39	14081
855.524	14237
855.658	14195
855.792	14252
855.926	14237
856.06	14218
856.194	14214
856.327	14130
856.461	14073
856.595	14096
856.729	14149
856.862	14229
856.996	14214
857.13	14157
857.263	14298
857.397	14199
857.53	14157
857.664	14233
857.797	14259
857.931	14191
858.064	14263
858.197	14187
858.331	14214
858.464	14073
858.597	14065
858.731	14092
858.864	14176
858.997	14130
859.13	14187
859.263	14225
859.396	14176
859.529	14187
859.662	14187
859.795	14088
859.928	14199
860.061	14347
860.194	14355
860.327	14240
860.46	14115
860.592	14336
860.725	14305
860.858	14252
860.99	14145
861.123	14084
861.256	14103
861.388	14183
861.521	15024
861.653	14001
861.786	13974
861.918	14081
862.05	14039
862.183	14130
862.315	14062
862.447	14142
862.58	14123
862.712	14069
862.844	13928
862.976	13970
863.108	13944
863.24	14351
863.372	13841
863.504	13997
863.636	13936
863.768	14027
863.9	13940
864.032	13890
864.164	13887
864.296	14024
864.428	14088
864.559	14077
864.691	14024
864.823	14054
864.954	13951
865.086	13917
865.217	13993
865.349	13860
865.48	13868
865.612	13845
865.743	14092
865.875	13917
866.006	14031
866.137	13978
866.269	13921
866.4	13864
866.531	13993
866.662	13830
866.793	13856
866.924	13841
867.055	13970
867.186	13944
867.317	13883
867.448	13883
867.579	13890
867.71	13780
867.841	13826
867.972	13909
868.103	13906
868.233	13917
868.364	13940
868.495	13989
868.625	14172
868.756	14286
868.886	14092
869.017	14187
869.147	14328
869.278	14309
869.408	14123
869.539	14271
869.669	14153
869.799	14183
869.929	14343
870.06	14328
870.19	14438
870.32	14393
870.45	14461
870.58	14556
870.71	14651
870.84	14674
870.97	14568
871.1	14667
871.23	14678
871.36	14754
871.489	14667
871.619	14750
871.749	14743
871.879	14796
872.008	14868
872.138	14807
872.267	14735
872.397	14602
872.526	14610
872.656	14594
872.785	14655
872.915	14819
873.044	14906
873.173	14853
873.303	14857
873.432	14952
873.561	14902
873.69	14845
873.819	14826
873.948	14899
874.077	14906
874.206	14765
874.335	14842
874.464	14998
874.593	15081
874.722	15123
874.851	15195
874.979	14982
875.108	15165
875.237	15085
875.365	15062
875.494	15097
875.623	15184
875.751	15070
875.88	15176
876.008	15222
876.136	15336
876.265	15587
876.393	15789
876.521	15686
876.65	15618
876.778	15572
876.906	15481
877.034	15428
877.162	15538
877.29	15530
877.418	15488
877.546	15584
877.674	15603
877.802	15500
877.93	15652
878.058	15633
878.185	15374
878.313	15595
878.441	15538
878.568	15389
878.696	15572
878.824	15545
878.951	15644
879.079	15709
879.206	15899
879.333	15778
879.461	15774
879.588	15618
879.715	15698
879.842	15876
879.97	15641
880.097	15367
880.224	15389
880.351	15466
880.478	15378
880.605	15408
880.732	15367
880.859	15720
880.986	15431
881.112	15473
881.239	15317
881.366	15207
881.493	14990
881.619	15036
881.746	15131
881.872	15020
881.999	15047
882.125	15024
882.252	15074
882.378	15119
882.505	15272
882.631	15131
882.757	14815
882.883	14994
883.01	14941
883.136	14842
883.262	14769
883.388	14819
883.514	14937
883.64	14891
883.766	14758
883.892	14819
884.018	14777
884.143	14975
884.269	14872
884.395	14602
884.52	14530
884.646	14651
884.772	14522
884.897	14571
885.023	14610
885.148	14861
885.274	14746
885.399	14712
885.524	14644
885.65	14522
885.775	14606
885.9	14613
886.025	14769
886.15	14659
886.275	14613
886.4	14511
886.525	14590
886.65	14549
886.775	14533
886.9	14678
887.025	14804
887.149	14625
887.274	14530
887.399	14408
887.523	14419
887.648	14347
887.773	14347
887.897	14434
888.021	14499
888.146	14366
888.27	14492
888.395	14511
888.519	14507
888.643	14568
888.767	14545
888.891	14404
889.015	14267
889.139	14305
889.263	14221
889.387	14404
889.511	14583
889.635	14355
889.759	14267
889.883	14301
890.006	14259
890.13	14434
890.254	14343
890.377	14309
890.501	14123
890.624	14103
890.748	14180
890.871	13997
890.995	13928
891.118	13883
891.241	14081
891.364	13974
891.488	14046
891.611	13959
891.734	13940
891.857	14062
891.98	14073
892.103	14062
892.226	13944
892.349	13974
892.471	13845
892.594	13944
892.717	14081
892.839	13928
892.962	14012
893.085	14096
893.207	13947
893.33	13837
893.452	13921
893.575	14043
893.697	13982
893.819	14225
893.941	14229
894.064	14252
894.186	13967
894.308	13936
894.43	14210
894.552	14172
894.674	14126
894.796	13947
894.918	14103
895.04	14035
895.161	14145
895.283	14187
895.405	14016
895.526	14043
895.648	14161
895.769	14103
895.891	14210
896.012	14305
896.134	14183
896.255	14111
896.376	14103
896.498	14237
896.619	14290
896.74	14149
896.861	14187
896.982	14412
897.103	14594
897.224	14484
897.345	14446
897.466	14377
897.587	14393
897.708	14560
897.828	14568
897.949	14423
898.07	14286
898.19	14438
898.311	14507
898.431	14454
898.552	14518
898.672	14541
898.792	14644
898.913	14602
899.033	14541
899.153	14339
899.273	14324
899.393	14396
899.513	14454
899.633	14457
899.753	14499
899.873	14294
899.993	14526
900.113	14336
900.232	14473
900.352	14324
900.472	14309
900.591	14199
900.711	14309
900.83	14183
900.95	14301
901.069	14343
901.189	14240
901.308	14039
901.427	13932
901.546	13967
901.665	13932
901.784	13982
901.904	13849
902.023	13712
902.141	13662
902.26	13460
902.379	13533
902.498	13540
902.617	13339
902.735	13537
902.854	13537
902.973	13373
903.091	13088
903.21	13251
903.328	13228
903.446	13175
903.565	13061
903.683	12973
903.801	12947
903.919	13008
904.038	13061
904.156	12954
904.274	12947
904.392	12875
904.51	12867
904.627	12909
904.745	12947
904.863	13004
904.981	12616
905.098	12627
905.216	12536
905.334	12604
905.451	12551
905.569	12597
905.686	12627
905.803	12620
905.921	12441
906.038	12452
906.155	12395
906.272	12334
906.389	12407
906.506	12194
906.623	12201
906.74	12121
906.857	12213
906.974	12102
907.091	12266
907.208	12395
907.324	12262
907.441	12098
907.557	11885
907.674	11885
907.79	11859
907.907	11870
908.023	11999
908.139	12007
908.256	11843
908.372	11859
908.488	11817
908.604	11733
908.72	11748
908.836	11794
908.952	11543
909.068	11714
909.184	11741
909.3	11695
909.415	11726
909.531	11649
909.647	11463
909.762	11474
909.878	11406
909.993	11444
910.108	11433
910.224	11379
910.339	11410
910.454	11258
910.57	11208
910.685	11280
910.8	11528
910.915	11448
911.03	11330
911.145	11193
911.259	11067
911.374	11094
911.489	11117
911.604	11003
911.718	10892
911.833	10908
911.947	10816
912.062	10786
912.176	10866
912.291	10843
912.405	10919
912.519	11121
912.633	11181
912.748	10919
912.862	10862
912.976	10809
913.09	10641
913.204	10679
913.318	10809
913.431	10911
913.545	10889
913.659	10889
913.772	10755
913.886	10702
914	10622
914.113	10759
914.226	10744
914.34	10660
914.453	10596
914.566	10729
914.68	10630
914.793	10573
914.906	10455
915.019	10447
915.132	10402
915.245	10325
915.358	10459
915.47	10443
915.583	10440
915.696	10409
915.809	10645
915.921	10546
916.034	10413
916.146	10287
916.259	10356
916.371	10462
916.483	10394
916.595	10375
916.708	10367
916.82	10386
916.932	10356
917.044	10341
917.156	10303
917.268	10219
917.38	10261
917.491	10253
917.603	10284
917.715	10261
917.826	10363
917.938	10238
918.049	10162
918.161	10265
918.272	10348
918.384	10409
918.495	10310
918.606	10215
918.717	10055
918.828	10162
918.939	10173
919.05	10010
919.161	10150
919.272	9945
919.383	10017
919.494	10173
919.604	10314
919.715	10169
919.826	10040
919.936	10162
920.047	10249
920.157	10124
920.267	10333
920.378	10181
920.488	10086
920.598	10379
920.708	10459
920.818	10367
920.928	10310
921.038	10497
921.148	10417
921.258	10219
921.368	10147
921.477	10044
921.587	10036
921.697	9907
921.806	10139
921.916	9888
922.025	9694
922.134	9747
922.244	9728
922.353	9720
922.462	9538
922.571	9580
922.68	9428
922.789	9439
922.898	9431
923.007	9321
923.116	9450
923.224	9447
923.333	9359
923.442	9336
923.55	9294
923.659	9306
923.767	9336
923.876	9294
923.984	9336
924.092	9272
924.201	9294
924.309	9264
924.417	9298
924.525	9150
924.633	9176
924.741	10230
924.849	9051
924.956	9157
925.064	9081
925.172	8937
925.279	9051
925.387	9032
925.494	9009
925.602	9173
925.709	9097
925.816	8944
925.924	9104
926.031	9157
926.138	9051
926.245	9131
926.352	8948
926.459	9138
926.566	9169
926.673	9028
926.779	8944
926.886	8952
926.993	8807
927.099	8781
927.206	8792
927.312	8785
927.419	8754
927.525	8766
927.631	8876
927.737	8743
927.843	8659
927.95	8575
928.056	8632
928.162	8727
928.267	8727
928.373	9218
928.479	8727
928.585	8507
928.69	8705
928.796	8735
928.901	8610
929.007	8530
929.112	8629
929.218	8575
929.323	8530
929.428	8495
929.533	8617
929.638	8469
929.743	8450
929.848	8507
929.953	8454
930.058	8431
930.163	8298
930.267	8313
930.372	8442
930.477	8271
930.581	8503
930.685	8328
930.79	8218
930.894	8301
930.998	8240
931.103	8396
931.207	8005
931.311	8005
931.415	7868
931.519	7765
931.623	7700
