Data from test_V78500241_535.txt Node
Date: Fri Mar 25 14:37:26 CST 2022
User: usil
Spectrometer: V785-0024
Trigger mode: 0
Integration Time (sec): 4.000000E-1
Scans to average: 1
Nonlinearity correction enabled: false
Boxcar width: 0
Storing dark spectrum: false
XAxis mode: Wavelengths
Number of Pixels in Spectrum: 1024
>>>>>Begin Spectral Data<<<<<
801.071	27329
801.214	27142
801.356	27005
801.499	26883
801.641	26857
801.783	26750
801.926	26861
802.068	26621
802.211	26629
802.353	26396
802.496	26301
802.638	26294
802.78	26278
802.923	26164
803.065	26199
803.208	26065
803.35	26062
803.492	26294
803.635	26374
803.777	26214
803.919	26282
804.061	26568
804.204	26453
804.346	26218
804.488	26183
804.63	26187
804.773	26084
804.915	26252
805.057	26385
805.199	26317
805.341	26400
805.483	26461
805.626	26511
805.768	26298
805.91	26453
806.052	26400
806.194	26469
806.336	26796
806.478	26648
806.62	26861
806.762	26963
806.904	27135
807.046	27412
807.188	27298
807.33	27603
807.472	27743
807.614	27922
807.756	28242
807.898	28447
808.04	28904
808.182	29596
808.324	30418
808.465	31354
808.607	32453
808.749	33454
808.891	34040
809.033	33903
809.174	33302
809.316	32328
809.458	31365
809.6	30232
809.741	29668
809.883	28812
810.025	28611
810.166	28143
810.308	28097
810.45	27682
810.591	27690
810.733	27291
810.875	27195
811.016	27024
811.158	26891
811.299	27161
811.441	27135
811.582	26994
811.724	26815
811.865	26750
812.007	26777
812.148	26724
812.29	26644
812.431	26796
812.573	26921
812.714	27169
812.855	27188
812.997	27313
813.138	27351
813.279	27138
813.421	27039
813.562	27005
813.703	26792
813.845	26632
813.986	26377
814.127	26396
814.268	26035
814.41	26164
814.551	26001
814.692	26134
814.833	25913
814.974	25871
815.115	26001
815.256	25879
815.397	25837
815.539	25883
815.68	25742
815.821	25750
815.962	25780
816.103	25727
816.244	25689
816.385	25510
816.526	25362
816.666	25266
816.807	25152
816.948	25164
817.089	25129
817.23	25091
817.371	25000
817.512	25065
817.653	25034
817.793	24962
817.934	25183
818.075	25069
818.216	25080
818.356	24886
818.497	24772
818.638	24620
818.778	24829
818.919	24722
819.06	24757
819.2	24791
819.341	24939
819.481	25091
819.622	25091
819.762	25343
819.903	25061
820.043	24943
820.184	25072
820.324	24996
820.465	25103
820.605	25080
820.746	24947
820.886	24779
821.026	24913
821.167	24886
821.307	24996
821.447	24856
821.588	24726
821.728	24483
821.868	24403
822.008	24232
822.149	24201
822.289	24232
822.429	24030
822.569	23912
822.709	23954
822.849	23752
822.99	23737
823.13	23672
823.27	23760
823.41	23501
823.55	23455
823.69	23501
823.83	23429
823.97	23440
824.11	23425
824.25	23395
824.389	23250
824.529	23391
824.669	23292
824.809	23376
824.949	23406
825.089	23326
825.228	23433
825.368	23170
825.508	22999
825.648	23159
825.787	23105
825.927	23140
826.067	22923
826.206	23136
826.346	23064
826.485	23170
826.625	23033
826.765	23303
826.904	23056
827.044	22858
827.183	22858
827.323	22603
827.462	22706
827.601	22786
827.741	22793
827.88	22748
828.02	22691
828.159	22664
828.298	22957
828.437	22729
828.577	22675
828.716	22816
828.855	22717
828.994	22577
829.134	22405
829.273	22409
829.412	22398
829.551	22272
829.69	22474
829.829	22341
829.968	22512
830.107	22360
830.246	22394
830.385	22356
830.524	22268
830.663	22257
830.802	22124
830.941	21934
831.08	21876
831.219	22120
831.357	21945
831.496	22169
831.635	22063
831.774	21994
831.913	21842
832.051	21816
832.19	21823
832.329	21728
832.467	21633
832.606	21747
832.744	21633
832.883	21701
833.022	21774
833.16	21766
833.299	21842
833.437	21804
833.576	21915
833.714	21960
833.852	22029
833.991	22021
834.129	22093
834.267	22135
834.406	22036
834.544	21934
834.682	22010
834.821	21960
834.959	21972
835.097	21808
835.235	21880
835.373	21808
835.511	21644
835.65	21644
835.788	21713
835.926	21401
836.064	21321
836.202	21359
836.34	21572
836.478	21542
836.615	21408
836.753	21477
836.891	21530
837.029	21507
837.167	21397
837.305	21351
837.443	21431
837.58	21272
837.718	21424
837.856	21321
837.993	21138
838.131	21428
838.269	21237
838.406	21142
838.544	21184
838.681	20937
838.819	21032
838.956	20933
839.094	20651
839.231	20883
839.369	20857
839.506	20906
839.643	20891
839.781	20796
839.918	20674
840.055	20716
840.193	20648
840.33	20655
840.467	20644
840.604	20708
840.742	20975
840.879	20640
841.016	20568
841.153	20659
841.29	20720
841.427	20648
841.564	20762
841.701	20602
841.838	20621
841.975	20530
842.112	20503
842.249	20419
842.385	20431
842.522	20488
842.659	20415
842.796	20571
842.933	20423
843.069	20393
843.206	20488
843.343	20484
843.479	20465
843.616	20465
843.752	20244
843.889	20103
844.025	20389
844.162	20305
844.298	20366
844.435	20503
844.571	20400
844.708	20648
844.844	20773
844.98	20872
845.117	21005
845.253	21131
845.389	21644
845.525	22634
845.661	24346
845.798	26374
845.934	28082
846.07	28649
846.206	28535
846.342	27154
846.478	25175
846.614	22915
846.75	21774
846.886	21013
847.022	20644
847.158	20221
847.294	20191
847.429	20058
847.565	20077
847.701	20153
847.837	19586
847.972	19540
848.108	19696
848.244	19495
848.379	19324
848.515	19301
848.65	19209
848.786	19213
848.921	19244
849.057	19388
849.192	19270
849.328	19304
849.463	19198
849.598	19244
849.734	19057
849.869	19099
850.004	18962
850.14	18996
850.275	18958
850.41	18905
850.545	18924
850.68	18913
850.815	18913
850.95	18882
851.085	19137
851.22	19118
851.355	18890
851.49	18897
851.625	18901
851.76	18890
851.895	18741
852.03	18856
852.165	18962
852.299	18935
852.434	19179
852.569	19015
852.703	18973
852.838	18966
852.973	19122
853.107	19114
853.242	18909
853.376	18856
853.511	18661
853.645	18779
853.78	18901
853.914	18905
854.048	18821
854.183	18787
854.317	18779
854.451	19061
854.585	18928
854.72	18840
854.854	18939
854.988	18795
855.122	18848
855.256	18696
855.39	18726
855.524	18863
855.658	18806
855.792	18825
855.926	18916
856.06	18844
856.194	18890
856.327	18787
856.461	18681
856.595	18798
856.729	18749
856.862	18833
856.996	18772
857.13	18760
857.263	18738
857.397	18878
857.53	18665
857.664	18734
857.797	18814
857.931	18821
858.064	18696
858.197	18909
858.331	18604
858.464	18639
858.597	18669
858.731	18726
858.864	18639
858.997	18791
859.13	18776
859.263	18783
859.396	18806
859.529	18730
859.662	18631
859.795	18604
859.928	18783
860.061	18810
860.194	18779
860.327	18658
860.46	18665
860.592	18722
860.725	18795
860.858	18768
860.99	18650
861.123	18589
861.256	18593
861.388	18779
861.521	19537
861.653	18563
861.786	18646
861.918	18532
862.05	18650
862.183	18703
862.315	18703
862.447	18722
862.58	18608
862.712	18513
862.844	18471
862.976	18532
863.108	18494
863.24	18897
863.372	18300
863.504	18563
863.636	18407
863.768	18426
863.9	18498
864.032	18266
864.164	18289
864.296	18376
864.428	18437
864.559	18437
864.691	18464
864.823	18414
864.954	18361
865.086	18395
865.217	18247
865.349	18277
865.48	18403
865.612	18395
865.743	18445
865.875	18327
866.006	18319
866.137	18361
866.269	18247
866.4	18281
866.531	18258
866.662	18258
866.793	18235
866.924	18251
867.055	18235
867.186	18300
867.317	18308
867.448	18171
867.579	18125
867.71	18186
867.841	18163
867.972	18289
868.103	18243
868.233	18357
868.364	18380
868.495	18304
868.625	18395
868.756	18544
868.886	18429
869.017	18403
869.147	18563
869.278	18555
869.408	18631
869.539	18521
869.669	18551
869.799	18585
869.929	18551
870.06	18665
870.19	18787
870.32	18753
870.45	18840
870.58	18890
870.71	19057
870.84	18993
870.97	18848
871.1	18852
871.23	19137
871.36	19031
871.489	18954
871.619	19084
871.749	19152
871.879	19118
872.008	19339
872.138	19084
872.267	19236
872.397	18947
872.526	18993
872.656	19023
872.785	19046
872.915	19213
873.044	19255
873.173	19183
873.303	19228
873.432	19194
873.561	19316
873.69	19221
873.819	19320
873.948	19346
874.077	19236
874.206	19213
874.335	19308
874.464	19426
874.593	19578
874.722	19422
874.851	19544
874.979	19685
875.108	19708
875.237	19567
875.365	19613
875.494	19525
875.623	19693
875.751	19480
875.88	19658
876.008	19860
876.136	19849
876.265	20039
876.393	20267
876.521	20172
876.65	20290
876.778	20134
876.906	20218
877.034	20134
877.162	20290
877.29	20119
877.418	20225
877.546	20248
877.674	20385
877.802	20320
877.93	20404
878.058	20385
878.185	20396
878.313	20514
878.441	20727
878.568	20526
878.696	20842
878.824	21252
878.951	21595
879.079	22021
879.206	23014
879.333	23379
879.461	23851
879.588	24281
879.715	24243
879.842	24220
879.97	23387
880.097	22516
880.224	22040
880.351	21743
880.478	21534
880.605	21230
880.732	21176
880.859	21283
880.986	20979
881.112	21009
881.239	20667
881.366	20800
881.493	20785
881.619	20526
881.746	20686
881.872	20533
881.999	20590
882.125	20518
882.252	20621
882.378	20625
882.505	20849
882.631	20484
882.757	20374
882.883	20545
883.01	20461
883.136	20442
883.262	20294
883.388	20309
883.514	20400
883.64	20461
883.766	20244
883.892	20142
884.018	20195
884.143	20278
884.269	20396
884.395	20119
884.52	20119
884.646	20168
884.772	20012
884.897	19967
885.023	20046
885.148	20252
885.274	20168
885.399	19989
885.524	20001
885.65	19967
885.775	19936
885.9	19818
886.025	19917
886.15	19860
886.275	19715
886.4	19601
886.525	19635
886.65	19533
886.775	19590
886.9	19635
887.025	19746
887.149	19441
887.274	19301
887.399	19110
887.523	19289
887.648	19137
887.773	19046
887.897	19285
888.021	19213
888.146	18989
888.27	19095
888.395	19148
888.519	19076
888.643	19122
888.767	19084
888.891	18878
889.015	18764
889.139	18954
889.263	18757
889.387	18932
889.511	18996
889.635	18905
889.759	18673
889.883	18753
890.006	18730
890.13	18711
890.254	18715
890.377	18692
890.501	18502
890.624	18391
890.748	18475
890.871	18319
890.995	18224
891.118	18289
891.241	18327
891.364	18281
891.488	18395
891.611	18311
891.734	18174
891.857	18273
891.98	18239
892.103	18308
892.226	18194
892.349	18140
892.471	18034
892.594	18140
892.717	18083
892.839	18045
892.962	18045
893.085	18167
893.207	18060
893.33	18003
893.452	17996
893.575	18053
893.697	17980
893.819	18140
893.941	18205
894.064	18148
894.186	17988
894.308	17916
894.43	18041
894.552	18125
894.674	18083
894.796	17866
894.918	17904
895.04	18019
895.161	18083
895.283	18019
895.405	17927
895.526	18064
895.648	17942
895.769	17874
895.891	18083
896.012	18068
896.134	18072
896.255	17992
896.376	17969
896.498	17954
896.619	18007
896.74	18034
896.861	18098
896.982	18391
897.103	18407
897.224	18277
897.345	18209
897.466	18140
897.587	18079
897.708	18357
897.828	18308
897.949	18106
898.07	17992
898.19	18136
898.311	18334
898.431	18235
898.552	18251
898.672	18194
898.792	18285
898.913	18178
899.033	18079
899.153	18034
899.273	18022
899.393	18049
899.513	18091
899.633	18121
899.753	18129
899.873	17916
899.993	18095
900.113	17965
900.232	18079
900.352	17996
900.472	17920
900.591	17802
900.711	17794
900.83	17748
900.95	17946
901.069	17916
901.189	17729
901.308	17532
901.427	17539
901.546	17459
901.665	17379
901.784	17414
901.904	17250
902.023	17227
902.141	17094
902.26	16911
902.379	16999
902.498	16911
902.617	16889
902.735	17018
902.854	16949
902.973	16668
903.091	16649
903.21	16550
903.328	16523
903.446	16405
903.565	16386
903.683	16371
903.801	16268
903.919	16421
904.038	16344
904.156	16154
904.274	16158
904.392	16090
904.51	16147
904.627	16143
904.745	16246
904.863	16105
904.981	15888
905.098	15816
905.216	15873
905.334	15819
905.451	15895
905.569	15789
905.686	15831
905.803	15812
905.921	15606
906.038	15629
906.155	15709
906.272	15561
906.389	15584
906.506	15355
906.623	15344
906.74	15230
906.857	15157
906.974	15321
907.091	15435
907.208	15378
907.324	15272
907.441	15260
907.557	15097
907.674	15066
907.79	14941
907.907	14971
908.023	15013
908.139	15093
908.256	15009
908.372	14944
908.488	14887
908.604	14781
908.72	14739
908.836	14735
908.952	14819
909.068	14754
909.184	14830
909.3	14678
909.415	14788
909.531	14712
909.647	14461
909.762	14446
909.878	14423
909.993	14419
910.108	14476
910.224	14446
910.339	14434
910.454	14282
910.57	14271
910.685	14218
910.8	14450
910.915	14454
911.03	14305
911.145	14031
911.259	14062
911.374	14115
911.489	14024
911.604	14043
911.718	13765
911.833	13940
911.947	13738
912.062	13658
912.176	13803
912.291	13784
912.405	13757
912.519	14016
912.633	14024
912.748	13818
912.862	13822
912.976	13670
913.09	13514
913.204	13647
913.318	13620
913.431	13742
913.545	13761
913.659	13750
913.772	13647
913.886	13590
914	13502
914.113	13624
914.226	13651
914.34	13594
914.453	13441
914.566	13578
914.68	13449
914.793	13400
914.906	13228
915.019	13084
915.132	13164
915.245	13240
915.358	13145
915.47	13160
915.583	13141
915.696	13171
915.809	13304
915.921	13209
916.034	13107
916.146	13084
916.259	13145
916.371	13103
916.483	13156
916.595	12977
916.708	13027
916.82	12985
916.932	13008
917.044	12966
917.156	13004
917.268	12867
917.38	12947
917.491	12932
917.603	12905
917.715	12977
917.826	12989
917.938	12757
918.049	12806
918.161	12863
918.272	12981
918.384	12943
918.495	12894
918.606	12681
918.717	12578
918.828	12597
918.939	12745
919.05	12555
919.161	12631
919.272	12589
919.383	12486
919.494	12662
919.604	12882
919.715	12669
919.826	12536
919.936	12635
920.047	12669
920.157	12597
920.267	12738
920.378	12620
920.488	12597
920.598	12802
920.708	12890
920.818	12798
920.928	12867
921.038	12886
921.148	12928
921.258	12540
921.368	12578
921.477	12483
921.587	12391
921.697	12258
921.806	12467
921.916	12277
922.025	12136
922.134	12034
922.244	12045
922.353	12083
922.462	11920
922.571	11874
922.68	11718
922.789	11756
922.898	11779
923.007	11710
923.116	11794
923.224	11684
923.333	11665
923.442	11592
923.55	11562
923.659	11608
923.767	11630
923.876	11539
923.984	11627
924.092	11490
924.201	11577
924.309	11471
924.417	11486
924.525	11455
924.633	11520
924.741	12220
924.849	11372
924.956	11512
925.064	11311
925.172	11166
925.279	11204
925.387	11235
925.494	11273
925.602	11410
925.709	11337
925.816	11109
925.924	11250
926.031	11280
926.138	11250
926.245	11246
926.352	11242
926.459	11269
926.566	11364
926.673	11212
926.779	11132
926.886	11025
926.993	10995
927.099	10976
927.206	10915
927.312	10839
927.419	10934
927.525	10904
927.631	10942
927.737	10774
927.843	10885
927.95	10740
928.056	10767
928.162	10854
928.267	10847
928.373	11242
928.479	10911
928.585	10561
928.69	10706
928.796	10782
928.901	10755
929.007	10466
929.112	10675
929.218	10584
929.323	10542
929.428	10466
929.533	10694
929.638	10375
929.743	10497
929.848	10546
929.953	10481
930.058	10402
930.163	10215
930.267	10211
930.372	10443
930.477	10196
930.581	10436
930.685	10306
930.79	10181
930.894	10173
930.998	10131
931.103	10287
931.207	9846
931.311	9899
931.415	9770
931.519	9648
931.623	9580
