Data from test_V78500241_2217.txt Node
Date: Fri Mar 25 14:49:08 CST 2022
User: usil
Spectrometer: V785-0024
Trigger mode: 0
Integration Time (sec): 4.000000E-1
Scans to average: 1
Nonlinearity correction enabled: false
Boxcar width: 0
Storing dark spectrum: false
XAxis mode: Wavelengths
Number of Pixels in Spectrum: 1024
>>>>>Begin Spectral Data<<<<<
801.071	22211
801.214	22211
801.356	21816
801.499	21835
801.641	21591
801.783	21435
801.926	21606
802.068	21549
802.211	21363
802.353	21363
802.496	21093
802.638	21020
802.78	20986
802.923	20861
803.065	20868
803.208	20815
803.35	20941
803.492	20952
803.635	20967
803.777	20868
803.919	20925
804.061	21222
804.204	20918
804.346	20880
804.488	20724
804.63	20883
804.773	20674
804.915	20701
805.057	20914
805.199	20705
805.341	20895
805.483	20967
805.626	20921
805.768	20781
805.91	20899
806.052	20781
806.194	20575
806.336	20986
806.478	20697
806.62	20788
806.762	20883
806.904	20937
807.046	21199
807.188	21173
807.33	21089
807.472	21096
807.614	21058
807.756	21047
807.898	20895
808.04	20819
808.182	20823
808.324	20807
808.465	20967
808.607	21039
808.749	21203
808.891	21279
809.033	21321
809.174	21233
809.316	21135
809.458	21195
809.6	21119
809.741	21116
809.883	21176
810.025	21306
810.166	21348
810.308	21298
810.45	21241
810.591	21089
810.733	21081
810.875	20986
811.016	20876
811.158	20887
811.299	20967
811.441	21100
811.582	21150
811.724	20857
811.865	20883
812.007	20861
812.148	20902
812.29	20883
812.431	21150
812.573	21218
812.714	21378
812.855	21428
812.997	21424
813.138	21603
813.279	21431
813.421	21454
813.562	21351
813.703	21268
813.845	21085
813.986	20815
814.127	20651
814.268	20606
814.41	20545
814.551	20606
814.692	20598
814.833	20339
814.974	20431
815.115	20461
815.256	20161
815.397	20278
815.539	20328
815.68	20130
815.821	20248
815.962	20218
816.103	20233
816.244	20016
816.385	20008
816.526	19898
816.666	19788
816.807	19689
816.948	19677
817.089	19719
817.23	19666
817.371	19597
817.512	19689
817.653	19533
817.793	19594
817.934	19552
818.075	19582
818.216	19609
818.356	19521
818.497	19472
818.638	19285
818.778	19320
818.919	19312
819.06	19396
819.2	19419
819.341	19430
819.481	19559
819.622	19723
819.762	19795
819.903	19780
820.043	19655
820.184	19677
820.324	19594
820.465	19742
820.605	19632
820.746	19514
820.886	19480
821.026	19586
821.167	19578
821.307	19681
821.447	19476
821.588	19346
821.728	19316
821.868	19228
822.008	19069
822.149	18996
822.289	18894
822.429	18703
822.569	18700
822.709	18673
822.849	18494
822.99	18479
823.13	18509
823.27	18433
823.41	18365
823.55	18384
823.69	18311
823.83	18251
823.97	18334
824.11	18133
824.25	18091
824.389	18068
824.529	18163
824.669	17980
824.809	18247
824.949	18277
825.089	18087
825.228	18034
825.368	17927
825.508	17916
825.648	17805
825.787	17984
825.927	17958
826.067	17767
826.206	17748
826.346	17802
826.485	17980
826.625	17916
826.765	17931
826.904	17882
827.044	17600
827.183	17478
827.323	17577
827.462	17573
827.601	17577
827.741	17604
827.88	17524
828.02	17497
828.159	17608
828.298	17463
828.437	17638
828.577	17509
828.716	17710
828.855	17444
828.994	17296
829.134	17353
829.273	17322
829.412	17277
829.551	17220
829.69	17189
829.829	17292
829.968	17398
830.107	17341
830.246	17223
830.385	17220
830.524	17269
830.663	17098
830.802	16938
830.941	17041
831.08	16862
831.219	16942
831.357	16946
831.496	17178
831.635	16858
831.774	16797
831.913	16759
832.051	16744
832.19	16763
832.329	16622
832.467	16611
832.606	16546
832.744	16523
832.883	16584
833.022	16493
833.16	16550
833.299	16561
833.437	16561
833.576	16637
833.714	16683
833.852	16683
833.991	16683
834.129	16641
834.267	16706
834.406	16554
834.544	16618
834.682	16634
834.821	16542
834.959	16755
835.097	16527
835.235	16683
835.373	16649
835.511	16630
835.65	16500
835.788	16542
835.926	16398
836.064	16394
836.202	16421
836.34	16588
836.478	16713
836.615	16440
836.753	16607
836.891	16622
837.029	16527
837.167	16455
837.305	16394
837.443	16413
837.58	16333
837.718	16485
837.856	16481
837.993	16344
838.131	16386
838.269	16337
838.406	16379
838.544	16238
838.681	16086
838.819	16067
838.956	16025
839.094	15888
839.231	15972
839.369	15983
839.506	16344
839.643	16207
839.781	15884
839.918	15850
840.055	15869
840.193	15998
840.33	15930
840.467	15930
840.604	16025
840.742	16242
840.879	15713
841.016	15854
841.153	15827
841.29	16021
841.427	15964
841.564	15941
841.701	15994
841.838	15903
841.975	15838
842.112	15774
842.249	15854
842.385	15660
842.522	15842
842.659	15751
842.796	15667
842.933	15793
843.069	15641
843.206	15694
843.343	15854
843.479	15743
843.616	15656
843.752	15599
843.889	15447
844.025	15603
844.162	15443
844.298	15580
844.435	15603
844.571	15545
844.708	15545
844.844	15637
844.98	15603
845.117	15622
845.253	15462
845.389	15416
845.525	15519
845.661	15405
845.798	15252
845.934	15416
846.07	15264
846.206	15405
846.342	15435
846.478	15184
846.614	15135
846.75	15077
846.886	14998
847.022	15192
847.158	15108
847.294	15028
847.429	15161
847.565	15009
847.701	15272
847.837	14861
847.972	14769
848.108	15001
848.244	14891
848.379	14716
848.515	14670
848.65	14575
848.786	14659
848.921	14613
849.057	14857
849.192	14838
849.328	14731
849.463	14845
849.598	14632
849.734	14594
849.869	14556
850.004	14427
850.14	14503
850.275	14408
850.41	14355
850.545	14355
850.68	14324
850.815	14377
850.95	14476
851.085	14541
851.22	14530
851.355	14423
851.49	14457
851.625	14374
851.76	14355
851.895	14332
852.03	14377
852.165	14408
852.299	14434
852.434	14465
852.569	14518
852.703	14454
852.838	14465
852.973	14617
853.107	14545
853.242	14366
853.376	14358
853.511	14172
853.645	14313
853.78	14328
853.914	14290
854.048	14328
854.183	14275
854.317	14343
854.451	14423
854.585	14271
854.72	14225
854.854	14438
854.988	14202
855.122	14244
855.256	14153
855.39	14332
855.524	14442
855.658	14385
855.792	14301
855.926	14347
856.06	14370
856.194	14332
856.327	14324
856.461	14187
856.595	14252
856.729	14187
856.862	14457
856.996	14328
857.13	14294
857.263	14446
857.397	14419
857.53	14336
857.664	14457
857.797	14374
857.931	14355
858.064	14343
858.197	14385
858.331	14294
858.464	14309
858.597	14229
858.731	14282
858.864	14252
858.997	14294
859.13	14324
859.263	14290
859.396	14393
859.529	14256
859.662	14351
859.795	14328
859.928	14347
860.061	14442
860.194	14488
860.327	14275
860.46	14347
860.592	14370
860.725	14404
860.858	14377
860.99	14347
861.123	14309
861.256	14351
861.388	14271
861.521	14845
861.653	14123
861.786	14069
861.918	14176
862.05	14191
862.183	14218
862.315	14351
862.447	14336
862.58	14202
862.712	14123
862.844	14046
862.976	14225
863.108	14088
863.24	14457
863.372	13894
863.504	14111
863.636	13967
863.768	14126
863.9	14024
864.032	14008
864.164	14107
864.296	14126
864.428	14256
864.559	14214
864.691	14187
864.823	14119
864.954	14115
865.086	14062
865.217	14142
865.349	14043
865.48	14130
865.612	14069
865.743	14195
865.875	14005
866.006	14107
866.137	13993
866.269	14092
866.4	14123
866.531	14016
866.662	13982
866.793	13986
866.924	14001
867.055	14107
867.186	13993
867.317	13967
867.448	14005
867.579	14027
867.71	14012
867.841	13928
867.972	14214
868.103	14081
868.233	14115
868.364	14043
868.495	14100
868.625	14320
868.756	14339
868.886	14191
869.017	14157
869.147	14461
869.278	14522
869.408	14370
869.539	14385
869.669	14454
869.799	14278
869.929	14484
870.06	14495
870.19	14632
870.32	14632
870.45	14674
870.58	14678
870.71	14712
870.84	14811
870.97	14788
871.1	14670
871.23	14826
871.36	14876
871.489	14792
871.619	14823
871.749	14906
871.879	14891
872.008	14994
872.138	14925
872.267	14948
872.397	14682
872.526	14788
872.656	14686
872.785	14769
872.915	14982
873.044	14994
873.173	14887
873.303	14986
873.432	15001
873.561	15036
873.69	14952
873.819	14952
873.948	15043
874.077	15020
874.206	14918
874.335	14902
874.464	15020
874.593	15256
874.722	15275
874.851	15294
874.979	15275
875.108	15222
875.237	15214
875.365	15268
875.494	15230
875.623	15401
875.751	15241
875.88	15279
876.008	15408
876.136	15477
876.265	15675
876.393	15911
876.521	15755
876.65	15736
876.778	15694
876.906	15622
877.034	15641
877.162	15629
877.29	15652
877.418	15793
877.546	15717
877.674	15652
877.802	15641
877.93	15622
878.058	15603
878.185	15603
878.313	15690
878.441	15656
878.568	15511
878.696	15728
878.824	15713
878.951	15724
879.079	15846
879.206	15991
879.333	15850
879.461	15637
879.588	15865
879.715	15850
879.842	15979
879.97	15797
880.097	15606
880.224	15431
880.351	15542
880.478	15549
880.605	15466
880.732	15496
880.859	15739
880.986	15618
881.112	15595
881.239	15416
881.366	15306
881.493	15237
881.619	15142
881.746	15237
881.872	15199
881.999	15222
882.125	15138
882.252	15249
882.378	15157
882.505	15313
882.631	15249
882.757	14994
882.883	15005
883.01	15017
883.136	14986
883.262	14933
883.388	14906
883.514	14971
883.64	15119
883.766	14933
883.892	14788
884.018	14804
884.143	14986
884.269	15100
884.395	14743
884.52	14670
884.646	14750
884.772	14636
884.897	14568
885.023	14667
885.148	14773
885.274	14792
885.399	14853
885.524	14697
885.65	14777
885.775	14712
885.9	14686
886.025	14853
886.15	14845
886.275	14682
886.4	14583
886.525	14617
886.65	14598
886.775	14617
886.9	14750
887.025	15001
887.149	14686
887.274	14556
887.399	14488
887.523	14571
887.648	14473
887.773	14434
887.897	14541
888.021	14568
888.146	14560
888.27	14655
888.395	14659
888.519	14514
888.643	14613
888.767	14644
888.891	14465
889.015	14423
889.139	14454
889.263	14476
889.387	14488
889.511	14568
889.635	14552
889.759	14381
889.883	14332
890.006	14488
890.13	14476
890.254	14336
890.377	14332
890.501	14256
890.624	14199
890.748	14370
890.871	14107
890.995	14130
891.118	14062
891.241	13974
891.364	14039
891.488	14164
891.611	14039
891.734	14195
891.857	14256
891.98	14126
892.103	14259
892.226	14138
892.349	14039
892.471	13993
892.594	14043
892.717	14111
892.839	14062
892.962	14062
893.085	14237
893.207	14008
893.33	14020
893.452	14138
893.575	14218
893.697	13955
893.819	14191
893.941	14309
894.064	14290
894.186	14088
894.308	14107
894.43	14210
894.552	14328
894.674	14259
894.796	14069
894.918	14195
895.04	14168
895.161	14294
895.283	14191
895.405	14176
895.526	14237
895.648	14202
895.769	14282
895.891	14187
896.012	14301
896.134	14347
896.255	14244
896.376	14218
896.498	14328
896.619	14275
896.74	14366
896.861	14404
896.982	14617
897.103	14769
897.224	14499
897.345	14583
897.466	14511
897.587	14526
897.708	14712
897.828	14621
897.949	14503
898.07	14415
898.19	14537
898.311	14625
898.431	14571
898.552	14632
898.672	14636
898.792	14697
898.913	14682
899.033	14518
899.153	14465
899.273	14374
899.393	14495
899.513	14507
899.633	14522
899.753	14533
899.873	14423
899.993	14518
900.113	14415
900.232	14537
900.352	14495
900.472	14427
900.591	14240
900.711	14450
900.83	14275
900.95	14351
901.069	14450
901.189	14339
901.308	14145
901.427	14043
901.546	14046
901.665	14008
901.784	14039
901.904	13951
902.023	13879
902.141	13632
902.26	13552
902.379	13674
902.498	13609
902.617	13575
902.735	13636
902.854	13636
902.973	13529
903.091	13247
903.21	13274
903.328	13331
903.446	13251
903.565	13183
903.683	13145
903.801	13038
903.919	13129
904.038	13126
904.156	13027
904.274	13084
904.392	12977
904.51	13000
904.627	12928
904.745	13015
904.863	13118
904.981	12753
905.098	12684
905.216	12684
905.334	12635
905.451	12658
905.569	12623
905.686	12642
905.803	12745
905.921	12464
906.038	12521
906.155	12433
906.272	12399
906.389	12418
906.506	12209
906.623	12304
906.74	12258
906.857	12136
906.974	12171
907.091	12262
907.208	12353
907.324	12330
907.441	12239
907.557	12057
907.674	11954
907.79	11977
907.907	11977
908.023	11965
908.139	11999
908.256	11840
908.372	11923
908.488	11904
908.604	11832
908.72	11718
908.836	11710
908.952	11748
909.068	11760
909.184	11832
909.3	11741
909.415	11790
909.531	11794
909.647	11596
909.762	11524
909.878	11524
909.993	11566
910.108	11528
910.224	11493
910.339	11509
910.454	11482
910.57	11402
910.685	11406
910.8	11558
910.915	11493
911.03	11463
911.145	11330
911.259	11311
911.374	11322
911.489	11231
911.604	11128
911.718	11037
911.833	10987
911.947	10915
912.062	10782
912.176	10980
912.291	10972
912.405	10946
912.519	11185
912.633	11140
912.748	11033
912.862	11018
912.976	10877
913.09	10641
913.204	10839
913.318	10873
913.431	10972
913.545	10927
913.659	10885
913.772	10828
913.886	10774
914	10683
914.113	10923
914.226	10923
914.34	10911
914.453	10706
914.566	10866
914.68	10721
914.793	10618
914.906	10546
915.019	10489
915.132	10417
915.245	10440
915.358	10497
915.47	10523
915.583	10542
915.696	10580
915.809	10710
915.921	10603
916.034	10428
916.146	10386
916.259	10504
916.371	10516
916.483	10580
916.595	10447
916.708	10371
916.82	10421
916.932	10341
917.044	10413
917.156	10447
917.268	10261
917.38	10375
917.491	10379
917.603	10428
917.715	10440
917.826	10474
917.938	10398
918.049	10257
918.161	10348
918.272	10474
918.384	10470
918.495	10455
918.606	10200
918.717	10143
918.828	10265
918.939	10291
919.05	10215
919.161	10158
919.272	10101
919.383	10101
919.494	10303
919.604	10402
919.715	10295
919.826	10227
919.936	10204
920.047	10284
920.157	10265
920.267	10474
920.378	10280
920.488	10272
920.598	10459
920.708	10622
920.818	10481
920.928	10481
921.038	10687
921.148	10656
921.258	10249
921.368	10242
921.477	10116
921.587	10150
921.697	10097
921.806	10177
921.916	9972
922.025	9888
922.134	9789
922.244	9861
922.353	9823
922.462	9660
922.571	9705
922.68	9488
922.789	9488
922.898	9564
923.007	9496
923.116	9538
923.224	9599
923.333	9447
923.442	9431
923.55	9389
923.659	9405
923.767	9412
923.876	9325
923.984	9488
924.092	9325
924.201	9359
924.309	9348
924.417	9348
924.525	9283
924.633	9351
924.741	10234
924.849	9066
924.956	9321
925.064	9169
925.172	9131
925.279	9093
925.387	9188
925.494	9161
925.602	9367
925.709	9199
925.816	9222
925.924	9203
926.031	9169
926.138	9203
926.245	9233
926.352	9123
926.459	9279
926.566	9279
926.673	9017
926.779	9039
926.886	9028
926.993	8937
927.099	8902
927.206	8811
927.312	8838
927.419	8979
927.525	8963
927.631	8899
927.737	8853
927.843	8800
927.95	8663
928.056	8697
928.162	8804
928.267	8868
928.373	9401
928.479	8823
928.585	8606
928.69	8777
928.796	8743
928.901	8693
929.007	8610
929.112	8689
929.218	8613
929.323	8590
929.428	8617
929.533	8785
929.638	8598
929.743	8568
929.848	8648
929.953	8610
930.058	8473
930.163	8339
930.267	8408
930.372	8503
930.477	8351
930.581	8613
930.685	8419
930.79	8332
930.894	8362
930.998	8286
931.103	8385
931.207	8149
931.311	8058
931.415	8024
931.519	7822
931.623	7811
