Data from test_V78500241_3255.txt Node
Date: Fri Mar 25 14:56:22 CST 2022
User: usil
Spectrometer: V785-0024
Trigger mode: 0
Integration Time (sec): 4.000000E-1
Scans to average: 1
Nonlinearity correction enabled: false
Boxcar width: 0
Storing dark spectrum: false
XAxis mode: Wavelengths
Number of Pixels in Spectrum: 1024
>>>>>Begin Spectral Data<<<<<
801.071	22086
801.214	21941
801.356	21648
801.499	21401
801.641	21572
801.783	21351
801.926	21526
802.068	21351
802.211	21348
802.353	21112
802.496	20815
802.638	20975
802.78	20811
802.923	20705
803.065	20632
803.208	20629
803.35	20689
803.492	20864
803.635	20834
803.777	20613
803.919	20735
804.061	21005
804.204	20773
804.346	20648
804.488	20655
804.63	20655
804.773	20678
804.915	20670
805.057	20670
805.199	20598
805.341	20598
805.483	20693
805.626	20598
805.768	20590
805.91	20663
806.052	20629
806.194	20530
806.336	20739
806.478	20530
806.62	20613
806.762	20655
806.904	20834
807.046	20998
807.188	20929
807.33	20891
807.472	21020
807.614	20899
807.756	20864
807.898	20724
808.04	20651
808.182	20530
808.324	20720
808.465	20594
808.607	20876
808.749	20979
808.891	21081
809.033	21020
809.174	21001
809.316	20906
809.458	20941
809.6	20963
809.741	21074
809.883	21074
810.025	21066
810.166	21104
810.308	20979
810.45	21017
810.591	21028
810.733	20686
810.875	20739
811.016	20705
811.158	20689
811.299	20826
811.441	20834
811.582	20918
811.724	20762
811.865	20575
812.007	20632
812.148	20693
812.29	20682
812.431	20864
812.573	21036
812.714	20960
812.855	21275
812.997	21332
813.138	21431
813.279	21237
813.421	21298
813.562	21237
813.703	20914
813.845	20982
813.986	20655
814.127	20469
814.268	20351
814.41	20313
814.551	20294
814.692	20278
814.833	20252
814.974	20214
815.115	20134
815.256	20176
815.397	20043
815.539	20229
815.68	19967
815.821	20027
815.962	20050
816.103	20005
816.244	19871
816.385	19852
816.526	19742
816.666	19540
816.807	19457
816.948	19502
817.089	19510
817.23	19472
817.371	19457
817.512	19426
817.653	19453
817.793	19339
817.934	19346
818.075	19460
818.216	19339
818.356	19419
818.497	19236
818.638	19031
818.778	19122
818.919	19133
819.06	19099
819.2	19251
819.341	19255
819.481	19213
819.622	19430
819.762	19552
819.903	19696
820.043	19472
820.184	19415
820.324	19247
820.465	19320
820.605	19308
820.746	19362
820.886	19152
821.026	19362
821.167	19335
821.307	19491
821.447	19213
821.588	19225
821.728	19103
821.868	18909
822.008	18768
822.149	18814
822.289	18707
822.429	18547
822.569	18467
822.709	18353
822.849	18277
822.99	18197
823.13	18323
823.27	18178
823.41	18064
823.55	18049
823.69	18045
823.83	17939
823.97	18011
824.11	17843
824.25	17893
824.389	17840
824.529	17901
824.669	17794
824.809	17912
824.949	17870
825.089	17923
825.228	17859
825.368	17703
825.508	17722
825.648	17623
825.787	17733
825.927	17646
826.067	17581
826.206	17600
826.346	17699
826.485	17676
826.625	17623
826.765	17630
826.904	17714
827.044	17398
827.183	17311
827.323	17280
827.462	17288
827.601	17322
827.741	17337
827.88	17303
828.02	17166
828.159	17273
828.298	17364
828.437	17360
828.577	17307
828.716	17444
828.855	17277
828.994	17136
829.134	17086
829.273	17090
829.412	17018
829.551	17029
829.69	17045
829.829	17143
829.968	17181
830.107	17048
830.246	17155
830.385	17098
830.524	17052
830.663	16927
830.802	16831
830.941	16748
831.08	16763
831.219	16843
831.357	16710
831.496	16908
831.635	16717
831.774	16656
831.913	16645
832.051	16542
832.19	16447
832.329	16580
832.467	16443
832.606	16352
832.744	16459
832.883	16390
833.022	16413
833.16	16413
833.299	16516
833.437	16462
833.576	16516
833.714	16500
833.852	16493
833.991	16443
834.129	16618
834.267	16481
834.406	16455
834.544	16497
834.682	16363
834.821	16455
834.959	16645
835.097	16451
835.235	16542
835.373	16508
835.511	16561
835.65	16421
835.788	16409
835.926	16268
836.064	16192
836.202	16207
836.34	16436
836.478	16531
836.615	16310
836.753	16413
836.891	16466
837.029	16398
837.167	16394
837.305	16314
837.443	16280
837.58	16211
837.718	16284
837.856	16295
837.993	16204
838.131	16207
838.269	16116
838.406	16185
838.544	16147
838.681	15991
838.819	15926
838.956	15873
839.094	15823
839.231	15880
839.369	15941
839.506	16246
839.643	16090
839.781	15922
839.918	15774
840.055	15766
840.193	15793
840.33	15762
840.467	15865
840.604	15838
840.742	15975
840.879	15671
841.016	15644
841.153	15709
841.29	16055
841.427	15892
841.564	15861
841.701	15831
841.838	15865
841.975	15732
842.112	15819
842.249	15584
842.385	15534
842.522	15778
842.659	15553
842.796	15606
842.933	15599
843.069	15580
843.206	15599
843.343	15724
843.479	15526
843.616	15564
843.752	15416
843.889	15507
844.025	15507
844.162	15363
844.298	15496
844.435	15382
844.571	15306
844.708	15397
844.844	15549
844.98	15542
845.117	15496
845.253	15336
845.389	15222
845.525	15249
845.661	15268
845.798	15161
845.934	15135
846.07	15104
846.206	15256
846.342	15233
846.478	15192
846.614	14952
846.75	14956
846.886	14842
847.022	15039
847.158	14929
847.294	14902
847.429	15001
847.565	14910
847.701	15230
847.837	14705
847.972	14678
848.108	14815
848.244	14777
848.379	14594
848.515	14549
848.65	14469
848.786	14541
848.921	14518
849.057	14648
849.192	14651
849.328	14484
849.463	14579
849.598	14552
849.734	14518
849.869	14431
850.004	14309
850.14	14404
850.275	14248
850.41	14271
850.545	14218
850.68	14301
850.815	14259
850.95	14347
851.085	14465
851.22	14385
851.355	14336
851.49	14305
851.625	14313
851.76	14252
851.895	14218
852.03	14168
852.165	14229
852.299	14313
852.434	14332
852.569	14347
852.703	14412
852.838	14377
852.973	14446
853.107	14457
853.242	14362
853.376	14244
853.511	14123
853.645	14164
853.78	14282
853.914	14233
854.048	14153
854.183	14123
854.317	14206
854.451	14419
854.585	14187
854.72	14142
854.854	14199
854.988	14027
855.122	14191
855.256	14077
855.39	14183
855.524	14214
855.658	14134
855.792	14218
855.926	14240
856.06	14263
856.194	14286
856.327	14195
856.461	14191
856.595	14103
856.729	14168
856.862	14305
856.996	14153
857.13	14237
857.263	14305
857.397	14290
857.53	14187
857.664	14298
857.797	14218
857.931	14259
858.064	14218
858.197	14408
858.331	14168
858.464	14149
858.597	14119
858.731	14229
858.864	14183
858.997	14164
859.13	14145
859.263	14218
859.396	14267
859.529	14168
859.662	14065
859.795	14237
859.928	14183
860.061	14332
860.194	14446
860.327	14206
860.46	14225
860.592	14252
860.725	14298
860.858	14393
860.99	14259
861.123	14081
861.256	14130
861.388	14161
861.521	14937
861.653	14199
861.786	14069
861.918	14039
862.05	14096
862.183	14126
862.315	14210
862.447	14218
862.58	14084
862.712	14092
862.844	13986
862.976	13993
863.108	14005
863.24	14347
863.372	13871
863.504	13947
863.636	13944
863.768	14077
863.9	13989
864.032	13974
864.164	13932
864.296	13963
864.428	14084
864.559	14096
864.691	14123
864.823	14130
864.954	13978
865.086	13993
865.217	14035
865.349	13909
865.48	13925
865.612	13997
865.743	14039
865.875	13978
866.006	13993
866.137	14001
866.269	13890
866.4	14008
866.531	14016
866.662	13890
866.793	13936
866.924	13921
867.055	13970
867.186	13989
867.317	13921
867.448	13807
867.579	13887
867.71	13860
867.841	13856
867.972	13974
868.103	13970
868.233	13967
868.364	13898
868.495	13993
868.625	14157
868.756	14351
868.886	14218
869.017	14252
869.147	14225
869.278	14317
869.408	14214
869.539	14256
869.669	14313
869.799	14298
869.929	14248
870.06	14366
870.19	14575
870.32	14556
870.45	14571
870.58	14503
870.71	14697
870.84	14716
870.97	14632
871.1	14575
871.23	14785
871.36	14830
871.489	14621
871.619	14739
871.749	14727
871.879	14765
872.008	14906
872.138	14819
872.267	14765
872.397	14750
872.526	14625
872.656	14606
872.785	14682
872.915	14792
873.044	14948
873.173	14838
873.303	14883
873.432	14948
873.561	14914
873.69	14937
873.819	14857
873.948	14921
874.077	14906
874.206	14849
874.335	14781
874.464	15093
874.593	15180
874.722	15077
874.851	15233
874.979	15214
875.108	15199
875.237	15188
875.365	15055
875.494	15097
875.623	15214
875.751	15150
875.88	15192
876.008	15237
876.136	15401
876.265	15557
876.393	15755
876.521	15603
876.65	15800
876.778	15762
876.906	15568
877.034	15591
877.162	15504
877.29	15447
877.418	15557
877.546	15538
877.674	15584
877.802	15564
877.93	15530
878.058	15447
878.185	15481
878.313	15526
878.441	15622
878.568	15526
878.696	15549
878.824	15682
878.951	15595
879.079	15819
879.206	15918
879.333	15679
879.461	15610
879.588	15797
879.715	15713
879.842	15892
879.97	15667
880.097	15519
880.224	15454
880.351	15435
880.478	15412
880.605	15401
880.732	15458
880.859	15736
880.986	15386
881.112	15469
881.239	15298
881.366	15260
881.493	15138
881.619	15039
881.746	15074
881.872	15047
881.999	15013
882.125	15001
882.252	15195
882.378	15214
882.505	15192
882.631	15081
882.757	14876
882.883	15013
883.01	14910
883.136	14819
883.262	14762
883.388	14731
883.514	14967
883.64	15020
883.766	14880
883.892	14853
884.018	14701
884.143	14838
884.269	15001
884.395	14701
884.52	14556
884.646	14625
884.772	14552
884.897	14526
885.023	14651
885.148	14697
885.274	14899
885.399	14697
885.524	14556
885.65	14629
885.775	14533
885.9	14587
886.025	14705
886.15	14727
886.275	14598
886.4	14579
886.525	14674
886.65	14434
886.775	14560
886.9	14712
887.025	14902
887.149	14629
887.274	14438
887.399	14408
887.523	14507
887.648	14313
887.773	14339
887.897	14549
888.021	14537
888.146	14442
888.27	14488
888.395	14587
888.519	14457
888.643	14469
888.767	14579
888.891	14343
889.015	14263
889.139	14419
889.263	14305
889.387	14480
889.511	14476
889.635	14393
889.759	14320
889.883	14218
890.006	14370
890.13	14423
890.254	14248
890.377	14214
890.501	14134
890.624	14142
890.748	14221
890.871	13993
890.995	13959
891.118	13970
891.241	14027
891.364	14054
891.488	14142
891.611	13955
891.734	14001
891.857	14126
891.98	13986
892.103	14130
892.226	14107
892.349	14027
892.471	13830
892.594	13913
892.717	14024
892.839	13978
892.962	14050
893.085	14119
893.207	14027
893.33	13811
893.452	13940
893.575	14050
893.697	14039
893.819	14195
893.941	14267
894.064	14191
894.186	13997
894.308	14020
894.43	14145
894.552	14195
894.674	14195
894.796	13982
894.918	14073
895.04	14039
895.161	14180
895.283	14081
895.405	14069
895.526	14027
895.648	14123
895.769	14130
895.891	14187
896.012	14263
896.134	14199
896.255	14183
896.376	14145
896.498	14107
896.619	14202
896.74	14259
896.861	14275
896.982	14625
897.103	14670
897.224	14613
897.345	14438
897.466	14374
897.587	14450
897.708	14571
897.828	14636
897.949	14423
898.07	14278
898.19	14362
898.311	14617
898.431	14442
898.552	14476
898.672	14651
898.792	14537
898.913	14518
899.033	14476
899.153	14393
899.273	14221
899.393	14282
899.513	14358
899.633	14442
899.753	14396
899.873	14332
899.993	14381
900.113	14484
900.232	14507
900.352	14275
900.472	14358
900.591	14180
900.711	14256
900.83	14161
900.95	14362
901.069	14465
901.189	14244
901.308	13993
901.427	13959
901.546	13967
901.665	13917
901.784	13906
901.904	13818
902.023	13769
902.141	13430
902.26	13495
902.379	13632
902.498	13521
902.617	13441
902.735	13556
902.854	13472
902.973	13434
903.091	13232
903.21	13213
903.328	13289
903.446	13057
903.565	13069
903.683	13050
903.801	12939
903.919	12932
904.038	13137
904.156	12871
904.274	12993
904.392	12795
904.51	12871
904.627	12878
904.745	12894
904.863	12939
904.981	12703
905.098	12551
905.216	12559
905.334	12642
905.451	12604
905.569	12544
905.686	12646
905.803	12563
905.921	12350
906.038	12490
906.155	12429
906.272	12266
906.389	12342
906.506	12251
906.623	12159
906.74	12251
906.857	12045
906.974	12091
907.091	12209
907.208	12391
907.324	12209
907.441	12102
907.557	12022
907.674	11840
907.79	11840
907.907	11813
908.023	11946
908.139	11878
908.256	11786
908.372	11904
908.488	11817
908.604	11668
908.72	11680
908.836	11653
908.952	11615
909.068	11733
909.184	11741
909.3	11608
909.415	11885
909.531	11722
909.647	11459
909.762	11410
909.878	11376
909.993	11425
910.108	11433
910.224	11387
910.339	11482
910.454	11326
910.57	11284
910.685	11197
910.8	11551
910.915	11452
911.03	11341
911.145	11140
911.259	11162
911.374	11201
911.489	11105
911.604	11060
911.718	10869
911.833	10927
911.947	10831
912.062	10835
912.176	10904
912.291	10869
912.405	10889
912.519	10972
912.633	11090
912.748	10987
912.862	10915
912.976	10748
913.09	10717
913.204	10759
913.318	10797
913.431	10854
913.545	10839
913.659	10900
913.772	10820
913.886	10664
914	10691
914.113	10721
914.226	10824
914.34	10801
914.453	10561
914.566	10733
914.68	10607
914.793	10603
914.906	10493
915.019	10360
915.132	10352
915.245	10390
915.358	10508
915.47	10455
915.583	10417
915.696	10436
915.809	10535
915.921	10531
916.034	10424
916.146	10455
916.259	10379
916.371	10558
916.483	10474
916.595	10306
916.708	10409
916.82	10356
916.932	10303
917.044	10344
917.156	10295
917.268	10234
917.38	10284
917.491	10246
917.603	10291
917.715	10409
917.826	10379
917.938	10188
918.049	10139
918.161	10303
918.272	10398
918.384	10341
918.495	10268
918.606	10188
918.717	10074
918.828	10185
918.939	10105
919.05	10040
919.161	10112
919.272	9941
919.383	10006
919.494	10185
919.604	10382
919.715	10192
919.826	10002
919.936	10071
920.047	10162
920.157	10173
920.267	10386
920.378	10185
920.488	10158
920.598	10329
920.708	10497
920.818	10371
920.928	10310
921.038	10577
921.148	10459
921.258	10249
921.368	10166
921.477	10059
921.587	10029
921.697	9911
921.806	10082
921.916	9968
922.025	9804
922.134	9694
922.244	9682
922.353	9808
922.462	9644
922.571	9481
922.68	9408
922.789	9450
922.898	9526
923.007	9317
923.116	9454
923.224	9454
923.333	9348
923.442	9340
923.55	9268
923.659	9287
923.767	9336
923.876	9306
923.984	9359
924.092	9237
924.201	9329
924.309	9241
924.417	9332
924.525	9192
924.633	9294
924.741	10150
924.849	9047
924.956	9218
925.064	9005
925.172	9028
925.279	9039
925.387	9119
925.494	9043
925.602	9207
925.709	9165
925.816	9001
925.924	9138
926.031	9154
926.138	9077
926.245	9173
926.352	9001
926.459	9146
926.566	9253
926.673	9001
926.779	8971
926.886	8921
926.993	8754
927.099	8788
927.206	8804
927.312	8724
927.419	8910
927.525	8830
927.631	8838
927.737	8670
927.843	8648
927.95	8579
928.056	8712
928.162	8678
928.267	8712
928.373	9275
928.479	8781
928.585	8606
928.69	8689
928.796	8682
928.901	8594
929.007	8514
929.112	8590
929.218	8526
929.323	8526
929.428	8427
929.533	8644
929.638	8427
929.743	8457
929.848	8530
929.953	8473
930.058	8457
930.163	8214
930.267	8290
930.372	8476
930.477	8145
930.581	8522
930.685	8324
930.79	8199
930.894	8271
930.998	8199
931.103	8328
931.207	8012
931.311	7993
931.415	7890
931.519	7746
931.623	7719
