Data from test_V78500241_1025.txt Node
Date: Fri Mar 25 14:40:51 CST 2022
User: usil
Spectrometer: V785-0024
Trigger mode: 0
Integration Time (sec): 4.000000E-1
Scans to average: 1
Nonlinearity correction enabled: false
Boxcar width: 0
Storing dark spectrum: false
XAxis mode: Wavelengths
Number of Pixels in Spectrum: 1024
>>>>>Begin Spectral Data<<<<<
801.071	22854
801.214	22862
801.356	22622
801.499	22478
801.641	22447
801.783	22268
801.926	22295
802.068	22291
802.211	22025
802.353	22090
802.496	21705
802.638	21793
802.78	21724
802.923	21751
803.065	21660
803.208	21679
803.35	21713
803.492	21694
803.635	21793
803.777	21618
803.919	21743
804.061	22002
804.204	21728
804.346	21580
804.488	21542
804.63	21633
804.773	21583
804.915	21694
805.057	21606
805.199	21549
805.341	21660
805.483	21736
805.626	21648
805.768	21606
805.91	21652
806.052	21816
806.194	21599
806.336	21915
806.478	21766
806.62	21732
806.762	21793
806.904	21899
807.046	22101
807.188	22021
807.33	22086
807.472	22196
807.614	22055
807.756	22173
807.898	22036
808.04	22032
808.182	21975
808.324	22238
808.465	22371
808.607	22694
808.749	22740
808.891	22995
809.033	23025
809.174	22911
809.316	22771
809.458	22634
809.6	22409
809.741	22424
809.883	22527
810.025	22375
810.166	22238
810.308	22352
810.45	22310
810.591	22196
810.733	22055
810.875	21903
811.016	21861
811.158	21800
811.299	21949
811.441	21964
811.582	22109
811.724	21972
811.865	21789
812.007	21724
812.148	21751
812.29	21911
812.431	21895
812.573	22051
812.714	22238
812.855	22306
812.997	22485
813.138	22504
813.279	22451
813.421	22379
813.562	22295
813.703	22147
813.845	21934
813.986	21705
814.127	21526
814.268	21591
814.41	21416
814.551	21428
814.692	21340
814.833	21207
814.974	21374
815.115	21340
815.256	21154
815.397	21154
815.539	21218
815.68	21108
815.821	21119
815.962	21100
816.103	21104
816.244	20937
816.385	20941
816.526	20689
816.666	20769
816.807	20415
816.948	20530
817.089	20587
817.23	20526
817.371	20503
817.512	20518
817.653	20507
817.793	20594
817.934	20606
818.075	20423
818.216	20583
818.356	20503
818.497	20301
818.638	20161
818.778	20195
818.919	20263
819.06	20214
819.2	20317
819.341	20347
819.481	20328
819.622	20651
819.762	20587
819.903	20670
820.043	20583
820.184	20374
820.324	20541
820.465	20473
820.605	20370
820.746	20537
820.886	20233
821.026	20442
821.167	20484
821.307	20427
821.447	20473
821.588	20244
821.728	20244
821.868	20084
822.008	19814
822.149	19890
822.289	19845
822.429	19628
822.569	19491
822.709	19582
822.849	19346
822.99	19362
823.13	19430
823.27	19244
823.41	19148
823.55	19080
823.69	19198
823.83	19171
823.97	19168
824.11	19065
824.25	18943
824.389	18970
824.529	19019
824.669	18920
824.809	19053
824.949	19053
825.089	19034
825.228	19027
825.368	18840
825.508	18726
825.648	18806
825.787	18772
825.927	18882
826.067	18734
826.206	18734
826.346	18795
826.485	18817
826.625	18669
826.765	18966
826.904	18753
827.044	18517
827.183	18608
827.323	18479
827.462	18517
827.601	18456
827.741	18407
827.88	18570
828.02	18292
828.159	18388
828.298	18475
828.437	18467
828.577	18467
828.716	18460
828.855	18292
828.994	18213
829.134	18182
829.273	18224
829.412	18171
829.551	18163
829.69	18273
829.829	18186
829.968	18350
830.107	18205
830.246	18121
830.385	18163
830.524	18087
830.663	18091
830.802	17912
830.941	17893
831.08	17805
831.219	17901
831.357	17984
831.496	18064
831.635	17783
831.774	17699
831.913	17733
832.051	17585
832.19	17615
832.329	17562
832.467	17493
832.606	17436
832.744	17497
832.883	17573
833.022	17433
833.16	17497
833.299	17532
833.437	17672
833.576	17497
833.714	17551
833.852	17729
833.991	17630
834.129	17657
834.267	17668
834.406	17718
834.544	17668
834.682	17562
834.821	17554
834.959	17752
835.097	17558
835.235	17627
835.373	17589
835.511	17573
835.65	17463
835.788	17440
835.926	17318
836.064	17353
836.202	17277
836.34	17452
836.478	17440
836.615	17402
836.753	17493
836.891	17596
837.029	17505
837.167	17356
837.305	17296
837.443	17356
837.58	17212
837.718	17391
837.856	17307
837.993	17193
838.131	17303
838.269	17250
838.406	17189
838.544	17208
838.681	16976
838.819	17037
838.956	16869
839.094	16850
839.231	16835
839.369	17006
839.506	17075
839.643	17086
839.781	16896
839.918	16873
840.055	16915
840.193	16873
840.33	16854
840.467	16877
840.604	16869
840.742	17025
840.879	16805
841.016	16694
841.153	16713
841.29	16984
841.427	16805
841.564	16809
841.701	16900
841.838	16755
841.975	16698
842.112	16622
842.249	16634
842.385	16546
842.522	16885
842.659	16645
842.796	16508
842.933	16694
843.069	16550
843.206	16596
843.343	16649
843.479	16542
843.616	16554
843.752	16352
843.889	16367
844.025	16535
844.162	16367
844.298	16550
844.435	16382
844.571	16299
844.708	16390
844.844	16592
844.98	16637
845.117	16603
845.253	16512
845.389	16474
845.525	16653
845.661	16767
845.798	16949
845.934	17147
846.07	17311
846.206	17299
846.342	17246
846.478	16828
846.614	16360
846.75	16158
846.886	16036
847.022	16071
847.158	15972
847.294	15968
847.429	15979
847.565	15956
847.701	16188
847.837	15739
847.972	15663
848.108	15789
848.244	15732
848.379	15656
848.515	15515
848.65	15477
848.786	15572
848.921	15603
849.057	15618
849.192	15629
849.328	15637
849.463	15603
849.598	15458
849.734	15408
849.869	15378
850.004	15195
850.14	15439
850.275	15348
850.41	15218
850.545	15203
850.68	15302
850.815	15306
850.95	15298
851.085	15439
851.22	15401
851.355	15336
851.49	15332
851.625	15222
851.76	15351
851.895	15195
852.03	15146
852.165	15207
852.299	15306
852.434	15336
852.569	15336
852.703	15344
852.838	15317
852.973	15507
853.107	15374
853.242	15291
853.376	15195
853.511	15009
853.645	15051
853.78	15157
853.914	15222
854.048	15058
854.183	15214
854.317	15207
854.451	15321
854.585	15169
854.72	15108
854.854	15252
854.988	15047
855.122	15112
855.256	14963
855.39	15074
855.524	15275
855.658	15157
855.792	15237
855.926	15237
856.06	15165
856.194	15321
856.327	15214
856.461	15146
856.595	15032
856.729	15104
856.862	15230
856.996	15161
857.13	15180
857.263	15275
857.397	15218
857.53	15230
857.664	15222
857.797	15237
857.931	15302
858.064	15211
858.197	15363
858.331	15157
858.464	15161
858.597	15051
858.731	15093
858.864	15184
858.997	15077
859.13	15192
859.263	15146
859.396	15188
859.529	15203
859.662	15203
859.795	15138
859.928	15154
860.061	15310
860.194	15336
860.327	15192
860.46	15108
860.592	15264
860.725	15340
860.858	15275
860.99	15108
861.123	15112
861.256	15039
861.388	15211
861.521	15766
861.653	15020
861.786	14918
861.918	15028
862.05	15043
862.183	15017
862.315	15055
862.447	15207
862.58	15085
862.712	15089
862.844	14857
862.976	15036
863.108	14994
863.24	15291
863.372	14826
863.504	14918
863.636	14880
863.768	14986
863.9	14933
864.032	14800
864.164	14918
864.296	14994
864.428	14979
864.559	15024
864.691	15051
864.823	14872
864.954	14792
865.086	14899
865.217	14788
865.349	14853
865.48	14838
865.612	14826
865.743	15020
865.875	14960
866.006	14857
866.137	14830
866.269	14826
866.4	14830
866.531	14815
866.662	14834
866.793	14739
866.924	14872
867.055	14895
867.186	14914
867.317	14800
867.448	14693
867.579	14861
867.71	14750
867.841	14781
867.972	14918
868.103	14826
868.233	14861
868.364	14876
868.495	14864
868.625	15119
868.756	15222
868.886	15013
869.017	15123
869.147	15199
869.278	15287
869.408	15089
869.539	15116
869.669	15176
869.799	15256
869.929	15226
870.06	15233
870.19	15408
870.32	15389
870.45	15428
870.58	15599
870.71	15572
870.84	15618
870.97	15549
871.1	15542
871.23	15717
871.36	15739
871.489	15660
871.619	15679
871.749	15739
871.879	15789
872.008	15797
872.138	15713
872.267	15713
872.397	15614
872.526	15599
872.656	15538
872.785	15564
872.915	15663
873.044	15785
873.173	15720
873.303	15819
873.432	15751
873.561	15846
873.69	15880
873.819	15736
873.948	15804
874.077	15823
874.206	15720
874.335	15762
874.464	15956
874.593	16017
874.722	16017
874.851	16150
874.979	16017
875.108	16135
875.237	16051
875.365	16006
875.494	16006
875.623	16158
875.751	16067
875.88	16158
876.008	16192
876.136	16379
876.265	16443
876.393	16668
876.521	16603
876.65	16668
876.778	16519
876.906	16493
877.034	16421
877.162	16474
877.29	16386
877.418	16516
877.546	16481
877.674	16531
877.802	16500
877.93	16527
878.058	16485
878.185	16451
878.313	16538
878.441	16618
878.568	16344
878.696	16531
878.824	16668
878.951	16736
879.079	16930
879.206	17086
879.333	17029
879.461	17018
879.588	17045
879.715	17246
879.842	17265
879.97	17033
880.097	16755
880.224	16531
880.351	16584
880.478	16527
880.605	16405
880.732	16386
880.859	16637
880.986	16470
881.112	16558
881.239	16333
881.366	16211
881.493	16116
881.619	16120
881.746	16185
881.872	16120
881.999	16169
882.125	16029
882.252	16219
882.378	16093
882.505	16322
882.631	16059
882.757	15922
882.883	16010
883.01	15968
883.136	15880
883.262	15804
883.388	15846
883.514	15899
883.64	16040
883.766	15934
883.892	15770
884.018	15682
884.143	15979
884.269	16029
884.395	15720
884.52	15500
884.646	15606
884.772	15663
884.897	15454
885.023	15656
885.148	15694
885.274	15747
885.399	15698
885.524	15679
885.65	15568
885.775	15595
885.9	15595
886.025	15728
886.15	15648
886.275	15545
886.4	15466
886.525	15519
886.65	15466
886.775	15488
886.9	15739
887.025	15663
887.149	15610
887.274	15431
887.399	15313
887.523	15325
887.648	15291
887.773	15313
887.897	15424
888.021	15439
888.146	15416
888.27	15500
888.395	15542
888.519	15382
888.643	15454
888.767	15500
888.891	15252
889.015	15195
889.139	15287
889.263	15180
889.387	15348
889.511	15340
889.635	15310
889.759	15252
889.883	15119
890.006	15226
890.13	15313
890.254	15051
890.377	15032
890.501	14979
890.624	14986
890.748	15036
890.871	14895
890.995	14838
891.118	14743
891.241	14857
891.364	14941
891.488	14925
891.611	14815
891.734	14842
891.857	15005
891.98	14906
892.103	14902
892.226	15017
892.349	14819
892.471	14739
892.594	14823
892.717	14895
892.839	14731
892.962	14853
893.085	14998
893.207	14895
893.33	14716
893.452	14796
893.575	14868
893.697	14785
893.819	15017
893.941	15058
894.064	14998
894.186	14864
894.308	14765
894.43	14906
894.552	15036
894.674	15024
894.796	14849
894.918	14948
895.04	14804
895.161	15024
895.283	15028
895.405	14800
895.526	14872
895.648	14925
895.769	15013
895.891	15036
896.012	15085
896.134	15058
896.255	15005
896.376	14876
896.498	15024
896.619	15024
896.74	14891
896.861	15058
896.982	15332
897.103	15481
897.224	15192
897.345	15222
897.466	15138
897.587	15199
897.708	15386
897.828	15321
897.949	15230
898.07	15093
898.19	15264
898.311	15325
898.431	15321
898.552	15336
898.672	15408
898.792	15405
898.913	15336
899.033	15203
899.153	15169
899.273	15116
899.393	15180
899.513	15070
899.633	15165
899.753	15203
899.873	15123
899.993	15192
900.113	15142
900.232	15165
900.352	15097
900.472	15165
900.591	14990
900.711	15005
900.83	14925
900.95	15161
901.069	15195
901.189	14982
901.308	14682
901.427	14689
901.546	14701
901.665	14796
901.784	14773
901.904	14678
902.023	14446
902.141	14294
902.26	14393
902.379	14396
902.498	14183
902.617	14149
902.735	14309
902.854	14199
902.973	14180
903.091	13951
903.21	13986
903.328	14020
903.446	13928
903.565	13807
903.683	13818
903.801	13731
903.919	13738
904.038	13765
904.156	13540
904.274	13632
904.392	13499
904.51	13609
904.627	13563
904.745	13548
904.863	13742
904.981	13415
905.098	13194
905.216	13194
905.334	13316
905.451	13316
905.569	13236
905.686	13320
905.803	13304
905.921	13149
906.038	13202
906.155	13133
906.272	13000
906.389	13141
906.506	12787
906.623	12920
906.74	12901
906.857	12753
906.974	12730
907.091	12894
907.208	13012
907.324	12897
907.441	12802
907.557	12585
907.674	12608
907.79	12620
907.907	12547
908.023	12555
908.139	12616
908.256	12536
908.372	12456
908.488	12494
908.604	12342
908.72	12247
908.836	12315
908.952	12369
909.068	12334
909.184	12407
909.3	12338
909.415	12346
909.531	12334
909.647	12117
909.762	12133
909.878	12106
909.993	12125
910.108	12079
910.224	12079
910.339	12064
910.454	11961
910.57	11965
910.685	11988
910.8	12262
910.915	12171
911.03	11908
911.145	11828
911.259	11817
911.374	11859
911.489	11703
911.604	11703
911.718	11589
911.833	11615
911.947	11429
912.062	11376
912.176	11558
912.291	11490
912.405	11452
912.519	11726
912.633	11786
912.748	11551
912.862	11604
912.976	11471
913.09	11269
913.204	11410
913.318	11417
913.431	11581
913.545	11482
913.659	11608
913.772	11524
913.886	11292
914	11250
914.113	11417
914.226	11345
914.34	11284
914.453	11178
914.566	11387
914.68	11269
914.793	11265
914.906	11109
915.019	10972
915.132	10877
915.245	10976
915.358	10953
915.47	11048
915.583	11105
915.696	11102
915.809	11143
915.921	11147
916.034	11014
916.146	10919
916.259	10835
916.371	11071
916.483	10984
916.595	10850
916.708	10938
916.82	10896
916.932	11003
917.044	10923
917.156	10873
917.268	10854
917.38	10873
917.491	10774
917.603	10854
917.715	10953
917.826	10927
917.938	10797
918.049	10702
918.161	10809
918.272	10927
918.384	10911
918.495	10900
918.606	10717
918.717	10580
918.828	10691
918.939	10729
919.05	10637
919.161	10683
919.272	10504
919.383	10546
919.494	10744
919.604	10911
919.715	10641
919.826	10630
919.936	10706
920.047	10752
920.157	10714
920.267	10839
920.378	10729
920.488	10656
920.598	10900
920.708	11033
920.818	10927
920.928	10866
921.038	11048
921.148	10961
921.258	10771
921.368	10683
921.477	10569
921.587	10558
921.697	10424
921.806	10679
921.916	10424
922.025	10295
922.134	10230
922.244	10196
922.353	10287
922.462	10116
922.571	10128
922.68	9975
922.789	9884
922.898	9922
923.007	9835
923.116	9941
923.224	9964
923.333	9892
923.442	9854
923.55	9778
923.659	9808
923.767	9941
923.876	9812
923.984	9861
924.092	9743
924.201	9800
924.309	9808
924.417	9762
924.525	9720
924.633	9755
924.741	10710
924.849	9519
924.956	9667
925.064	9576
925.172	9515
925.279	9568
925.387	9500
925.494	9629
925.602	9694
925.709	9633
925.816	9507
925.924	9557
926.031	9682
926.138	9564
926.245	9572
926.352	9462
926.459	9671
926.566	9618
926.673	9454
926.779	9397
926.886	9408
926.993	9241
927.099	9249
927.206	9161
927.312	9222
927.419	9344
927.525	9313
927.631	9294
927.737	9195
927.843	9207
927.95	9013
928.056	9161
928.162	9169
928.267	9184
928.373	9720
928.479	9260
928.585	8967
928.69	9173
928.796	9222
928.901	9051
929.007	8963
929.112	9017
929.218	9028
929.323	8982
929.428	9005
929.533	9062
929.638	8982
929.743	8929
929.848	8899
929.953	8929
930.058	8792
930.163	8746
930.267	8689
930.372	8925
930.477	8693
930.581	8921
930.685	8804
930.79	8686
930.894	8724
930.998	8701
931.103	8811
931.207	8457
931.311	8423
931.415	8240
931.519	8123
931.623	8115
