Data from test_V78500241_1035.txt Node
Date: Fri Mar 25 14:40:55 CST 2022
User: usil
Spectrometer: V785-0024
Trigger mode: 0
Integration Time (sec): 4.000000E-1
Scans to average: 1
Nonlinearity correction enabled: false
Boxcar width: 0
Storing dark spectrum: false
XAxis mode: Wavelengths
Number of Pixels in Spectrum: 1024
>>>>>Begin Spectral Data<<<<<
801.071	22839
801.214	22801
801.356	22584
801.499	22413
801.641	22322
801.783	22147
801.926	22246
802.068	22124
802.211	22150
802.353	22025
802.496	21907
802.638	21816
802.78	21591
802.923	21682
803.065	21701
803.208	21572
803.35	21485
803.492	21667
803.635	21804
803.777	21614
803.919	21694
804.061	21884
804.204	21656
804.346	21599
804.488	21386
804.63	21473
804.773	21496
804.915	21652
805.057	21595
805.199	21519
805.341	21709
805.483	21519
805.626	21774
805.768	21469
805.91	21504
806.052	21614
806.194	21462
806.336	21717
806.478	21713
806.62	21553
806.762	21660
806.904	21838
807.046	22036
807.188	21934
807.33	21907
807.472	22120
807.614	21994
807.756	22029
807.898	21854
808.04	21895
808.182	21899
808.324	22131
808.465	22169
808.607	22489
808.749	22660
808.891	22828
809.033	22946
809.174	22786
809.316	22493
809.458	22531
809.6	22417
809.741	22382
809.883	22139
810.025	22356
810.166	22382
810.308	22284
810.45	22276
810.591	22105
810.733	21998
810.875	21804
811.016	21846
811.158	21789
811.299	21831
811.441	21983
811.582	21892
811.724	21660
811.865	21759
812.007	21701
812.148	21701
812.29	21880
812.431	21956
812.573	22021
812.714	22177
812.855	22246
812.997	22447
813.138	22565
813.279	22375
813.421	22394
813.562	22246
813.703	21911
813.845	22013
813.986	21652
814.127	21450
814.268	21477
814.41	21389
814.551	21336
814.692	21344
814.833	21184
814.974	21260
815.115	21302
815.256	21112
815.397	21169
815.539	21260
815.68	21001
815.821	20918
815.962	20948
816.103	20899
816.244	20880
816.385	20834
816.526	20834
816.666	20670
816.807	20469
816.948	20579
817.089	20541
817.23	20514
817.371	20503
817.512	20442
817.653	20381
817.793	20480
817.934	20461
818.075	20495
818.216	20560
818.356	20396
818.497	20339
818.638	20142
818.778	20145
818.919	20107
819.06	20233
819.2	20313
819.341	20427
819.481	20248
819.622	20419
819.762	20549
819.903	20609
820.043	20522
820.184	20511
820.324	20476
820.465	20537
820.605	20499
820.746	20446
820.886	20393
821.026	20522
821.167	20355
821.307	20446
821.447	20355
821.588	20351
821.728	20050
821.868	20081
822.008	19833
822.149	19849
822.289	19811
822.429	19540
822.569	19476
822.709	19556
822.849	19289
822.99	19320
823.13	19259
823.27	19293
823.41	19168
823.55	19133
823.69	19103
823.83	19088
823.97	19080
824.11	18954
824.25	18821
824.389	18973
824.529	18909
824.669	19012
824.809	19034
824.949	18913
825.089	19076
825.228	18897
825.368	18745
825.508	18795
825.648	18703
825.787	18814
825.927	18578
826.067	18738
826.206	18555
826.346	18768
826.485	18760
826.625	18753
826.765	18646
826.904	18734
827.044	18467
827.183	18467
827.323	18346
827.462	18323
827.601	18342
827.741	18262
827.88	18399
828.02	18133
828.159	18361
828.298	18437
828.437	18353
828.577	18315
828.716	18483
828.855	18285
828.994	18194
829.134	18174
829.273	18163
829.412	18152
829.551	17969
829.69	18121
829.829	18163
829.968	18144
830.107	18155
830.246	18019
830.385	18019
830.524	18038
830.663	17748
830.802	17756
830.941	17775
831.08	17779
831.219	17821
831.357	17767
831.496	18026
831.635	17676
831.774	17661
831.913	17615
832.051	17497
832.19	17573
832.329	17554
832.467	17467
832.606	17383
832.744	17391
832.883	17497
833.022	17395
833.16	17440
833.299	17547
833.437	17589
833.576	17417
833.714	17524
833.852	17695
833.991	17532
834.129	17646
834.267	17562
834.406	17532
834.544	17566
834.682	17596
834.821	17433
834.959	17646
835.097	17471
835.235	17600
835.373	17528
835.511	17490
835.65	17395
835.788	17486
835.926	17189
836.064	17299
836.202	17349
836.34	17478
836.478	17463
836.615	17402
836.753	17414
836.891	17535
837.029	17512
837.167	17364
837.305	17452
837.443	17318
837.58	17242
837.718	17315
837.856	17258
837.993	17212
838.131	17269
838.269	17159
838.406	17094
838.544	17147
838.681	17086
838.819	16923
838.956	16934
839.094	16740
839.231	16816
839.369	16995
839.506	17223
839.643	17090
839.781	16976
839.918	16763
840.055	16858
840.193	16847
840.33	16831
840.467	16786
840.604	16919
840.742	17067
840.879	16748
841.016	16801
841.153	16641
841.29	16915
841.427	16866
841.564	16812
841.701	16854
841.838	16854
841.975	16664
842.112	16592
842.249	16584
842.385	16626
842.522	16694
842.659	16596
842.796	16592
842.933	16645
843.069	16504
843.206	16485
843.343	16527
843.479	16558
843.616	16584
843.752	16299
843.889	16386
844.025	16516
844.162	16348
844.298	16500
844.435	16272
844.571	16402
844.708	16402
844.844	16478
844.98	16531
845.117	16500
845.253	16455
845.389	16428
845.525	16554
845.661	16767
845.798	16790
845.934	17014
846.07	17033
846.206	17147
846.342	17094
846.478	16641
846.614	16436
846.75	16093
846.886	16025
847.022	16109
847.158	15892
847.294	15983
847.429	15937
847.565	15865
847.701	16116
847.837	15770
847.972	15591
848.108	15652
848.244	15675
848.379	15591
848.515	15469
848.65	15500
848.786	15473
848.921	15618
849.057	15618
849.192	15652
849.328	15504
849.463	15500
849.598	15587
849.734	15378
849.869	15283
850.004	15272
850.14	15416
850.275	15351
850.41	15245
850.545	15173
850.68	15249
850.815	15237
850.95	15252
851.085	15332
851.22	15370
851.355	15199
851.49	15245
851.625	15226
851.76	15256
851.895	15157
852.03	15104
852.165	15233
852.299	15359
852.434	15283
852.569	15294
852.703	15306
852.838	15469
852.973	15412
853.107	15348
853.242	15306
853.376	15116
853.511	15074
853.645	15055
853.78	15245
853.914	15066
854.048	15207
854.183	15077
854.317	15142
854.451	15279
854.585	15154
854.72	15104
854.854	15237
854.988	14941
855.122	15070
855.256	15043
855.39	15077
855.524	15252
855.658	15062
855.792	15123
855.926	15112
856.06	15112
856.194	15222
856.327	15184
856.461	14956
856.595	15127
856.729	15135
856.862	15203
856.996	15180
857.13	15214
857.263	15332
857.397	15256
857.53	15108
857.664	15226
857.797	15222
857.931	15233
858.064	15123
858.197	15195
858.331	15112
858.464	15047
858.597	15032
858.731	15154
858.864	15074
858.997	15100
859.13	15123
859.263	15218
859.396	15218
859.529	15062
859.662	15112
859.795	15218
859.928	15131
860.061	15336
860.194	15329
860.327	15176
860.46	15112
860.592	15260
860.725	15291
860.858	15230
860.99	15135
861.123	15066
861.256	15039
861.388	15165
861.521	15751
861.653	15017
861.786	14891
861.918	14937
862.05	15028
862.183	14975
862.315	15077
862.447	15165
862.58	15097
862.712	14796
862.844	14838
862.976	14941
863.108	14952
863.24	15283
863.372	14811
863.504	14933
863.636	14819
863.768	14982
863.9	14830
864.032	14765
864.164	14876
864.296	14948
864.428	14914
864.559	15005
864.691	14941
864.823	14914
864.954	14902
865.086	15020
865.217	14872
865.349	14796
865.48	14868
865.612	14914
865.743	14986
865.875	15017
866.006	14830
866.137	14868
866.269	14826
866.4	14834
866.531	14834
866.662	14796
866.793	14838
866.924	14842
867.055	14902
867.186	14899
867.317	14914
867.448	14651
867.579	14769
867.71	14712
867.841	14857
867.972	14834
868.103	14895
868.233	14902
868.364	14781
868.495	14902
868.625	15028
868.756	15180
868.886	15089
869.017	14979
869.147	15142
869.278	15131
869.408	15051
869.539	15085
869.669	15211
869.799	15157
869.929	15192
870.06	15256
870.19	15439
870.32	15458
870.45	15313
870.58	15526
870.71	15618
870.84	15584
870.97	15450
871.1	15370
871.23	15572
871.36	15610
871.489	15519
871.619	15648
871.749	15633
871.879	15698
872.008	15827
872.138	15698
872.267	15629
872.397	15561
872.526	15511
872.656	15485
872.785	15545
872.915	15694
873.044	15747
873.173	15739
873.303	15751
873.432	15724
873.561	15831
873.69	15774
873.819	15793
873.948	15698
874.077	15785
874.206	15705
874.335	15686
874.464	15915
874.593	15987
874.722	15884
874.851	16139
874.979	15960
875.108	16105
875.237	15941
875.365	16074
875.494	16021
875.623	16192
875.751	15899
875.88	16093
876.008	16238
876.136	16223
876.265	16497
876.393	16500
876.521	16558
876.65	16447
876.778	16489
876.906	16421
877.034	16367
877.162	16421
877.29	16493
877.418	16459
877.546	16535
877.674	16504
877.802	16478
877.93	16428
878.058	16481
878.185	16417
878.313	16580
878.441	16527
878.568	16360
878.696	16428
878.824	16630
878.951	16752
879.079	16786
879.206	17003
879.333	16942
879.461	16919
879.588	16980
879.715	17041
879.842	17128
879.97	16930
880.097	16622
880.224	16440
880.351	16558
880.478	16569
880.605	16402
880.732	16436
880.859	16641
880.986	16447
881.112	16360
881.239	16322
881.366	16230
881.493	16158
881.619	16154
881.746	16196
881.872	16040
881.999	16086
882.125	15987
882.252	16071
882.378	16071
882.505	16124
882.631	16051
882.757	15937
882.883	15941
883.01	15873
883.136	15785
883.262	15629
883.388	15728
883.514	15934
883.64	15930
883.766	15842
883.892	15637
884.018	15778
884.143	15816
884.269	15983
884.395	15644
884.52	15485
884.646	15637
884.772	15504
884.897	15496
885.023	15625
885.148	15656
885.274	15610
885.399	15591
885.524	15450
885.65	15599
885.775	15656
885.9	15599
886.025	15648
886.15	15625
886.275	15591
886.4	15462
886.525	15523
886.65	15393
886.775	15530
886.9	15652
887.025	15827
887.149	15580
887.274	15393
887.399	15355
887.523	15283
887.648	15291
887.773	15237
887.897	15408
888.021	15294
888.146	15272
888.27	15389
888.395	15488
888.519	15336
888.643	15393
888.767	15420
888.891	15287
889.015	15195
889.139	15233
889.263	15085
889.387	15249
889.511	15355
889.635	15279
889.759	15108
889.883	15173
890.006	15211
890.13	15302
890.254	15093
890.377	15089
890.501	14857
890.624	14998
890.748	15062
890.871	14864
890.995	14861
891.118	14693
891.241	14933
891.364	14857
891.488	14967
891.611	14853
891.734	14891
891.857	14800
891.98	14868
892.103	14838
892.226	14887
892.349	14754
892.471	14792
892.594	14712
892.717	14849
892.839	14769
892.962	14796
893.085	14845
893.207	14758
893.33	14765
893.452	14765
893.575	14819
893.697	14708
893.819	14956
893.941	14982
894.064	14982
894.186	14864
894.308	14807
894.43	14925
894.552	14925
894.674	14929
894.796	14758
894.918	14807
895.04	14823
895.161	14910
895.283	14979
895.405	14739
895.526	14910
895.648	14868
895.769	14929
895.891	15024
896.012	15024
896.134	14986
896.255	14937
896.376	14899
896.498	14891
896.619	14944
896.74	14944
896.861	15066
896.982	15313
897.103	15450
897.224	15287
897.345	15199
897.466	15119
897.587	15222
897.708	15329
897.828	15176
897.949	15211
898.07	15093
898.19	15161
898.311	15340
898.431	15291
898.552	15249
898.672	15428
898.792	15386
898.913	15367
899.033	15237
899.153	15226
899.273	15093
899.393	15058
899.513	15252
899.633	15272
899.753	15142
899.873	15131
899.993	15264
900.113	15085
900.232	15020
900.352	15252
900.472	14967
900.591	14929
900.711	14952
900.83	15116
900.95	15112
901.069	15074
901.189	14933
901.308	14804
901.427	14629
901.546	14678
901.665	14735
901.784	14686
901.904	14473
902.023	14560
902.141	14313
902.26	14191
902.379	14290
902.498	14237
902.617	14199
902.735	14237
902.854	14256
902.973	14237
903.091	13989
903.21	14050
903.328	13940
903.446	13833
903.565	13830
903.683	13803
903.801	13715
903.919	13753
904.038	13753
904.156	13518
904.274	13639
904.392	13567
904.51	13510
904.627	13609
904.745	13582
904.863	13636
904.981	13339
905.098	13263
905.216	13278
905.334	13259
905.451	13259
905.569	13225
905.686	13217
905.803	13209
905.921	13088
906.038	13183
906.155	13046
906.272	13031
906.389	13023
906.506	12787
906.623	12859
906.74	12901
906.857	12715
906.974	12814
907.091	12837
907.208	12932
907.324	12886
907.441	12734
907.557	12620
907.674	12677
907.79	12452
907.907	12528
908.023	12616
908.139	12639
908.256	12555
908.372	12437
908.488	12517
908.604	12365
908.72	12281
908.836	12308
908.952	12296
909.068	12346
909.184	12464
909.3	12292
909.415	12410
909.531	12304
909.647	12049
909.762	12110
909.878	12022
909.993	12030
910.108	12019
910.224	12045
910.339	12144
910.454	12003
910.57	11923
910.685	11843
910.8	12194
910.915	12117
911.03	11980
911.145	11767
911.259	11798
911.374	11809
911.489	11809
911.604	11615
911.718	11520
911.833	11509
911.947	11421
912.062	11315
912.176	11482
912.291	11589
912.405	11524
912.519	11714
912.633	11741
912.748	11581
912.862	11532
912.976	11455
913.09	11292
913.204	11360
913.318	11471
913.431	11436
913.545	11482
913.659	11501
913.772	11372
913.886	11341
914	11288
914.113	11387
914.226	11395
914.34	11341
914.453	11231
914.566	11303
914.68	11201
914.793	11185
914.906	11025
915.019	11041
915.132	10949
915.245	10991
915.358	11041
915.47	11079
915.583	10987
915.696	11075
915.809	11105
915.921	11189
916.034	10923
916.146	10946
916.259	10957
916.371	11037
916.483	11033
916.595	10900
916.708	10968
916.82	10900
916.932	10824
917.044	10984
917.156	10900
917.268	10824
917.38	10866
917.491	10847
917.603	10771
917.715	10847
917.826	10881
917.938	10759
918.049	10626
918.161	10847
918.272	10904
918.384	11006
918.495	10759
918.606	10698
918.717	10584
918.828	10672
918.939	10714
919.05	10599
919.161	10618
919.272	10497
919.383	10573
919.494	10820
919.604	10869
919.715	10710
919.826	10660
919.936	10599
920.047	10759
920.157	10653
920.267	10831
920.378	10740
920.488	10733
920.598	10858
920.708	10995
920.818	10896
920.928	10786
921.038	11052
921.148	10999
921.258	10721
921.368	10592
921.477	10607
921.587	10512
921.697	10405
921.806	10489
921.916	10432
922.025	10223
922.134	10280
922.244	10173
922.353	10242
922.462	10154
922.571	10021
922.68	9869
922.789	9876
922.898	9979
923.007	9838
923.116	9895
923.224	9827
923.333	9895
923.442	9781
923.55	9762
923.659	9823
923.767	9865
923.876	9751
923.984	9854
924.092	9800
924.201	9762
924.309	9785
924.417	9671
924.525	9759
924.633	9720
924.741	10641
924.849	9507
924.956	9648
925.064	9507
925.172	9466
925.279	9523
925.387	9530
925.494	9507
925.602	9614
925.709	9625
925.816	9447
925.924	9519
926.031	9584
926.138	9523
926.245	9595
926.352	9500
926.459	9584
926.566	9652
926.673	9447
926.779	9386
926.886	9367
926.993	9310
927.099	9188
927.206	9142
927.312	9207
927.419	9260
927.525	9249
927.631	9253
927.737	9161
927.843	9119
927.95	9104
928.056	9108
928.162	9100
928.267	9192
928.373	9876
928.479	9154
928.585	9009
928.69	9097
928.796	9112
928.901	8994
929.007	8891
929.112	8990
929.218	9005
929.323	8971
929.428	8910
929.533	9047
929.638	8914
929.743	8914
929.848	9043
929.953	8929
930.058	8804
930.163	8629
930.267	8754
930.372	8804
930.477	8724
930.581	8921
930.685	8792
930.79	8571
930.894	8739
930.998	8625
931.103	8739
931.207	8419
931.311	8355
931.415	8286
931.519	8153
931.623	8183
