Data from test_V78500241_817.txt Node
Date: Fri Mar 25 14:39:24 CST 2022
User: usil
Spectrometer: V785-0024
Trigger mode: 0
Integration Time (sec): 4.000000E-1
Scans to average: 1
Nonlinearity correction enabled: false
Boxcar width: 0
Storing dark spectrum: false
XAxis mode: Wavelengths
Number of Pixels in Spectrum: 1024
>>>>>Begin Spectral Data<<<<<
801.071	26103
801.214	26149
801.356	25898
801.499	25765
801.641	25750
801.783	25750
801.926	25780
802.068	25594
802.211	25331
802.353	25320
802.496	25145
802.638	25148
802.78	25099
802.923	25042
803.065	25069
803.208	25072
803.35	25110
803.492	25118
803.635	25171
803.777	25133
803.919	25244
804.061	25491
804.204	25263
804.346	25274
804.488	25221
804.63	25274
804.773	25293
804.915	25320
805.057	25479
805.199	25388
805.341	25525
805.483	25674
805.626	25575
805.768	25567
805.91	25746
806.052	25875
806.194	25814
806.336	26339
806.478	26107
806.62	26191
806.762	26453
806.904	26785
807.046	27214
807.188	27458
807.33	27637
807.472	28265
807.614	28691
807.756	29395
807.898	30064
808.04	31259
808.182	32594
808.324	34329
808.465	36661
808.607	39081
808.749	41136
808.891	42486
809.033	42574
809.174	41216
809.316	39306
809.458	36776
809.6	34173
809.741	32427
809.883	30753
810.025	29668
810.166	28991
810.308	28557
810.45	27911
810.591	27519
810.733	27058
810.875	26880
811.016	26476
811.158	26313
811.299	26533
811.441	26374
811.582	26149
811.724	25982
811.865	25925
812.007	25830
812.148	25818
812.29	25670
812.431	25803
812.573	26008
812.714	25940
812.855	26084
812.997	26122
813.138	26191
813.279	26115
813.421	26153
813.562	25841
813.703	25765
813.845	25647
813.986	25278
814.127	25065
814.268	24939
814.41	24920
814.551	24814
814.692	24863
814.833	24814
814.974	24802
815.115	24726
815.256	24570
815.397	24593
815.539	24540
815.68	24517
815.821	24418
815.962	24471
816.103	24346
816.244	24190
816.385	24110
816.526	24030
816.666	23908
816.807	23707
816.948	23920
817.089	23878
817.23	23817
817.371	23745
817.512	23691
817.653	23813
817.793	23623
817.934	23714
818.075	23661
818.216	23741
818.356	23634
818.497	23459
818.638	23395
818.778	23391
818.919	23406
819.06	23425
819.2	23463
819.341	23619
819.481	23493
819.622	23653
819.762	23927
819.903	23722
820.043	23733
820.184	23516
820.324	23535
820.465	23707
820.605	23581
820.746	23421
820.886	23493
821.026	23516
821.167	23554
821.307	23570
821.447	23417
821.588	23284
821.728	23132
821.868	23033
822.008	22961
822.149	22790
822.289	22782
822.429	22637
822.569	22493
822.709	22497
822.849	22287
822.99	22303
823.13	22318
823.27	22238
823.41	22078
823.55	22044
823.69	22120
823.83	22070
823.97	22128
824.11	21888
824.25	21785
824.389	21808
824.529	21857
824.669	21960
824.809	21960
824.949	21797
825.089	21895
825.228	21880
825.368	21698
825.508	21724
825.648	21698
825.787	21568
825.927	21861
826.067	21667
826.206	21561
826.346	21625
826.485	21686
826.625	21492
826.765	21808
826.904	21732
827.044	21420
827.183	21317
827.323	21317
827.462	21294
827.601	21348
827.741	21340
827.88	21195
828.02	21070
828.159	21268
828.298	21256
828.437	21283
828.577	21264
828.716	21370
828.855	21119
828.994	21058
829.134	20918
829.273	21074
829.412	20876
829.551	20807
829.69	20906
829.829	20994
829.968	20986
830.107	21116
830.246	21047
830.385	20937
830.524	20918
830.663	20689
830.802	20640
830.941	20541
831.08	20511
831.219	20632
831.357	20636
831.496	20864
831.635	20682
831.774	20549
831.913	20549
832.051	20259
832.19	20358
832.329	20438
832.467	20419
832.606	20328
832.744	20438
832.883	20522
833.022	20454
833.16	20564
833.299	20731
833.437	20800
833.576	20910
833.714	20819
833.852	21043
833.991	21039
834.129	21233
834.267	21241
834.406	21135
834.544	21077
834.682	20967
834.821	20910
834.959	20963
835.097	20716
835.235	20636
835.373	20648
835.511	20617
835.65	20324
835.788	20309
835.926	20115
836.064	20134
836.202	20168
836.34	20252
836.478	20248
836.615	20073
836.753	20046
836.891	20130
837.029	20225
837.167	20081
837.305	20012
837.443	19967
837.58	20046
837.718	19974
837.856	20065
837.993	19917
838.131	19974
838.269	19841
838.406	19887
838.544	19799
838.681	19601
838.819	19586
838.956	19453
839.094	19384
839.231	19495
839.369	19601
839.506	19685
839.643	19571
839.781	19407
839.918	19339
840.055	19312
840.193	19396
840.33	19365
840.467	19187
840.604	19407
840.742	19670
840.879	19266
841.016	19304
841.153	19236
841.29	19578
841.427	19304
841.564	19400
841.701	19358
841.838	19331
841.975	19308
842.112	19285
842.249	19137
842.385	19080
842.522	19175
842.659	19198
842.796	19198
842.933	19091
843.069	19164
843.206	19190
843.343	19228
843.479	19244
843.616	19228
843.752	19046
843.889	19221
844.025	19213
844.162	19240
844.298	19346
844.435	19430
844.571	19510
844.708	19723
844.844	20107
844.98	20465
845.117	20845
845.253	21408
845.389	22607
845.525	25023
845.661	29075
845.798	33964
845.934	37822
846.07	39485
846.206	38545
846.342	35307
846.478	30346
846.614	26103
846.75	23391
846.886	21610
847.022	20670
847.158	20027
847.294	19525
847.429	19183
847.565	19004
847.701	19046
847.837	18559
847.972	18460
848.108	18475
848.244	18445
848.379	18353
848.515	18251
848.65	18136
848.786	18117
848.921	18163
849.057	18194
849.192	18155
849.328	18144
849.463	18030
849.598	18098
849.734	17992
849.869	17931
850.004	17821
850.14	17901
850.275	17821
850.41	17745
850.545	17786
850.68	17726
850.815	17779
850.95	17752
851.085	17904
851.22	17843
851.355	17817
851.49	17695
851.625	17737
851.76	17672
851.895	17661
852.03	17642
852.165	17680
852.299	17832
852.434	17882
852.569	17866
852.703	17817
852.838	17874
852.973	17980
853.107	17977
853.242	17889
853.376	17840
853.511	17630
853.645	17756
853.78	17927
853.914	17813
854.048	17832
854.183	17836
854.317	17942
854.451	18041
854.585	17893
854.72	17874
854.854	18022
854.988	17904
855.122	17756
855.256	17733
855.39	17729
855.524	17752
855.658	17741
855.792	17649
855.926	17722
856.06	17726
856.194	17729
856.327	17668
856.461	17634
856.595	17471
856.729	17543
856.862	17668
856.996	17623
857.13	17718
857.263	17786
857.397	17687
857.53	17570
857.664	17672
857.797	17619
857.931	17676
858.064	17627
858.197	17634
858.331	17547
858.464	17421
858.597	17398
858.731	17452
858.864	17463
858.997	17570
859.13	17589
859.263	17478
859.396	17528
859.529	17433
859.662	17455
859.795	17440
859.928	17353
860.061	17543
860.194	17722
860.327	17467
860.46	17478
860.592	17604
860.725	17634
860.858	17539
860.99	17497
861.123	17345
861.256	17505
861.388	17600
861.521	18068
861.653	17379
861.786	17261
861.918	17318
862.05	17296
862.183	17448
862.315	17455
862.447	17539
862.58	17395
862.712	17204
862.844	17254
862.976	17330
863.108	17193
863.24	17497
863.372	17136
863.504	17231
863.636	17265
863.768	17181
863.9	17216
864.032	17140
864.164	17178
864.296	17254
864.428	17303
864.559	17223
864.691	17140
864.823	17242
864.954	17193
865.086	17143
865.217	17132
865.349	17143
865.48	17193
865.612	17105
865.743	17254
865.875	17102
866.006	17109
866.137	17083
866.269	17193
866.4	17155
866.531	17159
866.662	17124
866.793	16957
866.924	17052
867.055	17071
867.186	17151
867.317	17075
867.448	16968
867.579	17014
867.71	16987
867.841	16991
867.972	17098
868.103	17105
868.233	17094
868.364	17174
868.495	17254
868.625	17288
868.756	17471
868.886	17277
869.017	17261
869.147	17398
869.278	17554
869.408	17406
869.539	17360
869.669	17436
869.799	17410
869.929	17611
870.06	17535
870.19	17729
870.32	17714
870.45	17710
870.58	17802
870.71	17836
870.84	17942
870.97	17832
871.1	17824
871.23	17988
871.36	17897
871.489	17965
871.619	17935
871.749	18087
871.879	18079
872.008	18060
872.138	18022
872.267	18133
872.397	18034
872.526	17821
872.656	17965
872.785	17931
872.915	18152
873.044	18251
873.173	18098
873.303	18190
873.432	18201
873.561	18346
873.69	18247
873.819	18285
873.948	18467
874.077	18224
874.206	18171
874.335	18403
874.464	18486
874.593	18604
874.722	18547
874.851	18760
874.979	18673
875.108	18757
875.237	18730
875.365	18768
875.494	18798
875.623	18859
875.751	18890
875.88	18882
876.008	19012
876.136	19175
876.265	19422
876.393	19514
876.521	19670
876.65	19616
876.778	19632
876.906	19582
877.034	19483
877.162	19647
877.29	19620
877.418	19841
877.546	19845
877.674	19761
877.802	19936
877.93	20069
878.058	20210
878.185	20191
878.313	20625
878.441	20697
878.568	20956
878.696	21439
878.824	21998
878.951	22858
879.079	24018
879.206	25449
879.333	26895
879.461	28230
879.588	28984
879.715	29064
879.842	28565
879.97	27058
880.097	25324
880.224	24182
880.351	23334
880.478	22759
880.605	22265
880.732	22101
880.859	22006
880.986	21724
881.112	21633
881.239	21428
881.366	21268
881.493	21272
881.619	21184
881.746	21260
881.872	21252
881.999	21207
882.125	21275
882.252	21496
882.378	21473
882.505	21545
882.631	21336
882.757	21192
882.883	21401
883.01	21131
883.136	21157
883.262	21135
883.388	21066
883.514	21291
883.64	21306
883.766	21176
883.892	20994
884.018	20899
884.143	21085
884.269	21214
884.395	20948
884.52	20906
884.646	20925
884.772	20845
884.897	20781
885.023	20785
885.148	20967
885.274	21157
885.399	20864
885.524	20682
885.65	20533
885.775	20606
885.9	20446
886.025	20507
886.15	20385
886.275	20062
886.4	19890
886.525	19921
886.65	19841
886.775	19670
886.9	19799
887.025	19708
887.149	19620
887.274	19327
887.399	19228
887.523	19114
887.648	19061
887.773	18973
887.897	19046
888.021	19065
888.146	18863
888.27	19019
888.395	18920
888.519	18932
888.643	18814
888.767	18757
888.891	18566
889.015	18639
889.139	18486
889.263	18353
889.387	18525
889.511	18521
889.635	18460
889.759	18410
889.883	18384
890.006	18407
890.13	18494
890.254	18186
890.377	18174
890.501	17999
890.624	17946
890.748	17980
890.871	17927
890.995	17710
891.118	17630
891.241	17741
891.364	17691
891.488	17821
891.611	17619
891.734	17695
891.857	17703
891.98	17547
892.103	17733
892.226	17699
892.349	17505
892.471	17417
892.594	17585
892.717	17471
892.839	17528
892.962	17391
893.085	17604
893.207	17440
893.33	17284
893.452	17265
893.575	17337
893.697	17212
893.819	17532
893.941	17486
894.064	17425
894.186	17250
894.308	17185
894.43	17303
894.552	17360
894.674	17417
894.796	17147
894.918	17208
895.04	17079
895.161	17246
895.283	17227
895.405	17083
895.526	17098
895.648	17143
895.769	17121
895.891	17277
896.012	17235
896.134	17197
896.255	17132
896.376	17181
896.498	17098
896.619	17071
896.74	17162
896.861	17121
896.982	17528
897.103	17524
897.224	17303
897.345	17341
897.466	17284
897.587	17296
897.708	17490
897.828	17372
897.949	17242
898.07	17197
898.19	17326
898.311	17372
898.431	17250
898.552	17330
898.672	17463
898.792	17467
898.913	17391
899.033	17360
899.153	17151
899.273	17098
899.393	17060
899.513	17105
899.633	17132
899.753	17140
899.873	17083
899.993	17239
900.113	17037
900.232	17121
900.352	17105
900.472	16942
900.591	16908
900.711	16995
900.83	16854
900.95	17014
901.069	17071
901.189	16717
901.308	16660
901.427	16584
901.546	16554
901.665	16607
901.784	16577
901.904	16493
902.023	16291
902.141	16135
902.26	16128
902.379	16097
902.498	16105
902.617	15983
902.735	15941
902.854	15994
902.973	15987
903.091	15778
903.21	15751
903.328	15705
903.446	15576
903.565	15504
903.683	15439
903.801	15401
903.919	15416
904.038	15466
904.156	15344
904.274	15306
904.392	15275
904.51	15157
904.627	15222
904.745	15279
904.863	15291
904.981	15077
905.098	14910
905.216	14887
905.334	14948
905.451	15036
905.569	14804
905.686	14944
905.803	14990
905.921	14777
906.038	14834
906.155	14735
906.272	14701
906.389	14587
906.506	14377
906.623	14499
906.74	14400
906.857	14301
906.974	14434
907.091	14530
907.208	14575
907.324	14450
907.441	14347
907.557	14290
907.674	14138
907.79	14123
907.907	14027
908.023	14237
908.139	14123
908.256	13947
908.372	14100
908.488	14020
908.604	14012
908.72	13955
908.836	13875
908.952	13784
909.068	13890
909.184	13982
909.3	13887
909.415	13947
909.531	13921
909.647	13727
909.762	13601
909.878	13597
909.993	13556
910.108	13613
910.224	13563
910.339	13662
910.454	13559
910.57	13438
910.685	13392
910.8	13704
910.915	13556
911.03	13518
911.145	13297
911.259	13255
911.374	13274
911.489	13285
911.604	13198
911.718	13027
911.833	13088
911.947	12905
912.062	12833
912.176	12947
912.291	13122
912.405	13046
912.519	13217
912.633	13202
912.748	13156
912.862	12920
912.976	12924
913.09	12707
913.204	12859
913.318	12913
913.431	12943
913.545	12863
913.659	13000
913.772	12829
913.886	12787
914	12703
914.113	12840
914.226	12916
914.34	12795
914.453	12608
914.566	12806
914.68	12673
914.793	12669
914.906	12429
915.019	12361
915.132	12372
915.245	12479
915.358	12384
915.47	12513
915.583	12494
915.696	12540
915.809	12509
915.921	12582
916.034	12391
916.146	12342
916.259	12506
916.371	12528
916.483	12456
916.595	12361
916.708	12399
916.82	12448
916.932	12422
917.044	12365
917.156	12361
917.268	12182
917.38	12296
917.491	12243
917.603	12136
917.715	12254
917.826	12361
917.938	12129
918.049	12053
918.161	12213
918.272	12277
918.384	12182
918.495	12133
918.606	12072
918.717	11939
918.828	12068
918.939	12034
919.05	11916
919.161	12045
919.272	11805
919.383	11794
919.494	12007
919.604	12216
919.715	12019
919.826	11882
919.936	12038
920.047	12053
920.157	11980
920.267	12110
920.378	11950
920.488	11954
920.598	12201
920.708	12262
920.818	12175
920.928	12106
921.038	12258
921.148	12190
921.258	11950
921.368	11923
921.477	11817
921.587	11748
921.697	11714
921.806	11764
921.916	11661
922.025	11379
922.134	11444
922.244	11334
922.353	11543
922.462	11334
922.571	11311
922.68	11151
922.789	11170
922.898	11098
923.007	11117
923.116	11109
923.224	11025
923.333	11098
923.442	10953
923.55	10972
923.659	10927
923.767	10961
923.876	10965
923.984	10980
924.092	10896
924.201	10927
924.309	10862
924.417	10965
924.525	10824
924.633	10896
924.741	11802
924.849	10637
924.956	10801
925.064	10702
925.172	10611
925.279	10599
925.387	10641
925.494	10630
925.602	10725
925.709	10752
925.816	10618
925.924	10592
926.031	10752
926.138	10691
926.245	10618
926.352	10569
926.459	10717
926.566	10778
926.673	10584
926.779	10519
926.886	10500
926.993	10405
927.099	10306
927.206	10257
927.312	10325
927.419	10371
927.525	10310
927.631	10325
927.737	10265
927.843	10207
927.95	10120
928.056	10154
928.162	10181
928.267	10246
928.373	10835
928.479	10318
928.585	10013
928.69	10135
928.796	10188
928.901	10135
929.007	9964
929.112	10059
929.218	9972
929.323	9964
929.428	9895
929.533	10120
929.638	9975
929.743	9953
929.848	9998
929.953	9869
930.058	9838
930.163	9705
930.267	9751
930.372	9873
930.477	9751
930.581	9876
930.685	9762
930.79	9557
930.894	9622
930.998	9625
931.103	9724
931.207	9374
931.311	9313
931.415	9218
931.519	9112
931.623	9089
