Data from test_V78500241_3015.txt Node
Date: Fri Mar 25 14:54:42 CST 2022
User: usil
Spectrometer: V785-0024
Trigger mode: 0
Integration Time (sec): 4.000000E-1
Scans to average: 1
Nonlinearity correction enabled: false
Boxcar width: 0
Storing dark spectrum: false
XAxis mode: Wavelengths
Number of Pixels in Spectrum: 1024
>>>>>Begin Spectral Data<<<<<
801.071	22234
801.214	21983
801.356	21694
801.499	21724
801.641	21500
801.783	21477
801.926	21580
802.068	21485
802.211	21420
802.353	21272
802.496	21058
802.638	21055
802.78	20906
802.923	20960
803.065	20727
803.208	20655
803.35	20693
803.492	20952
803.635	20845
803.777	20819
803.919	20785
804.061	21096
804.204	20883
804.346	20785
804.488	20716
804.63	20754
804.773	20659
804.915	20773
805.057	20823
805.199	20887
805.341	20872
805.483	20796
805.626	20811
805.768	20678
805.91	20708
806.052	20640
806.194	20644
806.336	20823
806.478	20785
806.62	20716
806.762	20731
806.904	20868
807.046	21150
807.188	21096
807.33	20998
807.472	21032
807.614	20933
807.756	20872
807.898	20853
808.04	20777
808.182	20804
808.324	20800
808.465	20834
808.607	20994
808.749	21043
808.891	21150
809.033	21252
809.174	21252
809.316	21138
809.458	21104
809.6	20960
809.741	21195
809.883	21112
810.025	21302
810.166	21203
810.308	21184
810.45	21291
810.591	21093
810.733	21039
810.875	20785
811.016	20765
811.158	20735
811.299	20826
811.441	20891
811.582	20914
811.724	20902
811.865	20769
812.007	20963
812.148	20838
812.29	20925
812.431	21001
812.573	21119
812.714	21211
812.855	21374
812.997	21447
813.138	21625
813.279	21534
813.421	21378
813.562	21260
813.703	21157
813.845	20982
813.986	20708
814.127	20621
814.268	20415
814.41	20480
814.551	20259
814.692	20427
814.833	20442
814.974	20377
815.115	20301
815.256	20343
815.397	20290
815.539	20263
815.68	20267
815.821	19982
815.962	20119
816.103	20088
816.244	19936
816.385	19826
816.526	19826
816.666	19677
816.807	19514
816.948	19582
817.089	19575
817.23	19548
817.371	19571
817.512	19518
817.653	19540
817.793	19438
817.934	19502
818.075	19586
818.216	19582
818.356	19464
818.497	19263
818.638	19202
818.778	19187
818.919	19339
819.06	19263
819.2	19403
819.341	19396
819.481	19400
819.622	19605
819.762	19746
819.903	19670
820.043	19567
820.184	19540
820.324	19533
820.465	19601
820.605	19506
820.746	19384
820.886	19381
821.026	19525
821.167	19441
821.307	19578
821.447	19491
821.588	19266
821.728	19263
821.868	18943
822.008	18875
822.149	18894
822.289	18981
822.429	18521
822.569	18642
822.709	18532
822.849	18342
822.99	18369
823.13	18266
823.27	18380
823.41	18174
823.55	18186
823.69	18136
823.83	18258
823.97	18171
824.11	18015
824.25	17893
824.389	17942
824.529	18068
824.669	18121
824.809	18019
824.949	18041
825.089	18007
825.228	17973
825.368	17767
825.508	17783
825.648	17741
825.787	17764
825.927	17863
826.067	17707
826.206	17760
826.346	17687
826.485	17707
826.625	17767
826.765	17863
826.904	17756
827.044	17516
827.183	17417
827.323	17433
827.462	17486
827.601	17459
827.741	17547
827.88	17455
828.02	17315
828.159	17387
828.298	17501
828.437	17452
828.577	17296
828.716	17551
828.855	17448
828.994	17098
829.134	17227
829.273	17227
829.412	17159
829.551	17113
829.69	17200
829.829	17102
829.968	17246
830.107	17235
830.246	17277
830.385	17124
830.524	17052
830.663	16869
830.802	16946
830.941	16847
831.08	16801
831.219	16858
831.357	16763
831.496	17056
831.635	16816
831.774	16645
831.913	16698
832.051	16691
832.19	16573
832.329	16592
832.467	16542
832.606	16386
832.744	16440
832.883	16455
833.022	16402
833.16	16508
833.299	16550
833.437	16428
833.576	16504
833.714	16523
833.852	16622
833.991	16596
834.129	16542
834.267	16497
834.406	16459
834.544	16573
834.682	16421
834.821	16466
834.959	16691
835.097	16367
835.235	16519
835.373	16504
835.511	16542
835.65	16409
835.788	16390
835.926	16295
836.064	16272
836.202	16166
836.34	16546
836.478	16516
836.615	16394
836.753	16424
836.891	16466
837.029	16462
837.167	16344
837.305	16363
837.443	16287
837.58	16348
837.718	16409
837.856	16272
837.993	16314
838.131	16276
838.269	16139
838.406	16238
838.544	16158
838.681	15972
838.819	16013
838.956	15804
839.094	15800
839.231	15941
839.369	15964
839.506	16223
839.643	16139
839.781	15835
839.918	15827
840.055	15812
840.193	15865
840.33	15732
840.467	15766
840.604	15869
840.742	16090
840.879	15705
841.016	15732
841.153	15747
841.29	15960
841.427	15880
841.564	15960
841.701	15789
841.838	15823
841.975	15755
842.112	15701
842.249	15618
842.385	15614
842.522	15736
842.659	15705
842.796	15564
842.933	15606
843.069	15595
843.206	15614
843.343	15720
843.479	15496
843.616	15671
843.752	15424
843.889	15374
844.025	15584
844.162	15393
844.298	15431
844.435	15374
844.571	15374
844.708	15466
844.844	15603
844.98	15614
845.117	15500
845.253	15291
845.389	15283
845.525	15249
845.661	15393
845.798	15195
845.934	15291
846.07	15058
846.206	15268
846.342	15386
846.478	15180
846.614	14937
846.75	14902
846.886	14963
847.022	14952
847.158	14921
847.294	15085
847.429	15070
847.565	14891
847.701	15237
847.837	14804
847.972	14697
848.108	14708
848.244	14670
848.379	14530
848.515	14476
848.65	14556
848.786	14556
848.921	14560
849.057	14693
849.192	14640
849.328	14606
849.463	14610
849.598	14476
849.734	14457
849.869	14438
850.004	14362
850.14	14389
850.275	14298
850.41	14244
850.545	14229
850.68	14256
850.815	14396
850.95	14320
851.085	14495
851.22	14374
851.355	14324
851.49	14301
851.625	14286
851.76	14298
851.895	14229
852.03	14199
852.165	14267
852.299	14370
852.434	14336
852.569	14377
852.703	14294
852.838	14415
852.973	14473
853.107	14454
853.242	14244
853.376	14119
853.511	14088
853.645	14164
853.78	14275
853.914	14225
854.048	14123
854.183	14168
854.317	14202
854.451	14332
854.585	14180
854.72	14115
854.854	14168
854.988	14161
855.122	14100
855.256	14008
855.39	14084
855.524	14374
855.658	14290
855.792	14180
855.926	14298
856.06	14298
856.194	14275
856.327	14138
856.461	14176
856.595	14134
856.729	14130
856.862	14301
856.996	14172
857.13	14233
857.263	14263
857.397	14206
857.53	14221
857.664	14168
857.797	14286
857.931	14389
858.064	14248
858.197	14328
858.331	14248
858.464	13963
858.597	14005
858.731	14225
858.864	14138
858.997	14210
859.13	14221
859.263	14278
859.396	14248
859.529	14233
859.662	14183
859.795	14103
859.928	14218
860.061	14336
860.194	14290
860.327	14240
860.46	14130
860.592	14278
860.725	14343
860.858	14370
860.99	14214
861.123	14134
861.256	14191
861.388	14233
861.521	14887
861.653	14050
861.786	13963
861.918	14142
862.05	14180
862.183	14176
862.315	14153
862.447	14305
862.58	14199
862.712	13944
862.844	13925
862.976	14092
863.108	13982
863.24	14503
863.372	13887
863.504	13860
863.636	14012
863.768	14077
863.9	14092
864.032	13894
864.164	13959
864.296	13951
864.428	14054
864.559	14092
864.691	14138
864.823	13963
864.954	13951
865.086	13944
865.217	13947
865.349	13951
865.48	13925
865.612	13978
865.743	14111
865.875	14020
866.006	13925
866.137	13967
866.269	14054
866.4	13879
866.531	13928
866.662	13898
866.793	13978
866.924	13997
867.055	13955
867.186	13944
867.317	13982
867.448	13875
867.579	13860
867.71	13909
867.841	13845
867.972	13974
868.103	13932
868.233	13982
868.364	13951
868.495	14035
868.625	14214
868.756	14336
868.886	14119
869.017	14221
869.147	14259
869.278	14393
869.408	14248
869.539	14157
869.669	14282
869.799	14278
869.929	14355
870.06	14305
870.19	14549
870.32	14400
870.45	14579
870.58	14625
870.71	14746
870.84	14625
870.97	14552
871.1	14560
871.23	14758
871.36	14819
871.489	14689
871.619	14819
871.749	14777
871.879	14781
872.008	14956
872.138	14708
872.267	14743
872.397	14697
872.526	14712
872.656	14667
872.785	14590
872.915	14804
873.044	14902
873.173	14796
873.303	14804
873.432	14880
873.561	14906
873.69	14773
873.819	14807
873.948	14895
874.077	14891
874.206	14804
874.335	14765
874.464	14971
874.593	15131
874.722	15028
874.851	15100
874.979	15203
875.108	15112
875.237	15176
875.365	14994
875.494	15161
875.623	15310
875.751	15100
875.88	15241
876.008	15298
876.136	15329
876.265	15637
876.393	15682
876.521	15591
876.65	15766
876.778	15561
876.906	15656
877.034	15591
877.162	15485
877.29	15462
877.418	15481
877.546	15587
877.674	15538
877.802	15580
877.93	15622
878.058	15481
878.185	15389
878.313	15488
878.441	15549
878.568	15382
878.696	15428
878.824	15576
878.951	15694
879.079	15747
879.206	15907
879.333	15789
879.461	15542
879.588	15774
879.715	15778
879.842	15869
879.97	15667
880.097	15420
880.224	15443
880.351	15477
880.478	15454
880.605	15420
880.732	15416
880.859	15770
880.986	15389
881.112	15488
881.239	15272
881.366	15195
881.493	15211
881.619	14994
881.746	15039
881.872	15123
881.999	15112
882.125	14971
882.252	15173
882.378	15039
882.505	15165
882.631	15020
882.757	14883
882.883	14937
883.01	14948
883.136	14834
883.262	14720
883.388	14788
883.514	14883
883.64	14895
883.766	14887
883.892	14750
884.018	14750
884.143	14872
884.269	15020
884.395	14579
884.52	14590
884.646	14606
884.772	14568
884.897	14499
885.023	14602
885.148	14670
885.274	14857
885.399	14735
885.524	14552
885.65	14602
885.775	14667
885.9	14575
886.025	14712
886.15	14667
886.275	14549
886.4	14511
886.525	14465
886.65	14629
886.775	14659
886.9	14693
887.025	14853
887.149	14648
887.274	14522
887.399	14450
887.523	14412
887.648	14351
887.773	14320
887.897	14503
888.021	14526
888.146	14362
888.27	14621
888.395	14640
888.519	14476
888.643	14511
888.767	14473
888.891	14511
889.015	14347
889.139	14339
889.263	14301
889.387	14457
889.511	14541
889.635	14332
889.759	14320
889.883	14278
890.006	14343
890.13	14419
890.254	14176
890.377	14294
890.501	14031
890.624	14050
890.748	14294
890.871	14081
890.995	13925
891.118	13921
891.241	13978
891.364	13951
891.488	14130
891.611	14008
891.734	13967
891.857	14103
891.98	13947
892.103	14145
892.226	14054
892.349	13989
892.471	13909
892.594	13913
892.717	13993
892.839	13917
892.962	14020
893.085	14092
893.207	14073
893.33	13879
893.452	13898
893.575	13997
893.697	14054
893.819	14286
893.941	14183
894.064	14180
894.186	13982
894.308	13978
894.43	14103
894.552	14278
894.674	14134
894.796	14062
894.918	14043
895.04	14039
895.161	14191
895.283	14077
895.405	14111
895.526	14176
895.648	14062
895.769	14218
895.891	14168
896.012	14237
896.134	14225
896.255	14115
896.376	14134
896.498	14138
896.619	14244
896.74	14176
896.861	14214
896.982	14507
897.103	14705
897.224	14526
897.345	14362
897.466	14381
897.587	14412
897.708	14613
897.828	14492
897.949	14476
898.07	14370
898.19	14465
898.311	14693
898.431	14488
898.552	14545
898.672	14625
898.792	14587
898.913	14564
899.033	14526
899.153	14313
899.273	14290
899.393	14454
899.513	14419
899.633	14396
899.753	14442
899.873	14404
899.993	14389
900.113	14336
900.232	14438
900.352	14396
900.472	14317
900.591	14256
900.711	14332
900.83	14199
900.95	14412
901.069	14419
901.189	14218
901.308	13913
901.427	13871
901.546	13928
901.665	13993
901.784	13940
901.904	13871
902.023	13765
902.141	13483
902.26	13582
902.379	13647
902.498	13514
902.617	13480
902.735	13578
902.854	13613
902.973	13365
903.091	13297
903.21	13259
903.328	13244
903.446	13164
903.565	13110
903.683	13099
903.801	13046
903.919	13050
904.038	13069
904.156	12943
904.274	12920
904.392	12852
904.51	12856
904.627	12795
904.745	12954
904.863	12905
904.981	12673
905.098	12532
905.216	12604
905.334	12673
905.451	12589
905.569	12536
905.686	12593
905.803	12631
905.921	12426
906.038	12521
906.155	12426
906.272	12315
906.389	12361
906.506	12209
906.623	12266
906.74	12114
906.857	12007
906.974	11999
907.091	12178
907.208	12247
907.324	12175
907.441	12076
907.557	11927
907.674	11893
907.79	11882
907.907	11897
908.023	12049
908.139	11942
908.256	11840
908.372	11946
908.488	11847
908.604	11726
908.72	11596
908.836	11630
908.952	11672
909.068	11646
909.184	11726
909.3	11729
909.415	11714
909.531	11699
909.647	11436
909.762	11455
909.878	11417
909.993	11463
910.108	11421
910.224	11417
910.339	11360
910.454	11395
910.57	11391
910.685	11258
910.8	11543
910.915	11459
911.03	11387
911.145	11166
911.259	11132
911.374	11162
911.489	11041
911.604	11006
911.718	10927
911.833	10999
911.947	10797
912.062	10782
912.176	10854
912.291	10980
912.405	10862
912.519	11162
912.633	11166
912.748	11014
912.862	10927
912.976	10793
913.09	10778
913.204	10824
913.318	10740
913.431	10915
913.545	10953
913.659	10965
913.772	10778
913.886	10721
914	10664
914.113	10767
914.226	10900
914.34	10793
914.453	10626
914.566	10748
914.68	10649
914.793	10611
914.906	10485
915.019	10367
915.132	10348
915.245	10455
915.358	10519
915.47	10489
915.583	10615
915.696	10516
915.809	10634
915.921	10660
916.034	10466
916.146	10428
916.259	10394
916.371	10550
916.483	10500
916.595	10352
916.708	10363
916.82	10379
916.932	10405
917.044	10295
917.156	10379
917.268	10314
917.38	10352
917.491	10261
917.603	10329
917.715	10363
917.826	10325
917.938	10272
918.049	10173
918.161	10363
918.272	10390
918.384	10489
918.495	10325
918.606	10185
918.717	10105
918.828	10234
918.939	10215
919.05	10101
919.161	10116
919.272	9956
919.383	10021
919.494	10238
919.604	10318
919.715	10211
919.826	10082
919.936	10192
920.047	10257
920.157	10162
920.267	10440
920.378	10291
920.488	10120
920.598	10413
920.708	10474
920.818	10367
920.928	10356
921.038	10561
921.148	10504
921.258	10120
921.368	10093
921.477	10090
921.587	10071
921.697	9922
921.806	10093
921.916	9911
922.025	9819
922.134	9850
922.244	9724
922.353	9892
922.462	9679
922.571	9568
922.68	9389
922.789	9428
922.898	9469
923.007	9401
923.116	9530
923.224	9477
923.333	9454
923.442	9393
923.55	9336
923.659	9386
923.767	9408
923.876	9275
923.984	9416
924.092	9260
924.201	9306
924.309	9283
924.417	9291
924.525	9325
924.633	9291
924.741	10188
924.849	9093
924.956	9279
925.064	9104
925.172	9032
925.279	9024
925.387	9077
925.494	9138
925.602	9249
925.709	9176
925.816	9104
925.924	9169
926.031	9207
926.138	9169
926.245	9165
926.352	9028
926.459	9131
926.566	9203
926.673	9077
926.779	8937
926.886	8994
926.993	8845
927.099	8804
927.206	8750
927.312	8746
927.419	8887
927.525	8773
927.631	8868
927.737	8716
927.843	8648
927.95	8678
928.056	8625
928.162	8724
928.267	8712
928.373	9329
928.479	8895
928.585	8583
928.69	8766
928.796	8720
928.901	8564
929.007	8473
929.112	8583
929.218	8613
929.323	8610
929.428	8549
929.533	8686
929.638	8499
929.743	8537
929.848	8579
929.953	8514
930.058	8434
930.163	8271
930.267	8343
930.372	8511
930.477	8199
930.581	8511
930.685	8374
930.79	8225
930.894	8290
930.998	8225
931.103	8362
931.207	8115
931.311	7989
931.415	7940
931.519	7746
931.623	7814
