Data from test_V78500241_2736.txt Node
Date: Fri Mar 25 14:52:45 CST 2022
User: usil
Spectrometer: V785-0024
Trigger mode: 0
Integration Time (sec): 4.000000E-1
Scans to average: 1
Nonlinearity correction enabled: false
Boxcar width: 0
Storing dark spectrum: false
XAxis mode: Wavelengths
Number of Pixels in Spectrum: 1024
>>>>>Begin Spectral Data<<<<<
801.071	22055
801.214	21945
801.356	21641
801.499	21671
801.641	21389
801.783	21397
801.926	21511
802.068	21325
802.211	21173
802.353	21249
802.496	20944
802.638	21009
802.78	20796
802.923	20864
803.065	20613
803.208	20609
803.35	20670
803.492	20800
803.635	20971
803.777	20701
803.919	20724
804.061	21017
804.204	20735
804.346	20670
804.488	20568
804.63	20800
804.773	20564
804.915	20621
805.057	20670
805.199	20552
805.341	20655
805.483	20632
805.626	20686
805.768	20598
805.91	20758
806.052	20727
806.194	20613
806.336	20773
806.478	20689
806.62	20644
806.762	20682
806.904	20792
807.046	21032
807.188	20937
807.33	20952
807.472	21013
807.614	20857
807.756	21009
807.898	20804
808.04	20686
808.182	20792
808.324	20834
808.465	20788
808.607	20849
808.749	21123
808.891	21062
809.033	21161
809.174	21009
809.316	20994
809.458	21017
809.6	20910
809.741	21108
809.883	21077
810.025	21104
810.166	21135
810.308	21138
810.45	21020
810.591	21135
810.733	20796
810.875	20807
811.016	20743
811.158	20613
811.299	20788
811.441	21013
811.582	20933
811.724	20708
811.865	20686
812.007	20819
812.148	20792
812.29	20769
812.431	20883
812.573	21036
812.714	21214
812.855	21146
812.997	21367
813.138	21466
813.279	21439
813.421	21203
813.562	21188
813.703	21005
813.845	20838
813.986	20545
814.127	20332
814.268	20389
814.41	20320
814.551	20294
814.692	20381
814.833	20206
814.974	20263
815.115	20320
815.256	20122
815.397	20180
815.539	20183
815.68	20027
815.821	20031
815.962	19951
816.103	19921
816.244	19868
816.385	19712
816.526	19746
816.666	19521
816.807	19487
816.948	19460
817.089	19483
817.23	19548
817.371	19460
817.512	19438
817.653	19491
817.793	19369
817.934	19426
818.075	19529
818.216	19483
818.356	19339
818.497	19270
818.638	19034
818.778	19152
818.919	19072
819.06	19213
819.2	19289
819.341	19358
819.481	19362
819.622	19419
819.762	19594
819.903	19605
820.043	19434
820.184	19518
820.324	19392
820.465	19449
820.605	19449
820.746	19438
820.886	19244
821.026	19434
821.167	19377
821.307	19430
821.447	19464
821.588	19194
821.728	19175
821.868	19008
822.008	18806
822.149	18734
822.289	18757
822.429	18684
822.569	18536
822.709	18585
822.849	18380
822.99	18361
823.13	18357
823.27	18254
823.41	18095
823.55	18095
823.69	18125
823.83	18209
823.97	18224
824.11	17821
824.25	17878
824.389	17904
824.529	17935
824.669	17942
824.809	17984
824.949	17863
825.089	17988
825.228	17885
825.368	17699
825.508	17634
825.648	17699
825.787	17764
825.927	17748
826.067	17581
826.206	17695
826.346	17722
826.485	17726
826.625	17672
826.765	17786
826.904	17699
827.044	17459
827.183	17406
827.323	17337
827.462	17452
827.601	17425
827.741	17322
827.88	17330
828.02	17265
828.159	17311
828.298	17364
828.437	17345
828.577	17265
828.716	17551
828.855	17440
828.994	17220
829.134	17098
829.273	17220
829.412	17056
829.551	17136
829.69	17128
829.829	17212
829.968	17250
830.107	17208
830.246	17132
830.385	17067
830.524	17121
830.663	16999
830.802	16793
830.941	16831
831.08	16778
831.219	16805
831.357	16790
831.496	16953
831.635	16805
831.774	16603
831.913	16615
832.051	16462
832.19	16561
832.329	16569
832.467	16485
832.606	16497
832.744	16402
832.883	16394
833.022	16367
833.16	16466
833.299	16474
833.437	16497
833.576	16478
833.714	16455
833.852	16546
833.991	16481
834.129	16622
834.267	16538
834.406	16451
834.544	16493
834.682	16535
834.821	16523
834.959	16656
835.097	16436
835.235	16615
835.373	16474
835.511	16451
835.65	16379
835.788	16409
835.926	16325
836.064	16242
836.202	16265
836.34	16436
836.478	16424
836.615	16386
836.753	16485
836.891	16481
837.029	16466
837.167	16291
837.305	16356
837.443	16287
837.58	16207
837.718	16325
837.856	16360
837.993	16284
838.131	16367
838.269	16238
838.406	16234
838.544	16261
838.681	16010
838.819	16040
838.956	15785
839.094	15823
839.231	15850
839.369	16109
839.506	16280
839.643	16143
839.781	15812
839.918	15751
840.055	15968
840.193	15922
840.33	15835
840.467	15739
840.604	15854
840.742	16101
840.879	15728
841.016	15743
841.153	15755
841.29	15960
841.427	15850
841.564	15869
841.701	15899
841.838	15720
841.975	15663
842.112	15762
842.249	15530
842.385	15561
842.522	15842
842.659	15614
842.796	15580
842.933	15705
843.069	15564
843.206	15671
843.343	15629
843.479	15690
843.616	15633
843.752	15420
843.889	15367
844.025	15553
844.162	15348
844.298	15561
844.435	15359
844.571	15355
844.708	15443
844.844	15595
844.98	15580
845.117	15530
845.253	15351
845.389	15367
845.525	15370
845.661	15332
845.798	15157
845.934	15283
846.07	15199
846.206	15298
846.342	15351
846.478	15195
846.614	15070
846.75	15036
846.886	14872
847.022	15112
847.158	14994
847.294	14948
847.429	15074
847.565	14906
847.701	15252
847.837	14746
847.972	14682
848.108	14796
848.244	14895
848.379	14587
848.515	14587
848.65	14564
848.786	14549
848.921	14629
849.057	14701
849.192	14625
849.328	14507
849.463	14644
849.598	14541
849.734	14465
849.869	14419
850.004	14457
850.14	14404
850.275	14408
850.41	14320
850.545	14256
850.68	14366
850.815	14301
850.95	14320
851.085	14492
851.22	14415
851.355	14381
851.49	14290
851.625	14309
851.76	14278
851.895	14275
852.03	14301
852.165	14400
852.299	14385
852.434	14442
852.569	14461
852.703	14396
852.838	14431
852.973	14495
853.107	14522
853.242	14305
853.376	14176
853.511	14081
853.645	14263
853.78	14313
853.914	14142
854.048	14176
854.183	14168
854.317	14351
854.451	14423
854.585	14195
854.72	14202
854.854	14267
854.988	14271
855.122	14199
855.256	14039
855.39	14176
855.524	14294
855.658	14263
855.792	14256
855.926	14244
856.06	14298
856.194	14328
856.327	14263
856.461	14134
856.595	14218
856.729	14244
856.862	14320
856.996	14286
857.13	14294
857.263	14301
857.397	14267
857.53	14187
857.664	14339
857.797	14290
857.931	14332
858.064	14336
858.197	14309
858.331	14263
858.464	14176
858.597	14103
858.731	14248
858.864	14240
858.997	14103
859.13	14221
859.263	14358
859.396	14313
859.529	14298
859.662	14218
859.795	14248
859.928	14362
860.061	14427
860.194	14412
860.327	14176
860.46	14191
860.592	14221
860.725	14282
860.858	14370
860.99	14149
861.123	14199
861.256	14164
861.388	14298
861.521	14845
861.653	14149
861.786	14046
861.918	14111
862.05	14168
862.183	14096
862.315	14218
862.447	14305
862.58	14130
862.712	14005
862.844	13917
862.976	14130
863.108	14092
863.24	14492
863.372	14062
863.504	14024
863.636	14043
863.768	14027
863.9	14054
864.032	13921
864.164	14020
864.296	13970
864.428	14164
864.559	14062
864.691	14008
864.823	14058
864.954	14012
865.086	14065
865.217	13997
865.349	13951
865.48	13970
865.612	14035
865.743	14199
865.875	13974
866.006	13860
866.137	13913
866.269	13974
866.4	13993
866.531	13978
866.662	13936
866.793	13917
866.924	13970
867.055	13955
867.186	13909
867.317	13879
867.448	13852
867.579	13928
867.71	13791
867.841	13871
867.972	14081
868.103	13970
868.233	14062
868.364	14058
868.495	14024
868.625	14229
868.756	14271
868.886	14225
869.017	14259
869.147	14393
869.278	14309
869.408	14233
869.539	14282
869.669	14278
869.799	14275
869.929	14423
870.06	14351
870.19	14583
870.32	14537
870.45	14541
870.58	14663
870.71	14781
870.84	14777
870.97	14617
871.1	14644
871.23	14872
871.36	14788
871.489	14701
871.619	14785
871.749	14785
871.879	14830
872.008	14880
872.138	14910
872.267	14754
872.397	14682
872.526	14659
872.656	14651
872.785	14693
872.915	14838
873.044	14941
873.173	14956
873.303	14994
873.432	14872
873.561	14895
873.69	14861
873.819	14895
873.948	14952
874.077	14883
874.206	14849
874.335	14864
874.464	14994
874.593	15256
874.722	15093
874.851	15241
874.979	15180
875.108	15192
875.237	15135
875.365	15173
875.494	15100
875.623	15272
875.751	15214
875.88	15245
876.008	15386
876.136	15534
876.265	15633
876.393	15724
876.521	15709
876.65	15774
876.778	15644
876.906	15572
877.034	15633
877.162	15553
877.29	15504
877.418	15629
877.546	15481
877.674	15663
877.802	15633
877.93	15606
878.058	15663
878.185	15511
878.313	15542
878.441	15675
878.568	15481
878.696	15637
878.824	15671
878.951	15751
879.079	15774
879.206	15899
879.333	15785
879.461	15656
879.588	15701
879.715	15850
879.842	15922
879.97	15701
880.097	15519
880.224	15488
880.351	15572
880.478	15458
880.605	15389
880.732	15477
880.859	15629
880.986	15477
881.112	15496
881.239	15466
881.366	15237
881.493	15230
881.619	15180
881.746	15184
881.872	15081
881.999	15077
882.125	15176
882.252	15146
882.378	15237
882.505	15222
882.631	15005
882.757	14842
882.883	15013
883.01	14838
883.136	14906
883.262	14857
883.388	14876
883.514	15013
883.64	15032
883.766	14929
883.892	14697
884.018	14823
884.143	14887
884.269	14941
884.395	14697
884.52	14636
884.646	14651
884.772	14598
884.897	14659
885.023	14708
885.148	14754
885.274	14773
885.399	14792
885.524	14693
885.65	14659
885.775	14693
885.9	14625
886.025	14800
886.15	14716
886.275	14598
886.4	14636
886.525	14598
886.65	14617
886.775	14549
886.9	14697
887.025	14861
887.149	14640
887.274	14549
887.399	14473
887.523	14427
887.648	14351
887.773	14377
887.897	14560
888.021	14686
888.146	14305
888.27	14625
888.395	14644
888.519	14602
888.643	14533
888.767	14560
888.891	14415
889.015	14434
889.139	14355
889.263	14355
889.387	14423
889.511	14499
889.635	14518
889.759	14332
889.883	14271
890.006	14336
890.13	14469
890.254	14271
890.377	14286
890.501	14164
890.624	14244
890.748	14157
890.871	13993
890.995	14008
891.118	13909
891.241	13974
891.364	14050
891.488	14172
891.611	14069
891.734	14149
891.857	14168
891.98	14062
892.103	14092
892.226	14065
892.349	14103
892.471	13860
892.594	14031
892.717	14096
892.839	13997
892.962	14088
893.085	14126
893.207	14065
893.33	13925
893.452	13993
893.575	14092
893.697	14016
893.819	14267
893.941	14286
894.064	14115
894.186	14024
894.308	14069
894.43	14206
894.552	14164
894.674	14153
894.796	14001
894.918	14183
895.04	14024
895.161	14134
895.283	14233
895.405	14043
895.526	14214
895.648	14145
895.769	14103
895.891	14240
896.012	14252
896.134	14161
896.255	14096
896.376	14225
896.498	14115
896.619	14332
896.74	14145
896.861	14278
896.982	14606
897.103	14655
897.224	14640
897.345	14507
897.466	14465
897.587	14457
897.708	14651
897.828	14518
897.949	14507
898.07	14366
898.19	14560
898.311	14560
898.431	14495
898.552	14541
898.672	14613
898.792	14693
898.913	14636
899.033	14526
899.153	14427
899.273	14305
899.393	14415
899.513	14419
899.633	14404
899.753	14358
899.873	14381
899.993	14499
900.113	14438
900.232	14404
900.352	14423
900.472	14328
900.591	14187
900.711	14286
900.83	14187
900.95	14351
901.069	14351
901.189	14180
901.308	14005
901.427	13845
901.546	14035
901.665	13917
901.784	14027
901.904	13833
902.023	13799
902.141	13601
902.26	13487
902.379	13575
902.498	13601
902.617	13556
902.735	13495
902.854	13575
902.973	13483
903.091	13335
903.21	13240
903.328	13251
903.446	13156
903.565	13221
903.683	13050
903.801	13008
903.919	13065
904.038	13114
904.156	12928
904.274	12951
904.392	12909
904.51	12741
904.627	12989
904.745	12886
904.863	12951
904.981	12642
905.098	12642
905.216	12563
905.334	12654
905.451	12585
905.569	12582
905.686	12646
905.803	12635
905.921	12418
906.038	12585
906.155	12429
906.272	12289
906.389	12304
906.506	12266
906.623	12155
906.74	12213
906.857	12098
906.974	12087
907.091	12300
907.208	12327
907.324	12285
907.441	12114
907.557	12022
907.674	12019
907.79	11912
907.907	11916
908.023	11988
908.139	11977
908.256	11851
908.372	11840
908.488	11859
908.604	11821
908.72	11661
908.836	11764
908.952	11649
909.068	11764
909.184	11809
909.3	11760
909.415	11714
909.531	11741
909.647	11455
909.762	11516
909.878	11417
909.993	11509
910.108	11478
910.224	11444
910.339	11509
910.454	11364
910.57	11372
910.685	11334
910.8	11528
910.915	11570
911.03	11360
911.145	11284
911.259	11197
911.374	11197
911.489	11121
911.604	11140
911.718	10953
911.833	10968
911.947	10847
912.062	10725
912.176	11006
912.291	10915
912.405	10980
912.519	11216
912.633	11159
912.748	11014
912.862	10911
912.976	10809
913.09	10694
913.204	10831
913.318	10828
913.431	10942
913.545	10892
913.659	10911
913.772	10881
913.886	10687
914	10706
914.113	10710
914.226	10835
914.34	10831
914.453	10694
914.566	10809
914.68	10668
914.793	10683
914.906	10474
915.019	10424
915.132	10348
915.245	10455
915.358	10481
915.47	10375
915.583	10424
915.696	10455
915.809	10550
915.921	10664
916.034	10462
916.146	10363
916.259	10405
916.371	10474
916.483	10424
916.595	10367
916.708	10428
916.82	10459
916.932	10318
917.044	10360
917.156	10348
917.268	10322
917.38	10341
917.491	10211
917.603	10265
917.715	10424
917.826	10447
917.938	10287
918.049	10185
918.161	10333
918.272	10455
918.384	10394
918.495	10284
918.606	10154
918.717	10097
918.828	10227
918.939	10230
919.05	10101
919.161	10215
919.272	10002
919.383	10082
919.494	10219
919.604	10432
919.715	10207
919.826	10109
919.936	10158
920.047	10303
920.157	10207
920.267	10363
920.378	10223
920.488	10116
920.598	10344
920.708	10546
920.818	10379
920.928	10382
921.038	10565
921.148	10512
921.258	10169
921.368	10185
921.477	10032
921.587	10025
921.697	9998
921.806	10010
921.916	9895
922.025	9789
922.134	9709
922.244	9720
922.353	9759
922.462	9610
922.571	9526
922.68	9355
922.789	9435
922.898	9435
923.007	9397
923.116	9454
923.224	9439
923.333	9325
923.442	9329
923.55	9344
923.659	9348
923.767	9412
923.876	9298
923.984	9435
924.092	9199
924.201	9348
924.309	9317
924.417	9302
924.525	9268
924.633	9245
924.741	10074
924.849	9005
924.956	9161
925.064	9051
925.172	9051
925.279	9058
925.387	9085
925.494	9131
925.602	9138
925.709	9214
925.816	9055
925.924	9093
926.031	9112
926.138	9085
926.245	9100
926.352	9024
926.459	9157
926.566	9188
926.673	8998
926.779	8975
926.886	8990
926.993	8849
927.099	8861
927.206	8785
927.312	8708
927.419	8868
927.525	8777
927.631	8792
927.737	8727
927.843	8693
927.95	8651
928.056	8621
928.162	8716
928.267	8743
928.373	9348
928.479	8792
928.585	8598
928.69	8705
928.796	8735
928.901	8629
929.007	8503
929.112	8625
929.218	8568
929.323	8545
929.428	8484
929.533	8712
929.638	8431
929.743	8522
929.848	8598
929.953	8514
930.058	8427
930.163	8259
930.267	8412
930.372	8412
930.477	8286
930.581	8495
930.685	8339
930.79	8233
930.894	8256
930.998	8210
931.103	8377
931.207	8073
931.311	8005
931.415	7879
931.519	7700
931.623	7727
