Data from test_V78500241_225.txt Node
Date: Fri Mar 25 14:35:17 CST 2022
User: usil
Spectrometer: V785-0024
Trigger mode: 0
Integration Time (sec): 4.000000E-1
Scans to average: 1
Nonlinearity correction enabled: false
Boxcar width: 0
Storing dark spectrum: false
XAxis mode: Wavelengths
Number of Pixels in Spectrum: 1024
>>>>>Begin Spectral Data<<<<<
801.071	27808
801.214	27576
801.356	27336
801.499	27348
801.641	27089
801.783	27161
801.926	27169
802.068	27119
802.211	27028
802.353	27096
802.496	26849
802.638	26693
802.78	26655
802.923	26670
803.065	26571
803.208	26651
803.35	26682
803.492	26765
803.635	26785
803.777	26636
803.919	26765
804.061	27077
804.204	26735
804.346	26632
804.488	26720
804.63	26758
804.773	26621
804.915	26701
805.057	26629
805.199	26739
805.341	26750
805.483	26705
805.626	26819
805.768	26785
805.91	26708
806.052	26769
806.194	26697
806.336	26857
806.478	26910
806.62	26716
806.762	26899
806.904	26857
807.046	27249
807.188	26975
807.33	27192
807.472	27195
807.614	27146
807.756	27180
807.898	27032
808.04	27081
808.182	27043
808.324	27135
808.465	27116
808.607	27382
808.749	27682
808.891	27850
809.033	27728
809.174	27633
809.316	27454
809.458	27477
809.6	27378
809.741	27393
809.883	27397
810.025	27473
810.166	27564
810.308	27469
810.45	27405
810.591	27462
810.733	27203
810.875	27089
811.016	27055
811.158	27062
811.299	27081
811.441	27393
811.582	27226
811.724	27100
811.865	27207
812.007	27024
812.148	27051
812.29	27093
812.431	27344
812.573	27420
812.714	27526
812.855	27473
812.997	27511
813.138	27797
813.279	27641
813.421	27553
813.562	27492
813.703	27443
813.845	27222
813.986	26971
814.127	26830
814.268	26571
814.41	26689
814.551	26640
814.692	26781
814.833	26670
814.974	26636
815.115	26693
815.256	26457
815.397	26495
815.539	26434
815.68	26408
815.821	26343
815.962	26446
816.103	26237
816.244	26313
816.385	26122
816.526	26043
816.666	25974
816.807	25651
816.948	25837
817.089	25921
817.23	25841
817.371	25906
817.512	25620
817.653	25670
817.793	25689
817.934	25776
818.075	25795
818.216	25647
818.356	25533
818.497	25548
818.638	25430
818.778	25403
818.919	25362
819.06	25586
819.2	25544
819.341	25693
819.481	25609
819.622	25849
819.762	25803
819.903	25902
820.043	25799
820.184	25662
820.324	25750
820.465	25757
820.605	25712
820.746	25894
820.886	25556
821.026	25624
821.167	25628
821.307	25769
821.447	25609
821.588	25525
821.728	25331
821.868	25293
822.008	24996
822.149	25031
822.289	25110
822.429	24981
822.569	24749
822.709	24760
822.849	24585
822.99	24566
823.13	24399
823.27	24437
823.41	24494
823.55	24296
823.69	24338
823.83	24353
823.97	24258
824.11	24125
824.25	24186
824.389	24091
824.529	24049
824.669	24159
824.809	24216
824.949	24205
825.089	24186
825.228	24022
825.368	24030
825.508	23809
825.648	23977
825.787	23996
825.927	23878
826.067	23832
826.206	23866
826.346	23908
826.485	23882
826.625	23764
826.765	23965
826.904	23813
827.044	23649
827.183	23573
827.323	23570
827.462	23649
827.601	23649
827.741	23474
827.88	23619
828.02	23417
828.159	23562
828.298	23516
828.437	23528
828.577	23486
828.716	23653
828.855	23376
828.994	23178
829.134	23280
829.273	23254
829.412	23387
829.551	23181
829.69	23277
829.829	23242
829.968	23337
830.107	23326
830.246	23212
830.385	23117
830.524	23102
830.663	22991
830.802	23052
830.941	22706
831.08	22809
831.219	22839
831.357	22717
831.496	23014
831.635	22630
831.774	22778
831.913	22615
832.051	22664
832.19	22542
832.329	22584
832.467	22531
832.606	22447
832.744	22447
832.883	22440
833.022	22337
833.16	22413
833.299	22569
833.437	22512
833.576	22436
833.714	22538
833.852	22523
833.991	22497
834.129	22630
834.267	22607
834.406	22481
834.544	22580
834.682	22455
834.821	22440
834.959	22527
835.097	22341
835.235	22474
835.373	22512
835.511	22481
835.65	22230
835.788	22249
835.926	22082
836.064	22006
836.202	22150
836.34	22333
836.478	22337
836.615	22101
836.753	22223
836.891	22474
837.029	22318
837.167	22143
837.305	22230
837.443	22249
837.58	22109
837.718	22181
837.856	22090
837.993	22036
838.131	22215
838.269	21983
838.406	22010
838.544	21953
838.681	21854
838.819	21717
838.956	21568
839.094	21466
839.231	21625
839.369	21774
839.506	21827
839.643	21808
839.781	21500
839.918	21492
840.055	21591
840.193	21401
840.33	21424
840.467	21500
840.604	21545
840.742	21690
840.879	21313
841.016	21310
841.153	21249
841.29	21561
841.427	21424
841.564	21447
841.701	21344
841.838	21340
841.975	21317
842.112	21332
842.249	21264
842.385	21165
842.522	21382
842.659	21116
842.796	21089
842.933	21207
843.069	21070
843.206	20998
843.343	21169
843.479	21135
843.616	21032
843.752	20998
843.889	20792
844.025	21001
844.162	20826
844.298	21070
844.435	20880
844.571	20842
844.708	20921
844.844	21055
844.98	21142
845.117	21001
845.253	20876
845.389	20845
845.525	20918
845.661	21070
845.798	20982
845.934	21233
846.07	21074
846.206	21203
846.342	21077
846.478	20960
846.614	20560
846.75	20484
846.886	20446
847.022	20564
847.158	20343
847.294	20404
847.429	20355
847.565	20320
847.701	20594
847.837	20153
847.972	20081
848.108	20153
848.244	20054
848.379	19986
848.515	19837
848.65	19852
848.786	19852
848.921	19894
849.057	20046
849.192	19947
849.328	19997
849.463	19837
849.598	19757
849.734	19761
849.869	19708
850.004	19776
850.14	19677
850.275	19647
850.41	19533
850.545	19559
850.68	19571
850.815	19594
850.95	19674
851.085	19750
851.22	19590
851.355	19548
851.49	19483
851.625	19525
851.76	19567
851.895	19464
852.03	19449
852.165	19548
852.299	19605
852.434	19635
852.569	19719
852.703	19571
852.838	19620
852.973	19750
853.107	19753
853.242	19601
853.376	19343
853.511	19388
853.645	19540
853.78	19518
853.914	19430
854.048	19369
854.183	19460
854.317	19365
854.451	19480
854.585	19396
854.72	19369
854.854	19430
854.988	19358
855.122	19343
855.256	19377
855.39	19426
855.524	19567
855.658	19430
855.792	19327
855.926	19403
856.06	19441
856.194	19537
856.327	19392
856.461	19301
856.595	19304
856.729	19240
856.862	19468
856.996	19358
857.13	19426
857.263	19430
857.397	19521
857.53	19354
857.664	19426
857.797	19487
857.931	19480
858.064	19476
858.197	19365
858.331	19445
858.464	19358
858.597	19194
858.731	19415
858.864	19354
858.997	19297
859.13	19400
859.263	19415
859.396	19377
859.529	19312
859.662	19251
859.795	19327
859.928	19350
860.061	19460
860.194	19491
860.327	19411
860.46	19316
860.592	19422
860.725	19468
860.858	19487
860.99	19457
861.123	19221
861.256	19198
861.388	19438
861.521	19936
861.653	19179
861.786	19027
861.918	19236
862.05	19255
862.183	19362
862.315	19502
862.447	19449
862.58	19350
862.712	19099
862.844	19061
862.976	19110
863.108	19076
863.24	19407
863.372	18958
863.504	19095
863.636	19050
863.768	19000
863.9	19099
864.032	18924
864.164	19031
864.296	18958
864.428	19156
864.559	19072
864.691	19129
864.823	19023
864.954	19031
865.086	19000
865.217	18947
865.349	18901
865.48	19072
865.612	19015
865.743	19069
865.875	18985
866.006	18897
866.137	18985
866.269	18966
866.4	18958
866.531	18905
866.662	18821
866.793	18859
866.924	18875
867.055	18939
867.186	18924
867.317	18852
867.448	18791
867.579	18825
867.71	18787
867.841	18821
867.972	18901
868.103	18890
868.233	18958
868.364	18943
868.495	19012
868.625	19107
868.756	19206
868.886	19046
869.017	19206
869.147	19270
869.278	19221
869.408	19179
869.539	19046
869.669	19282
869.799	19141
869.929	19141
870.06	19209
870.19	19582
870.32	19388
870.45	19388
870.58	19563
870.71	19597
870.84	19502
870.97	19578
871.1	19548
871.23	19525
871.36	19685
871.489	19704
871.619	19639
871.749	19674
871.879	19708
872.008	19856
872.138	19887
872.267	19761
872.397	19597
872.526	19571
872.656	19597
872.785	19597
872.915	19685
873.044	19871
873.173	19807
873.303	19757
873.432	19685
873.561	19879
873.69	19761
873.819	19761
873.948	19902
874.077	19704
874.206	19757
874.335	19715
874.464	19883
874.593	20031
874.722	19890
874.851	20027
874.979	20062
875.108	20031
875.237	19944
875.365	19967
875.494	19967
875.623	20088
875.751	20024
875.88	20092
876.008	20153
876.136	20256
876.265	20549
876.393	20602
876.521	20465
876.65	20465
876.778	20412
876.906	20393
877.034	20343
877.162	20461
877.29	20267
877.418	20374
877.546	20317
877.674	20446
877.802	20446
877.93	20393
878.058	20294
878.185	20218
878.313	20370
878.441	20431
878.568	20396
878.696	20362
878.824	20465
878.951	20632
879.079	20682
879.206	20910
879.333	20716
879.461	20632
879.588	20800
879.715	20762
879.842	20906
879.97	20640
880.097	20473
880.224	20336
880.351	20438
880.478	20305
880.605	20313
880.732	20347
880.859	20495
880.986	20370
881.112	20377
881.239	20214
881.366	20142
881.493	20039
881.619	19940
881.746	19803
881.872	19898
881.999	19795
882.125	19852
882.252	19917
882.378	19909
882.505	20103
882.631	19712
882.757	19632
882.883	19799
883.01	19575
883.136	19639
883.262	19586
883.388	19620
883.514	19761
883.64	19658
883.766	19643
883.892	19510
884.018	19495
884.143	19674
884.269	19753
884.395	19285
884.52	19320
884.646	19339
884.772	19320
884.897	19263
885.023	19308
885.148	19381
885.274	19449
885.399	19468
885.524	19240
885.65	19358
885.775	19343
885.9	19266
886.025	19445
886.15	19422
886.275	19198
886.4	19126
886.525	19270
886.65	19129
886.775	19175
886.9	19373
887.025	19422
887.149	19122
887.274	19110
887.399	19137
887.523	19065
887.648	18951
887.773	19031
887.897	19038
888.021	19050
888.146	19008
888.27	19118
888.395	19126
888.519	19118
888.643	18981
888.767	19114
888.891	19046
889.015	18825
889.139	18806
889.263	18795
889.387	18958
889.511	19019
889.635	18962
889.759	18791
889.883	18795
890.006	18844
890.13	18909
890.254	18696
890.377	18722
890.501	18585
890.624	18479
890.748	18616
890.871	18467
890.995	18407
891.118	18407
891.241	18361
891.364	18441
891.488	18467
891.611	18441
891.734	18391
891.857	18486
891.98	18441
892.103	18422
892.226	18403
892.349	18414
892.471	18258
892.594	18353
892.717	18262
892.839	18315
892.962	18418
893.085	18361
893.207	18407
893.33	18171
893.452	18319
893.575	18441
893.697	18372
893.819	18433
893.941	18551
894.064	18471
894.186	18277
894.308	18285
894.43	18517
894.552	18521
894.674	18494
894.796	18308
894.918	18258
895.04	18353
895.161	18456
895.283	18350
895.405	18258
895.526	18418
895.648	18296
895.769	18437
895.891	18483
896.012	18513
896.134	18464
896.255	18452
896.376	18323
896.498	18509
896.619	18486
896.74	18388
896.861	18585
896.982	18703
897.103	18947
897.224	18654
897.345	18715
897.466	18639
897.587	18707
897.708	18673
897.828	18772
897.949	18642
898.07	18429
898.19	18635
898.311	18741
898.431	18544
898.552	18688
898.672	18776
898.792	18768
898.913	18673
899.033	18547
899.153	18464
899.273	18350
899.393	18292
899.513	18388
899.633	18323
899.753	18513
899.873	18346
899.993	18410
900.113	18426
900.232	18399
900.352	18433
900.472	18296
900.591	18277
900.711	18247
900.83	18232
900.95	18216
901.069	18361
901.189	18125
901.308	17954
901.427	17893
901.546	17904
901.665	17927
901.784	17939
901.904	17745
902.023	17630
902.141	17463
902.26	17379
902.379	17414
902.498	17436
902.617	17364
902.735	17345
902.854	17227
902.973	17250
903.091	17075
903.21	17109
903.328	17041
903.446	16869
903.565	16805
903.683	16908
903.801	16664
903.919	16767
904.038	16850
904.156	16630
904.274	16797
904.392	16653
904.51	16580
904.627	16558
904.745	16687
904.863	16645
904.981	16363
905.098	16223
905.216	16329
905.334	16318
905.451	16230
905.569	16238
905.686	16272
905.803	16284
905.921	16017
906.038	16200
906.155	16078
906.272	15892
906.389	16010
906.506	15846
906.623	15732
906.74	15846
906.857	15728
906.974	15701
907.091	15865
907.208	15808
907.324	15838
907.441	15671
907.557	15637
907.674	15485
907.79	15469
907.907	15507
908.023	15511
908.139	15496
908.256	15382
908.372	15443
908.488	15424
908.604	15256
908.72	15161
908.836	15233
908.952	15100
909.068	15241
909.184	15310
909.3	15154
909.415	15173
909.531	15211
909.647	14960
909.762	14880
909.878	14857
909.993	14792
910.108	14876
910.224	14830
910.339	14895
910.454	14769
910.57	14697
910.685	14587
910.8	14857
910.915	14857
911.03	14701
911.145	14545
911.259	14522
911.374	14533
911.489	14339
911.604	14423
911.718	14324
911.833	14278
911.947	14157
912.062	14084
912.176	14153
912.291	14240
912.405	14191
912.519	14450
912.633	14385
912.748	14210
912.862	14130
912.976	14035
913.09	13940
913.204	13982
913.318	14168
913.431	14126
913.545	14103
913.659	14168
913.772	14020
913.886	13913
914	13841
914.113	14035
914.226	14005
914.34	13963
914.453	13803
914.566	13959
914.68	13864
914.793	13772
914.906	13681
915.019	13533
915.132	13533
915.245	13578
915.358	13529
915.47	13540
915.583	13544
915.696	13620
915.809	13742
915.921	13636
916.034	13518
916.146	13438
916.259	13483
916.371	13480
916.483	13582
916.595	13468
916.708	13400
916.82	13407
916.932	13415
917.044	13415
917.156	13354
917.268	13255
917.38	13282
917.491	13263
917.603	13301
917.715	13304
917.826	13320
917.938	13225
918.049	13103
918.161	13221
918.272	13358
918.384	13327
918.495	13228
918.606	12996
918.717	13072
918.828	13156
918.939	13084
919.05	12989
919.161	12977
919.272	12966
919.383	12916
919.494	13023
919.604	13183
919.715	12993
919.826	12913
919.936	12954
920.047	13046
920.157	13050
920.267	13198
920.378	13091
920.488	12973
920.598	13217
920.708	13301
920.818	13202
920.928	13221
921.038	13312
921.148	13236
921.258	12985
921.368	12886
921.477	12810
921.587	12764
921.697	12574
921.806	12760
921.916	12582
922.025	12445
922.134	12452
922.244	12441
922.353	12327
922.462	12304
922.571	12186
922.68	12053
922.789	12114
922.898	12220
923.007	12030
923.116	12076
923.224	12041
923.333	12091
923.442	11988
923.55	11958
923.659	11950
923.767	12003
923.876	11878
923.984	11946
924.092	11745
924.201	11866
924.309	11847
924.417	11840
924.525	11897
924.633	11790
924.741	12791
924.849	11623
924.956	11710
925.064	11585
925.172	11532
925.279	11600
925.387	11684
925.494	11619
925.602	11691
925.709	11581
925.816	11478
925.924	11547
926.031	11619
926.138	11467
926.245	11585
926.352	11410
926.459	11528
926.566	11634
926.673	11478
926.779	11345
926.886	11425
926.993	11201
927.099	11227
927.206	11117
927.312	11105
927.419	11162
927.525	11147
927.631	11197
927.737	11109
927.843	11121
927.95	10965
928.056	10995
928.162	11022
928.267	11075
928.373	11596
928.479	11094
928.585	10915
928.69	11075
928.796	10980
928.901	10869
929.007	10740
929.112	10938
929.218	10854
929.323	10805
929.428	10843
929.533	10900
929.638	10771
929.743	10763
929.848	10831
929.953	10744
930.058	10664
930.163	10538
930.267	10413
930.372	10653
930.477	10417
930.581	10672
930.685	10569
930.79	10360
930.894	10459
930.998	10356
931.103	10508
931.207	10097
931.311	10097
931.415	10071
931.519	9835
931.623	9827
