Data from test_V78500241_2630.txt Node
Date: Fri Mar 25 14:52:01 CST 2022
User: usil
Spectrometer: V785-0024
Trigger mode: 0
Integration Time (sec): 4.000000E-1
Scans to average: 1
Nonlinearity correction enabled: false
Boxcar width: 0
Storing dark spectrum: false
XAxis mode: Wavelengths
Number of Pixels in Spectrum: 1024
>>>>>Begin Spectral Data<<<<<
801.071	21922
801.214	21842
801.356	21732
801.499	21545
801.641	21386
801.783	21313
801.926	21325
802.068	21233
802.211	21150
802.353	21112
802.496	20944
802.638	20861
802.78	20792
802.923	20739
803.065	20701
803.208	20621
803.35	20621
803.492	20785
803.635	20815
803.777	20682
803.919	20769
804.061	21009
804.204	20701
804.346	20625
804.488	20579
804.63	20693
804.773	20549
804.915	20598
805.057	20659
805.199	20667
805.341	20579
805.483	20663
805.626	20720
805.768	20514
805.91	20549
806.052	20651
806.194	20434
806.336	20727
806.478	20549
806.62	20617
806.762	20678
806.904	20781
807.046	21009
807.188	20937
807.33	20887
807.472	20990
807.614	20876
807.756	20762
807.898	20720
808.04	20636
808.182	20594
808.324	20609
808.465	20746
808.607	20823
808.749	20986
808.891	20998
809.033	21036
809.174	21089
809.316	20975
809.458	20937
809.6	20925
809.741	21028
809.883	21089
810.025	21112
810.166	21089
810.308	21077
810.45	21108
810.591	20963
810.733	20758
810.875	20754
811.016	20617
811.158	20613
811.299	20849
811.441	20880
811.582	20773
811.724	20697
811.865	20564
812.007	20648
812.148	20701
812.29	20765
812.431	20918
812.573	21043
812.714	21001
812.855	21089
812.997	21386
813.138	21443
813.279	21355
813.421	21207
813.562	21188
813.703	21013
813.845	20883
813.986	20705
814.127	20396
814.268	20438
814.41	20339
814.551	20256
814.692	20332
814.833	20267
814.974	20252
815.115	20263
815.256	20107
815.397	20187
815.539	20157
815.68	19879
815.821	19959
815.962	20031
816.103	19997
816.244	19780
816.385	19734
816.526	19651
816.666	19571
816.807	19343
816.948	19639
817.089	19502
817.23	19472
817.371	19384
817.512	19468
817.653	19460
817.793	19316
817.934	19415
818.075	19388
818.216	19419
818.356	19396
818.497	19266
818.638	19015
818.778	19107
818.919	19137
819.06	18993
819.2	19236
819.341	19396
819.481	19225
819.622	19377
819.762	19495
819.903	19567
820.043	19407
820.184	19304
820.324	19350
820.465	19457
820.605	19422
820.746	19419
820.886	19206
821.026	19388
821.167	19148
821.307	19453
821.447	19304
821.588	19148
821.728	19221
821.868	19000
822.008	18867
822.149	18795
822.289	18829
822.429	18582
822.569	18456
822.709	18433
822.849	18262
822.99	18281
823.13	18258
823.27	18224
823.41	18110
823.55	18076
823.69	18155
823.83	18072
823.97	18026
824.11	17923
824.25	17965
824.389	17870
824.529	17980
824.669	17809
824.809	17843
824.949	18034
825.089	17878
825.228	17885
825.368	17687
825.508	17684
825.648	17726
825.787	17619
825.927	17680
826.067	17638
826.206	17630
826.346	17707
826.485	17703
826.625	17558
826.765	17813
826.904	17657
827.044	17535
827.183	17402
827.323	17299
827.462	17353
827.601	17356
827.741	17280
827.88	17387
828.02	17189
828.159	17353
828.298	17345
828.437	17417
828.577	17337
828.716	17425
828.855	17254
828.994	17204
829.134	17136
829.273	17067
829.412	17090
829.551	17090
829.69	17052
829.829	17124
829.968	17216
830.107	17124
830.246	17185
830.385	17033
830.524	17022
830.663	16892
830.802	16816
830.941	16854
831.08	16668
831.219	16843
831.357	16801
831.496	17029
831.635	16706
831.774	16637
831.913	16698
832.051	16615
832.19	16508
832.329	16634
832.467	16344
832.606	16455
832.744	16428
832.883	16386
833.022	16322
833.16	16447
833.299	16481
833.437	16367
833.576	16523
833.714	16470
833.852	16523
833.991	16470
834.129	16580
834.267	16626
834.406	16500
834.544	16622
834.682	16580
834.821	16588
834.959	16664
835.097	16470
835.235	16565
835.373	16489
835.511	16531
835.65	16432
835.788	16344
835.926	16177
836.064	16181
836.202	16086
836.34	16333
836.478	16436
836.615	16348
836.753	16371
836.891	16443
837.029	16500
837.167	16424
837.305	16303
837.443	16272
837.58	16223
837.718	16242
837.856	16253
837.993	16230
838.131	16299
838.269	16238
838.406	16238
838.544	16192
838.681	15968
838.819	15949
838.956	15770
839.094	15854
839.231	15892
839.369	16002
839.506	16192
839.643	16048
839.781	15857
839.918	15705
840.055	15865
840.193	15812
840.33	15789
840.467	15774
840.604	15880
840.742	16086
840.879	15599
841.016	15724
841.153	15739
841.29	15964
841.427	15854
841.564	15915
841.701	15907
841.838	15842
841.975	15785
842.112	15778
842.249	15679
842.385	15542
842.522	15880
842.659	15637
842.796	15648
842.933	15686
843.069	15675
843.206	15488
843.343	15686
843.479	15595
843.616	15660
843.752	15466
843.889	15405
844.025	15545
844.162	15382
844.298	15466
844.435	15435
844.571	15302
844.708	15488
844.844	15564
844.98	15557
845.117	15477
845.253	15370
845.389	15245
845.525	15386
845.661	15340
845.798	15211
845.934	15222
846.07	15264
846.206	15207
846.342	15393
846.478	15138
846.614	15028
846.75	15009
846.886	14967
847.022	15085
847.158	15009
847.294	15036
847.429	14887
847.565	14937
847.701	15214
847.837	14712
847.972	14655
848.108	14815
848.244	14754
848.379	14625
848.515	14613
848.65	14594
848.786	14583
848.921	14610
849.057	14640
849.192	14621
849.328	14693
849.463	14568
849.598	14568
849.734	14503
849.869	14473
850.004	14438
850.14	14431
850.275	14454
850.41	14339
850.545	14320
850.68	14267
850.815	14400
850.95	14419
851.085	14583
851.22	14541
851.355	14339
851.49	14355
851.625	14358
851.76	14374
851.895	14233
852.03	14305
852.165	14343
852.299	14461
852.434	14415
852.569	14381
852.703	14404
852.838	14476
852.973	14450
853.107	14507
853.242	14240
853.376	14267
853.511	14050
853.645	14130
853.78	14313
853.914	14248
854.048	14256
854.183	14130
854.317	14278
854.451	14431
854.585	14244
854.72	14240
854.854	14377
854.988	14145
855.122	14237
855.256	14050
855.39	14191
855.524	14317
855.658	14301
855.792	14267
855.926	14328
856.06	14419
856.194	14328
856.327	14248
856.461	14191
856.595	14153
856.729	14191
856.862	14294
856.996	14278
857.13	14252
857.263	14351
857.397	14339
857.53	14275
857.664	14301
857.797	14248
857.931	14328
858.064	14282
858.197	14381
858.331	14343
858.464	14187
858.597	14145
858.731	14214
858.864	14252
858.997	14248
859.13	14244
859.263	14240
859.396	14225
859.529	14218
859.662	14149
859.795	14142
859.928	14282
860.061	14423
860.194	14370
860.327	14252
860.46	14244
860.592	14301
860.725	14393
860.858	14339
860.99	14248
861.123	14138
861.256	14107
861.388	14263
861.521	14769
861.653	14058
861.786	14054
861.918	14008
862.05	14126
862.183	14153
862.315	14225
862.447	14275
862.58	14145
862.712	13970
862.844	13936
862.976	14081
863.108	14084
863.24	14377
863.372	13963
863.504	13986
863.636	13982
863.768	14111
863.9	13970
864.032	13974
864.164	13993
864.296	14069
864.428	14153
864.559	14035
864.691	14001
864.823	14081
864.954	14107
865.086	14073
865.217	14012
865.349	13871
865.48	14134
865.612	14073
865.743	14027
865.875	13993
866.006	13940
866.137	14073
866.269	14001
866.4	14024
866.531	13887
866.662	13894
866.793	13997
866.924	13940
867.055	14012
867.186	13967
867.317	13955
867.448	13887
867.579	13993
867.71	13849
867.841	13879
867.972	14043
868.103	13997
868.233	14046
868.364	13982
868.495	14043
868.625	14275
868.756	14358
868.886	14210
869.017	14202
869.147	14415
869.278	14389
869.408	14301
869.539	14275
869.669	14400
869.799	14180
869.929	14434
870.06	14294
870.19	14503
870.32	14629
870.45	14514
870.58	14682
870.71	14712
870.84	14670
870.97	14575
871.1	14549
871.23	14819
871.36	14941
871.489	14792
871.619	14796
871.749	14883
871.879	14838
872.008	14921
872.138	14800
872.267	14800
872.397	14781
872.526	14575
872.656	14644
872.785	14750
872.915	14838
873.044	14963
873.173	14861
873.303	14807
873.432	14941
873.561	14910
873.69	14887
873.819	14929
873.948	14906
874.077	14937
874.206	14902
874.335	14952
874.464	15089
874.593	15173
874.722	15211
874.851	15260
874.979	15264
875.108	15291
875.237	15154
875.365	15195
875.494	15154
875.623	15397
875.751	15131
875.88	15249
876.008	15302
876.136	15450
876.265	15576
876.393	15781
876.521	15686
876.65	15717
876.778	15637
876.906	15622
877.034	15553
877.162	15549
877.29	15526
877.418	15667
877.546	15720
877.674	15584
877.802	15572
877.93	15530
878.058	15526
878.185	15542
878.313	15629
878.441	15690
878.568	15454
878.696	15507
878.824	15739
878.951	15618
879.079	15873
879.206	15937
879.333	15930
879.461	15679
879.588	15774
879.715	15819
879.842	15880
879.97	15747
880.097	15428
880.224	15515
880.351	15549
880.478	15492
880.605	15469
880.732	15447
880.859	15709
880.986	15492
881.112	15481
881.239	15408
881.366	15298
881.493	15192
881.619	15077
881.746	15104
881.872	15173
881.999	15009
882.125	15024
882.252	15287
882.378	15233
882.505	15268
882.631	15070
882.757	14960
882.883	15013
883.01	14937
883.136	14849
883.262	14800
883.388	14811
883.514	14914
883.64	15047
883.766	14826
883.892	14712
884.018	14834
884.143	14868
884.269	14975
884.395	14735
884.52	14606
884.646	14689
884.772	14598
884.897	14590
885.023	14598
885.148	14724
885.274	14834
885.399	14720
885.524	14686
885.65	14674
885.775	14735
885.9	14617
886.025	14811
886.15	14724
886.275	14625
886.4	14549
886.525	14594
886.65	14545
886.775	14556
886.9	14849
887.025	14872
887.149	14689
887.274	14530
887.399	14396
887.523	14412
887.648	14537
887.773	14419
887.897	14571
888.021	14556
888.146	14377
888.27	14606
888.395	14602
888.519	14568
888.643	14503
888.767	14549
888.891	14419
889.015	14404
889.139	14396
889.263	14385
889.387	14450
889.511	14552
889.635	14537
889.759	14286
889.883	14423
890.006	14404
890.13	14480
890.254	14301
890.377	14336
890.501	14176
890.624	14191
890.748	14191
890.871	14134
890.995	14081
891.118	14027
891.241	14138
891.364	14012
891.488	14134
891.611	14054
891.734	13959
891.857	14024
891.98	14005
892.103	14096
892.226	14069
892.349	14077
892.471	13917
892.594	13974
892.717	14005
892.839	14039
892.962	13955
893.085	14145
893.207	14062
893.33	13902
893.452	13913
893.575	14130
893.697	14020
893.819	14290
893.941	14263
894.064	14161
894.186	14065
894.308	14065
894.43	14142
894.552	14298
894.674	14278
894.796	13955
894.918	14012
895.04	14103
895.161	14199
895.283	14218
895.405	14084
895.526	14157
895.648	14187
895.769	14298
895.891	14259
896.012	14294
896.134	14263
896.255	14237
896.376	14130
896.498	14183
896.619	14461
896.74	14214
896.861	14298
896.982	14556
897.103	14765
897.224	14545
897.345	14313
897.466	14393
897.587	14457
897.708	14644
897.828	14492
897.949	14537
898.07	14393
898.19	14400
898.311	14590
898.431	14461
898.552	14564
898.672	14689
898.792	14648
898.913	14541
899.033	14495
899.153	14419
899.273	14343
899.393	14412
899.513	14469
899.633	14488
899.753	14400
899.873	14408
899.993	14450
900.113	14374
900.232	14434
900.352	14381
900.472	14271
900.591	14206
900.711	14355
900.83	14286
900.95	14358
901.069	14442
901.189	14191
901.308	14027
901.427	14005
901.546	13864
901.665	14005
901.784	13986
901.904	13879
902.023	13693
902.141	13578
902.26	13525
902.379	13548
902.498	13540
902.617	13445
902.735	13548
902.854	13499
902.973	13487
903.091	13225
903.21	13282
903.328	13285
903.446	13236
903.565	13091
903.683	13206
903.801	13031
903.919	13149
904.038	13122
904.156	12935
904.274	12909
904.392	12897
904.51	12833
904.627	12932
904.745	12935
904.863	12981
904.981	12764
905.098	12612
905.216	12620
905.334	12597
905.451	12570
905.569	12498
905.686	12551
905.803	12620
905.921	12494
906.038	12513
906.155	12498
906.272	12380
906.389	12365
906.506	12232
906.623	12197
906.74	12194
906.857	12053
906.974	12171
907.091	12277
907.208	12323
907.324	12224
907.441	12182
907.557	11950
907.674	11942
907.79	11851
907.907	11935
908.023	12060
908.139	11939
908.256	11893
908.372	11920
908.488	11847
908.604	11786
908.72	11684
908.836	11836
908.952	11752
909.068	11714
909.184	11878
909.3	11726
909.415	11737
909.531	11767
909.647	11524
909.762	11558
909.878	11459
909.993	11520
910.108	11471
910.224	11463
910.339	11520
910.454	11417
910.57	11311
910.685	11277
910.8	11551
910.915	11528
911.03	11452
911.145	11216
911.259	11193
911.374	11181
911.489	11098
911.604	11113
911.718	10911
911.833	10934
911.947	10858
912.062	10717
912.176	10991
912.291	10987
912.405	10953
912.519	11162
912.633	11220
912.748	11018
912.862	10953
912.976	10885
913.09	10706
913.204	10767
913.318	10778
913.431	10968
913.545	10946
913.659	10965
913.772	10828
913.886	10816
914	10714
914.113	10835
914.226	10782
914.34	10683
914.453	10675
914.566	10702
914.68	10710
914.793	10653
914.906	10466
915.019	10447
915.132	10413
915.245	10432
915.358	10455
915.47	10470
915.583	10516
915.696	10599
915.809	10660
915.921	10550
916.034	10466
916.146	10390
916.259	10432
916.371	10538
916.483	10500
916.595	10390
916.708	10413
916.82	10344
916.932	10344
917.044	10341
917.156	10318
917.268	10257
917.38	10306
917.491	10291
917.603	10322
917.715	10363
917.826	10356
917.938	10303
918.049	10215
918.161	10314
918.272	10481
918.384	10398
918.495	10272
918.606	10166
918.717	10090
918.828	10169
918.939	10200
919.05	10128
919.161	10181
919.272	9922
919.383	10010
919.494	10211
919.604	10371
919.715	10196
919.826	10162
919.936	10147
920.047	10268
920.157	10261
920.267	10348
920.378	10287
920.488	10192
920.598	10371
920.708	10489
920.818	10421
920.928	10386
921.038	10508
921.148	10424
921.258	10169
921.368	10120
921.477	10093
921.587	10105
921.697	9865
921.806	10059
921.916	9956
922.025	9850
922.134	9800
922.244	9720
922.353	9797
922.462	9641
922.571	9591
922.68	9481
922.789	9405
922.898	9469
923.007	9393
923.116	9458
923.224	9504
923.333	9462
923.442	9306
923.55	9321
923.659	9348
923.767	9359
923.876	9279
923.984	9393
924.092	9253
924.201	9298
924.309	9313
924.417	9306
924.525	9214
924.633	9218
924.741	10048
924.849	9036
924.956	9188
925.064	9081
925.172	9028
925.279	9017
925.387	9135
925.494	9112
925.602	9226
925.709	9184
925.816	9047
925.924	9195
926.031	9195
926.138	9055
926.245	9184
926.352	9085
926.459	9135
926.566	9199
926.673	9047
926.779	8948
926.886	8960
926.993	8788
927.099	8861
927.206	8766
927.312	8739
927.419	8811
927.525	8864
927.631	8864
927.737	8701
927.843	8682
927.95	8617
928.056	8648
928.162	8686
928.267	8693
928.373	9420
928.479	8838
928.585	8526
928.69	8659
928.796	8693
928.901	8610
929.007	8469
929.112	8667
929.218	8613
929.323	8461
929.428	8492
929.533	8625
929.638	8465
929.743	8530
929.848	8541
929.953	8495
930.058	8473
930.163	8309
930.267	8317
930.372	8457
930.477	8320
930.581	8533
930.685	8358
930.79	8279
930.894	8275
930.998	8244
931.103	8339
931.207	8031
931.311	7936
931.415	7989
931.519	7727
931.623	7708
