Data from test_V78500241_3352.txt Node
Date: Fri Mar 25 14:57:03 CST 2022
User: usil
Spectrometer: V785-0024
Trigger mode: 0
Integration Time (sec): 4.000000E-1
Scans to average: 1
Nonlinearity correction enabled: false
Boxcar width: 0
Storing dark spectrum: false
XAxis mode: Wavelengths
Number of Pixels in Spectrum: 1024
>>>>>Begin Spectral Data<<<<<
801.071	21922
801.214	21888
801.356	21488
801.499	21477
801.641	21310
801.783	21431
801.926	21355
802.068	21291
802.211	21283
802.353	21279
802.496	20956
802.638	21013
802.78	20762
802.923	20739
803.065	20613
803.208	20716
803.35	20636
803.492	20876
803.635	20765
803.777	20693
803.919	20785
804.061	21013
804.204	20735
804.346	20571
804.488	20511
804.63	20499
804.773	20499
804.915	20473
805.057	20556
805.199	20533
805.341	20552
805.483	20667
805.626	20549
805.768	20526
805.91	20423
806.052	20499
806.194	20564
806.336	20724
806.478	20427
806.62	20533
806.762	20575
806.904	20731
807.046	20963
807.188	20918
807.33	20887
807.472	20960
807.614	20842
807.756	20819
807.898	20697
808.04	20511
808.182	20617
808.324	20644
808.465	20743
808.607	20887
808.749	20857
808.891	20956
809.033	21226
809.174	20971
809.316	20853
809.458	20804
809.6	20952
809.741	20982
809.883	20952
810.025	21085
810.166	20994
810.308	21020
810.45	20975
810.591	20956
810.733	20781
810.875	20773
811.016	20476
811.158	20499
811.299	20750
811.441	20845
811.582	20861
811.724	20693
811.865	20678
812.007	20720
812.148	20621
812.29	20613
812.431	20842
812.573	21036
812.714	21074
812.855	21241
812.997	21241
813.138	21431
813.279	21310
813.421	21192
813.562	21085
813.703	20914
813.845	20785
813.986	20480
814.127	20271
814.268	20252
814.41	20210
814.551	20115
814.692	20309
814.833	20119
814.974	20225
815.115	20180
815.256	20046
815.397	20107
815.539	20134
815.68	19860
815.821	19909
815.962	19860
816.103	19974
816.244	19734
816.385	19605
816.526	19628
816.666	19430
816.807	19388
816.948	19362
817.089	19369
817.23	19403
817.371	19384
817.512	19289
817.653	19384
817.793	19266
817.934	19324
818.075	19327
818.216	19358
818.356	19175
818.497	19122
818.638	19065
818.778	19091
818.919	19000
819.06	19012
819.2	19110
819.341	19213
819.481	19232
819.622	19346
819.762	19571
819.903	19396
820.043	19358
820.184	19346
820.324	19270
820.465	19430
820.605	19346
820.746	19354
820.886	19148
821.026	19339
821.167	19324
821.307	19343
821.447	19202
821.588	19122
821.728	18958
821.868	18856
822.008	18661
822.149	18650
822.289	18734
822.429	18502
822.569	18414
822.709	18372
822.849	18205
822.99	18201
823.13	18239
823.27	18171
823.41	18079
823.55	18019
823.69	18022
823.83	18015
823.97	18030
824.11	17897
824.25	17737
824.389	17939
824.529	17813
824.669	17836
824.809	17931
824.949	17965
825.089	17859
825.228	17885
825.368	17672
825.508	17699
825.648	17661
825.787	17649
825.927	17627
826.067	17482
826.206	17646
826.346	17581
826.485	17665
826.625	17615
826.765	17680
826.904	17615
827.044	17425
827.183	17341
827.323	17349
827.462	17421
827.601	17345
827.741	17261
827.88	17398
828.02	17185
828.159	17242
828.298	17349
828.437	17379
828.577	17299
828.716	17452
828.855	17200
828.994	17022
829.134	17056
829.273	17025
829.412	17037
829.551	16927
829.69	17102
829.829	17064
829.968	17117
830.107	17064
830.246	17147
830.385	16949
830.524	17022
830.663	17006
830.802	16782
830.941	16752
831.08	16649
831.219	16755
831.357	16782
831.496	16942
831.635	16755
831.774	16550
831.913	16634
832.051	16500
832.19	16508
832.329	16527
832.467	16402
832.606	16356
832.744	16284
832.883	16352
833.022	16322
833.16	16432
833.299	16371
833.437	16398
833.576	16550
833.714	16455
833.852	16424
833.991	16523
834.129	16504
834.267	16500
834.406	16379
834.544	16485
834.682	16436
834.821	16409
834.959	16561
835.097	16360
835.235	16527
835.373	16447
835.511	16516
835.65	16436
835.788	16360
835.926	16249
836.064	16158
836.202	16166
836.34	16360
836.478	16386
836.615	16348
836.753	16325
836.891	16409
837.029	16291
837.167	16276
837.305	16261
837.443	16242
837.58	16219
837.718	16306
837.856	16318
837.993	16162
838.131	16303
838.269	16158
838.406	16173
838.544	16139
838.681	15918
838.819	15895
838.956	15861
839.094	15739
839.231	15701
839.369	15930
839.506	16173
839.643	16032
839.781	15823
839.918	15766
840.055	15774
840.193	15778
840.33	15781
840.467	15785
840.604	15880
840.742	16101
840.879	15618
841.016	15743
841.153	15732
841.29	15888
841.427	15873
841.564	15907
841.701	15854
841.838	15800
841.975	15739
842.112	15739
842.249	15618
842.385	15564
842.522	15762
842.659	15606
842.796	15568
842.933	15591
843.069	15530
843.206	15686
843.343	15591
843.479	15576
843.616	15622
843.752	15340
843.889	15389
844.025	15576
844.162	15340
844.298	15496
844.435	15416
844.571	15283
844.708	15386
844.844	15488
844.98	15545
845.117	15424
845.253	15351
845.389	15306
845.525	15249
845.661	15264
845.798	15169
845.934	15207
846.07	15085
846.206	15203
846.342	15351
846.478	15195
846.614	14979
846.75	14880
846.886	14902
847.022	15066
847.158	14876
847.294	15001
847.429	14967
847.565	14899
847.701	15142
847.837	14674
847.972	14659
848.108	14735
848.244	14686
848.379	14545
848.515	14473
848.65	14454
848.786	14499
848.921	14507
849.057	14697
849.192	14670
849.328	14617
849.463	14492
849.598	14594
849.734	14412
849.869	14431
850.004	14400
850.14	14324
850.275	14381
850.41	14240
850.545	14259
850.68	14206
850.815	14271
850.95	14229
851.085	14473
851.22	14450
851.355	14294
851.49	14229
851.625	14294
851.76	14210
851.895	14035
852.03	14073
852.165	14259
852.299	14366
852.434	14442
852.569	14309
852.703	14317
852.838	14374
852.973	14393
853.107	14469
853.242	14183
853.376	14081
853.511	14043
853.645	14153
853.78	14275
853.914	14286
854.048	14187
854.183	14168
854.317	14172
854.451	14294
854.585	14115
854.72	14153
854.854	14195
854.988	14119
855.122	14111
855.256	13997
855.39	14286
855.524	14290
855.658	14317
855.792	14252
855.926	14244
856.06	14305
856.194	14256
856.327	14107
856.461	14088
856.595	14111
856.729	14164
856.862	14263
856.996	14176
857.13	14229
857.263	14282
857.397	14328
857.53	14195
857.664	14221
857.797	14324
857.931	14218
858.064	14259
858.197	14176
858.331	14142
858.464	14138
858.597	14035
858.731	14237
858.864	14149
858.997	14138
859.13	14149
859.263	14259
859.396	14282
859.529	14157
859.662	14065
859.795	14256
859.928	14202
860.061	14233
860.194	14408
860.327	14237
860.46	14073
860.592	14218
860.725	14256
860.858	14294
860.99	14153
861.123	14043
861.256	14210
861.388	14229
861.521	14975
861.653	14031
861.786	13959
861.918	14024
862.05	14161
862.183	14103
862.315	14115
862.447	14214
862.58	14229
862.712	14005
862.844	13845
862.976	14062
863.108	13978
863.24	14381
863.372	13849
863.504	13951
863.636	13875
863.768	14039
863.9	13947
864.032	13928
864.164	13974
864.296	13963
864.428	14107
864.559	14020
864.691	14096
864.823	14020
864.954	14001
865.086	14008
865.217	13909
865.349	13951
865.48	13932
865.612	13997
865.743	14005
865.875	14012
866.006	13906
866.137	13856
866.269	14020
866.4	13921
866.531	13898
866.662	13955
866.793	13879
866.924	13986
867.055	13932
867.186	13940
867.317	13890
867.448	13894
867.579	13898
867.71	13841
867.841	13845
867.972	14005
868.103	13932
868.233	13936
868.364	13947
868.495	13982
868.625	14210
868.756	14221
868.886	14138
869.017	14157
869.147	14351
869.278	14377
869.408	14206
869.539	14161
869.669	14252
869.799	14195
869.929	14206
870.06	14298
870.19	14663
870.32	14507
870.45	14545
870.58	14640
870.71	14686
870.84	14678
870.97	14594
871.1	14632
871.23	14838
871.36	14743
871.489	14686
871.619	14765
871.749	14800
871.879	14788
872.008	14864
872.138	14807
872.267	14815
872.397	14598
872.526	14552
872.656	14644
872.785	14533
872.915	14781
873.044	14918
873.173	14765
873.303	14910
873.432	14880
873.561	14956
873.69	14842
873.819	14929
873.948	14948
874.077	14762
874.206	14880
874.335	14838
874.464	15005
874.593	15169
874.722	15036
874.851	15138
874.979	15154
875.108	15176
875.237	15077
875.365	14971
875.494	15074
875.623	15317
875.751	15150
875.88	15203
876.008	15268
876.136	15279
876.265	15641
876.393	15698
876.521	15701
876.65	15599
876.778	15580
876.906	15458
877.034	15507
877.162	15515
877.29	15580
877.418	15694
877.546	15572
877.674	15603
877.802	15530
877.93	15610
878.058	15507
878.185	15469
878.313	15648
878.441	15633
878.568	15431
878.696	15606
878.824	15530
878.951	15625
879.079	15698
879.206	15857
879.333	15747
879.461	15599
879.588	15701
879.715	15690
879.842	15876
879.97	15724
880.097	15374
880.224	15355
880.351	15382
880.478	15412
880.605	15393
880.732	15416
880.859	15728
880.986	15443
881.112	15507
881.239	15317
881.366	15237
881.493	15112
881.619	15097
881.746	15043
881.872	15127
881.999	15070
882.125	15032
882.252	15097
882.378	15032
882.505	15306
882.631	14925
882.757	14975
882.883	15032
883.01	14883
883.136	14845
883.262	14773
883.388	14819
883.514	14906
883.64	14834
883.766	14868
883.892	14762
884.018	14773
884.143	14956
884.269	15032
884.395	14735
884.52	14625
884.646	14598
884.772	14526
884.897	14438
885.023	14594
885.148	14720
885.274	14754
885.399	14667
885.524	14575
885.65	14602
885.775	14629
885.9	14602
886.025	14648
886.15	14712
886.275	14629
886.4	14442
886.525	14514
886.65	14522
886.775	14404
886.9	14701
887.025	14746
887.149	14651
887.274	14492
887.399	14427
887.523	14415
887.648	14320
887.773	14385
887.897	14568
888.021	14503
888.146	14351
888.27	14575
888.395	14530
888.519	14473
888.643	14499
888.767	14446
888.891	14419
889.015	14275
889.139	14393
889.263	14248
889.387	14366
889.511	14499
889.635	14400
889.759	14225
889.883	14263
890.006	14389
890.13	14507
890.254	14271
890.377	14282
890.501	13989
890.624	14134
890.748	14240
890.871	14054
890.995	13925
891.118	13959
891.241	14001
891.364	13970
891.488	14096
891.611	13936
891.734	14001
891.857	13959
891.98	14050
892.103	14115
892.226	14035
892.349	14039
892.471	13879
892.594	13894
892.717	14035
892.839	13959
892.962	14050
893.085	14111
893.207	14069
893.33	13951
893.452	13883
893.575	14111
893.697	14031
893.819	14164
893.941	14210
894.064	14180
894.186	13986
894.308	14027
894.43	14168
894.552	14221
894.674	14115
894.796	14088
894.918	14027
895.04	14096
895.161	14149
895.283	14088
895.405	13974
895.526	14119
895.648	14115
895.769	14103
895.891	14126
896.012	14153
896.134	14187
896.255	14225
896.376	14157
896.498	14123
896.619	14164
896.74	14225
896.861	14221
896.982	14484
897.103	14651
897.224	14396
897.345	14374
897.466	14351
897.587	14419
897.708	14545
897.828	14476
897.949	14385
898.07	14320
898.19	14454
898.311	14560
898.431	14427
898.552	14442
898.672	14571
898.792	14602
898.913	14514
899.033	14469
899.153	14396
899.273	14286
899.393	14339
899.513	14370
899.633	14385
899.753	14438
899.873	14389
899.993	14507
900.113	14366
900.232	14457
900.352	14362
900.472	14275
900.591	14153
900.711	14233
900.83	14199
900.95	14263
901.069	14339
901.189	14149
901.308	13921
901.427	13837
901.546	13913
901.665	14012
901.784	13989
901.904	13860
902.023	13746
902.141	13571
902.26	13529
902.379	13666
902.498	13533
902.617	13540
902.735	13651
902.854	13518
902.973	13430
903.091	13202
903.21	13263
903.328	13187
903.446	13156
903.565	13137
903.683	13122
903.801	12913
903.919	13053
904.038	13080
904.156	12886
904.274	12924
904.392	12928
904.51	12947
904.627	12791
904.745	12928
904.863	12993
904.981	12745
905.098	12570
905.216	12563
905.334	12696
905.451	12536
905.569	12574
905.686	12639
905.803	12597
905.921	12308
906.038	12483
906.155	12403
906.272	12369
906.389	12350
906.506	12197
906.623	12258
906.74	12235
906.857	11980
906.974	12068
907.091	12258
907.208	12262
907.324	12194
907.441	12095
907.557	11851
907.674	11832
907.79	11855
907.907	11939
908.023	11999
908.139	11920
908.256	11958
908.372	11969
908.488	11752
908.604	11729
908.72	11680
908.836	11684
908.952	11680
909.068	11707
909.184	11764
909.3	11688
909.415	11798
909.531	11649
909.647	11425
909.762	11478
909.878	11463
909.993	11459
910.108	11448
910.224	11421
910.339	11379
910.454	11330
910.57	11246
910.685	11193
910.8	11516
910.915	11429
911.03	11349
911.145	11216
911.259	11155
911.374	11159
911.489	11128
911.604	11045
911.718	10881
911.833	10900
911.947	10850
912.062	10793
912.176	10873
912.291	10961
912.405	10866
912.519	11170
912.633	11060
912.748	10987
912.862	10946
912.976	10793
913.09	10637
913.204	10767
913.318	10774
913.431	10869
913.545	10904
913.659	10915
913.772	10797
913.886	10698
914	10664
914.113	10790
914.226	10900
914.34	10759
914.453	10645
914.566	10755
914.68	10550
914.793	10561
914.906	10394
915.019	10268
915.132	10306
915.245	10356
915.358	10325
915.47	10443
915.583	10470
915.696	10493
915.809	10500
915.921	10622
916.034	10371
916.146	10322
916.259	10337
916.371	10519
916.483	10371
916.595	10382
916.708	10329
916.82	10382
916.932	10371
917.044	10272
917.156	10314
917.268	10265
917.38	10261
917.491	10261
917.603	10303
917.715	10310
917.826	10390
917.938	10295
918.049	10158
918.161	10249
918.272	10394
918.384	10421
918.495	10314
918.606	10074
918.717	10010
918.828	10093
918.939	10162
919.05	10051
919.161	10124
919.272	9926
919.383	9949
919.494	10185
919.604	10367
919.715	10112
919.826	10063
919.936	10097
920.047	10261
920.157	10150
920.267	10322
920.378	10169
920.488	10124
920.598	10386
920.708	10421
920.818	10421
920.928	10375
921.038	10546
921.148	10424
921.258	10109
921.368	10086
921.477	10040
921.587	9949
921.697	9903
921.806	10002
921.916	9949
922.025	9740
922.134	9751
922.244	9610
922.353	9743
922.462	9671
922.571	9511
922.68	9397
922.789	9424
922.898	9492
923.007	9332
923.116	9488
923.224	9367
923.333	9424
923.442	9310
923.55	9291
923.659	9294
923.767	9386
923.876	9241
923.984	9302
924.092	9192
924.201	9256
924.309	9214
924.417	9245
924.525	9211
924.633	9287
924.741	10147
924.849	9020
924.956	9207
925.064	9123
925.172	8998
925.279	9047
925.387	9058
925.494	9081
925.602	9180
925.709	9135
925.816	8975
925.924	9005
926.031	9146
926.138	9119
926.245	9146
926.352	8994
926.459	9184
926.566	9165
926.673	9036
926.779	8963
926.886	8891
926.993	8834
927.099	8762
927.206	8739
927.312	8796
927.419	8861
927.525	8762
927.631	8773
927.737	8629
927.843	8701
927.95	8640
928.056	8644
928.162	8682
928.267	8746
928.373	9363
928.479	8804
928.585	8575
928.69	8640
928.796	8689
928.901	8587
929.007	8457
929.112	8545
929.218	8541
929.323	8511
929.428	8552
929.533	8598
929.638	8438
929.743	8514
929.848	8556
929.953	8461
930.058	8370
930.163	8221
930.267	8305
930.372	8370
930.477	8210
930.581	8511
930.685	8362
930.79	8252
930.894	8282
930.998	8210
931.103	8396
931.207	8081
931.311	7967
931.415	7928
931.519	7715
931.623	7734
