Data from test_V78500241_748.txt Node
Date: Fri Mar 25 14:38:55 CST 2022
User: usil
Spectrometer: V785-0024
Trigger mode: 0
Integration Time (sec): 4.000000E-1
Scans to average: 1
Nonlinearity correction enabled: false
Boxcar width: 0
Storing dark spectrum: false
XAxis mode: Wavelengths
Number of Pixels in Spectrum: 1024
>>>>>Begin Spectral Data<<<<<
801.071	27047
801.214	26948
801.356	26697
801.499	26629
801.641	26461
801.783	26495
801.926	26564
802.068	26438
802.211	26199
802.353	26240
802.496	25982
802.638	26062
802.78	25894
802.923	25974
803.065	25791
803.208	25826
803.35	26027
803.492	26115
803.635	26054
803.777	25989
803.919	26107
804.061	26305
804.204	26199
804.346	26134
804.488	26142
804.63	26138
804.773	26096
804.915	26244
805.057	26469
805.199	26492
805.341	26530
805.483	26518
805.626	26625
805.768	26750
805.91	26792
806.052	26948
806.194	26998
806.336	27378
806.478	27431
806.62	27663
806.762	27903
806.904	28360
807.046	28839
807.188	29235
807.33	29509
807.472	30197
807.614	30905
807.756	31810
807.898	32773
808.04	34470
808.182	36604
808.324	39416
808.465	42483
808.607	45778
808.749	48734
808.891	50568
809.033	50861
809.174	49050
809.316	46173
809.458	42547
809.6	39119
809.741	36079
809.883	33949
810.025	32507
810.166	31213
810.308	30361
810.45	29745
810.591	29299
810.733	28584
810.875	28299
811.016	27903
811.158	27789
811.299	27580
811.441	27561
811.582	27458
811.724	27245
811.865	26963
812.007	27024
812.148	26811
812.29	26876
812.431	26948
812.573	26899
812.714	26998
812.855	27028
812.997	26994
813.138	27127
813.279	26940
813.421	26830
813.562	26716
813.703	26537
813.845	26480
813.986	26024
814.127	25841
814.268	25738
814.41	25704
814.551	25761
814.692	25708
814.833	25422
814.974	25460
815.115	25491
815.256	25403
815.397	25350
815.539	25206
815.68	25285
815.821	25133
815.962	25012
816.103	25152
816.244	24935
816.385	24802
816.526	24817
816.666	24635
816.807	24422
816.948	24585
817.089	24509
817.23	24555
817.371	24399
817.512	24361
817.653	24308
817.793	24445
817.934	24342
818.075	24270
818.216	24334
818.356	24209
818.497	24247
818.638	23939
818.778	23931
818.919	24140
819.06	24106
819.2	24251
819.341	24216
819.481	24334
819.622	24475
819.762	24642
819.903	24418
820.043	24369
820.184	24270
820.324	24281
820.465	24395
820.605	24216
820.746	24224
820.886	23980
821.026	24178
821.167	24034
821.307	24205
821.447	24182
821.588	24045
821.728	23741
821.868	23619
822.008	23558
822.149	23387
822.289	23482
822.429	23265
822.569	23098
822.709	22946
822.849	22847
822.99	22923
823.13	22999
823.27	22843
823.41	22733
823.55	22447
823.69	22729
823.83	22634
823.97	22660
824.11	22474
824.25	22318
824.389	22417
824.529	22535
824.669	22478
824.809	22561
824.949	22535
825.089	22478
825.228	22470
825.368	22207
825.508	22215
825.648	22310
825.787	22242
825.927	22276
826.067	22185
826.206	22158
826.346	22356
826.485	22120
826.625	22177
826.765	22181
826.904	22215
827.044	21956
827.183	21892
827.323	21876
827.462	21884
827.601	22010
827.741	21778
827.88	21831
828.02	21759
828.159	21705
828.298	21857
828.437	21857
828.577	21797
828.716	21911
828.855	21591
828.994	21583
829.134	21629
829.273	21485
829.412	21420
829.551	21496
829.69	21511
829.829	21500
829.968	21614
830.107	21523
830.246	21462
830.385	21386
830.524	21519
830.663	21195
830.802	21211
830.941	21123
831.08	21226
831.219	21275
831.357	21275
831.496	21256
831.635	21161
831.774	21051
831.913	21112
832.051	21058
832.19	21062
832.329	21058
832.467	20918
832.606	20933
832.744	21020
832.883	21039
833.022	21131
833.16	21207
833.299	21355
833.437	21401
833.576	21603
833.714	21701
833.852	21915
833.991	22040
834.129	22226
834.267	22097
834.406	22143
834.544	22105
834.682	21953
834.821	21743
834.959	21835
835.097	21355
835.235	21458
835.373	21344
835.511	21131
835.65	20982
835.788	21020
835.926	20724
836.064	20754
836.202	20724
836.34	20735
836.478	20880
836.615	20693
836.753	20727
836.891	20739
837.029	20785
837.167	20629
837.305	20526
837.443	20533
837.58	20412
837.718	20636
837.856	20484
837.993	20419
838.131	20461
838.269	20362
838.406	20317
838.544	20271
838.681	20126
838.819	20088
838.956	20065
839.094	20043
839.231	19921
839.369	20077
839.506	20218
839.643	20122
839.781	19875
839.918	19868
840.055	19959
840.193	19875
840.33	19913
840.467	19818
840.604	19879
840.742	20142
840.879	19814
841.016	19750
841.153	19799
841.29	20016
841.427	19883
841.564	19963
841.701	19864
841.838	19746
841.975	19864
842.112	19814
842.249	19784
842.385	19624
842.522	19947
842.659	19833
842.796	19685
842.933	19890
843.069	19772
843.206	19803
843.343	19989
843.479	19947
843.616	19776
843.752	19765
843.889	19791
844.025	20008
844.162	19776
844.298	20081
844.435	20237
844.571	20427
844.708	20746
844.844	21142
844.98	21618
845.117	22284
845.253	23227
845.389	25038
845.525	28854
845.661	35071
845.798	41988
845.934	47360
846.07	48966
846.206	47638
846.342	42711
846.478	35775
846.614	29570
846.75	25677
846.886	23326
847.022	22044
847.158	20975
847.294	20450
847.429	20111
847.565	19902
847.701	19879
847.837	19301
847.972	19126
848.108	19346
848.244	19118
848.379	18863
848.515	18802
848.65	18871
848.786	18711
848.921	18779
849.057	18837
849.192	18734
849.328	18692
849.463	18703
849.598	18654
849.734	18441
849.869	18528
850.004	18399
850.14	18422
850.275	18483
850.41	18144
850.545	18353
850.68	18247
850.815	18285
850.95	18315
851.085	18513
851.22	18384
851.355	18361
851.49	18338
851.625	18384
851.76	18448
851.895	18247
852.03	18251
852.165	18323
852.299	18395
852.434	18467
852.569	18441
852.703	18429
852.838	18372
852.973	18585
853.107	18578
853.242	18498
853.376	18517
853.511	18361
853.645	18429
853.78	18669
853.914	18513
854.048	18563
854.183	18620
854.317	18665
854.451	18863
854.585	18639
854.72	18608
854.854	18650
854.988	18486
855.122	18426
855.256	18311
855.39	18399
855.524	18433
855.658	18289
855.792	18281
855.926	18395
856.06	18372
856.194	18365
856.327	18205
856.461	18057
856.595	18163
856.729	18209
856.862	18304
856.996	18159
857.13	18220
857.263	18369
857.397	18220
857.53	18129
857.664	18232
857.797	18144
857.931	18277
858.064	18053
858.197	18391
858.331	18102
858.464	18057
858.597	17950
858.731	18026
858.864	18034
858.997	17999
859.13	18098
859.263	18167
859.396	18129
859.529	18060
859.662	17965
859.795	18034
859.928	17999
860.061	18129
860.194	18098
860.327	18034
860.46	17999
860.592	18167
860.725	18155
860.858	18110
860.99	17927
861.123	17882
861.256	17779
861.388	17939
861.521	18688
861.653	17870
861.786	17870
861.918	17863
862.05	17920
862.183	17916
862.315	18003
862.447	17920
862.58	17942
862.712	17813
862.844	17710
862.976	17726
863.108	17718
863.24	18136
863.372	17684
863.504	17672
863.636	17627
863.768	17665
863.9	17646
864.032	17600
864.164	17619
864.296	17600
864.428	17802
864.559	17809
864.691	17722
864.823	17661
864.954	17680
865.086	17695
865.217	17570
865.349	17596
865.48	17551
865.612	17566
865.743	17733
865.875	17573
866.006	17516
866.137	17767
866.269	17551
866.4	17596
866.531	17577
866.662	17535
866.793	17543
866.924	17376
867.055	17573
867.186	17455
867.317	17433
867.448	17318
867.579	17436
867.71	17539
867.841	17543
867.972	17535
868.103	17741
868.233	17501
868.364	17539
868.495	17478
868.625	17901
868.756	17988
868.886	17615
869.017	17741
869.147	17882
869.278	18079
869.408	17859
869.539	17783
869.669	17870
869.799	17855
869.929	18003
870.06	17912
870.19	18072
870.32	18091
870.45	18190
870.58	18251
870.71	18452
870.84	18414
870.97	18323
871.1	18292
871.23	18410
871.36	18452
871.489	18380
871.619	18532
871.749	18460
871.879	18483
872.008	18734
872.138	18612
872.267	18479
872.397	18467
872.526	18445
872.656	18471
872.785	18460
872.915	18715
873.044	18749
873.173	18711
873.303	18802
873.432	18829
873.561	18867
873.69	18875
873.819	18890
873.948	18920
874.077	18848
874.206	18852
874.335	18852
874.464	19080
874.593	19213
874.722	19251
874.851	19324
874.979	19373
875.108	19525
875.237	19324
875.365	19244
875.494	19487
875.623	19597
875.751	19422
875.88	19480
876.008	19803
876.136	19898
876.265	20096
876.393	20377
876.521	20332
876.65	20385
876.778	20461
876.906	20412
877.034	20465
877.162	20571
877.29	20381
877.418	20727
877.546	20811
877.674	20891
877.802	21112
877.93	21214
878.058	21389
878.185	21564
878.313	21819
878.441	22249
878.568	22443
878.696	23109
878.824	23946
878.951	25251
879.079	26693
879.206	28839
879.333	30981
879.461	32769
879.588	33979
879.715	33812
879.842	33211
879.97	31175
880.097	28828
880.224	27066
880.351	25883
880.478	24882
880.605	24346
880.732	24106
880.859	23980
880.986	23668
881.112	23490
881.239	23387
881.366	23242
881.493	23162
881.619	23083
881.746	23083
881.872	23178
881.999	23140
882.125	23109
882.252	23322
882.378	23337
882.505	23452
882.631	23269
882.757	23128
882.883	23231
883.01	23162
883.136	23064
883.262	23029
883.388	22892
883.514	23090
883.64	23162
883.766	23006
883.892	22877
884.018	22816
884.143	23174
884.269	23178
884.395	22881
884.52	22843
884.646	22809
884.772	22801
884.897	22641
885.023	22812
885.148	22873
885.274	22904
885.399	22816
885.524	22508
885.65	22531
885.775	22238
885.9	22299
886.025	22086
886.15	22040
886.275	21759
886.4	21583
886.525	21469
886.65	21245
886.775	21127
886.9	21138
887.025	21237
887.149	20883
887.274	20602
887.399	20530
887.523	20419
887.648	20180
887.773	20229
887.897	20324
888.021	20206
888.146	20084
888.27	20126
888.395	20035
888.519	19989
888.643	19788
888.767	19898
888.891	19734
889.015	19548
889.139	19552
889.263	19480
889.387	19529
889.511	19605
889.635	19483
889.759	19297
889.883	19308
890.006	19263
890.13	19297
890.254	19175
890.377	19000
890.501	18859
890.624	18856
890.748	18924
890.871	18715
890.995	18540
891.118	18551
891.241	18544
891.364	18486
891.488	18692
891.611	18559
891.734	18559
891.857	18426
891.98	18551
892.103	18464
892.226	18422
892.349	18281
892.471	18190
892.594	18300
892.717	18171
892.839	18095
892.962	18182
893.085	18182
893.207	18144
893.33	18003
893.452	17920
893.575	18022
893.697	17958
893.819	18144
893.941	18163
894.064	18041
894.186	17855
894.308	17691
894.43	17908
894.552	17961
894.674	17992
894.796	17767
894.918	17661
895.04	17672
895.161	17851
895.283	17775
895.405	17737
895.526	17672
895.648	17733
895.769	17752
895.891	17703
896.012	17695
896.134	17703
896.255	17722
896.376	17672
896.498	17649
896.619	17737
896.74	17600
896.861	17722
896.982	17939
897.103	18117
897.224	17885
897.345	17866
897.466	17741
897.587	17813
897.708	17923
897.828	17878
897.949	17752
898.07	17630
898.19	17707
898.311	17859
898.431	17779
898.552	17809
898.672	17920
898.792	17946
898.913	17802
899.033	17703
899.153	17722
899.273	17566
899.393	17573
899.513	17680
899.633	17551
899.753	17630
899.873	17547
899.993	17741
900.113	17539
900.232	17551
900.352	17505
900.472	17505
900.591	17322
900.711	17433
900.83	17402
900.95	17532
901.069	17600
901.189	17288
901.308	17075
901.427	17033
901.546	16942
901.665	16942
901.784	16885
901.904	16786
902.023	16679
902.141	16481
902.26	16432
902.379	16474
902.498	16421
902.617	16405
902.735	16516
902.854	16428
902.973	16265
903.091	16158
903.21	16097
903.328	16090
903.446	15979
903.565	15850
903.683	15854
903.801	15694
903.919	15857
904.038	15762
904.156	15682
904.274	15679
904.392	15526
904.51	15641
904.627	15686
904.745	15576
904.863	15660
904.981	15302
905.098	15340
905.216	15260
905.334	15264
905.451	15279
905.569	15203
905.686	15241
905.803	15214
905.921	15112
906.038	15146
906.155	15085
906.272	14883
906.389	14941
906.506	14826
906.623	14830
906.74	14781
906.857	14758
906.974	14617
907.091	14853
907.208	14815
907.324	14792
907.441	14667
907.557	14541
907.674	14541
907.79	14362
907.907	14396
908.023	14427
908.139	14503
908.256	14480
908.372	14492
908.488	14298
908.604	14244
908.72	14206
908.836	14252
908.952	14153
909.068	14298
909.184	14317
909.3	14195
909.415	14225
909.531	14206
909.647	13959
909.762	14084
909.878	13982
909.993	13902
910.108	13967
910.224	14016
910.339	13940
910.454	13909
910.57	13715
910.685	13784
910.8	14054
910.915	13887
911.03	13818
911.145	13636
911.259	13556
911.374	13647
911.489	13563
911.604	13453
911.718	13316
911.833	13327
911.947	13259
912.062	13175
912.176	13209
912.291	13308
912.405	13327
912.519	13495
912.633	13510
912.748	13396
912.862	13232
912.976	13247
913.09	13114
913.204	13095
913.318	13251
913.431	13324
913.545	13244
913.659	13312
913.772	13194
913.886	13065
914	13027
914.113	13133
914.226	13095
914.34	13095
914.453	12905
914.566	13129
914.68	12970
914.793	13008
914.906	12741
915.019	12635
915.132	12677
915.245	12768
915.358	12795
915.47	12798
915.583	12783
915.696	12840
915.809	12817
915.921	12913
916.034	12711
916.146	12749
916.259	12616
916.371	12829
916.483	12722
916.595	12646
916.708	12658
916.82	12726
916.932	12681
917.044	12692
917.156	12650
917.268	12578
917.38	12494
917.491	12544
917.603	12506
917.715	12608
917.826	12578
917.938	12441
918.049	12429
918.161	12509
918.272	12559
918.384	12654
918.495	12498
918.606	12304
918.717	12213
918.828	12346
918.939	12315
919.05	12247
919.161	12273
919.272	12049
919.383	12144
919.494	12350
919.604	12330
919.715	12296
919.826	12182
919.936	12289
920.047	12296
920.157	12330
920.267	12407
920.378	12167
920.488	12216
920.598	12429
920.708	12544
920.818	12418
920.928	12353
921.038	12593
921.148	12509
921.258	12292
921.368	12171
921.477	12079
921.587	11977
921.697	11980
921.806	11992
921.916	11893
922.025	11676
922.134	11756
922.244	11722
922.353	11718
922.462	11577
922.571	11471
922.68	11353
922.789	11284
922.898	11379
923.007	11311
923.116	11383
923.224	11436
923.333	11265
923.442	11231
923.55	11208
923.659	11174
923.767	11250
923.876	11113
923.984	11197
924.092	11079
924.201	11181
924.309	11140
924.417	11166
924.525	11113
924.633	11056
924.741	11847
924.849	10908
924.956	11079
925.064	10793
925.172	10763
925.279	10919
925.387	10987
925.494	10991
925.602	10984
925.709	10972
925.816	10793
925.924	10767
926.031	10927
926.138	10885
926.245	10942
926.352	10805
926.459	10957
926.566	10923
926.673	10828
926.779	10763
926.886	10710
926.993	10523
927.099	10493
927.206	10500
927.312	10478
927.419	10535
927.525	10519
927.631	10527
927.737	10402
927.843	10447
927.95	10295
928.056	10402
928.162	10398
928.267	10409
928.373	11098
928.479	10470
928.585	10268
928.69	10375
928.796	10466
928.901	10310
929.007	10158
929.112	10272
929.218	10234
929.323	10188
929.428	10139
929.533	10341
929.638	10124
929.743	10185
929.848	10200
929.953	10143
930.058	10040
930.163	9922
930.267	9800
930.372	10097
930.477	9895
930.581	10120
930.685	9949
930.79	9949
930.894	9823
930.998	9793
931.103	9926
931.207	9663
931.311	9515
931.415	9450
931.519	9313
931.623	9302
