Data from test_V78500241_998.txt Node
Date: Fri Mar 25 14:40:40 CST 2022
User: usil
Spectrometer: V785-0024
Trigger mode: 0
Integration Time (sec): 4.000000E-1
Scans to average: 1
Nonlinearity correction enabled: false
Boxcar width: 0
Storing dark spectrum: false
XAxis mode: Wavelengths
Number of Pixels in Spectrum: 1024
>>>>>Begin Spectral Data<<<<<
801.071	23155
801.214	23151
801.356	22869
801.499	22649
801.641	22546
801.783	22451
801.926	22554
802.068	22466
802.211	22379
802.353	22261
802.496	22082
802.638	21998
802.78	22021
802.923	21930
803.065	21842
803.208	21873
803.35	21804
803.492	21956
803.635	21884
803.777	21892
803.919	21911
804.061	22154
804.204	21865
804.346	21880
804.488	21724
804.63	21842
804.773	21717
804.915	21869
805.057	21895
805.199	21759
805.341	21781
805.483	21926
805.626	21922
805.768	21682
805.91	21800
806.052	21819
806.194	21793
806.336	21934
806.478	21873
806.62	21846
806.762	21937
806.904	22105
807.046	22363
807.188	22356
807.33	22421
807.472	22436
807.614	22390
807.756	22447
807.898	22204
808.04	22303
808.182	22481
808.324	22740
808.465	22805
808.607	23090
808.749	23288
808.891	23608
809.033	23764
809.174	23387
809.316	23212
809.458	23014
809.6	22717
809.741	22873
809.883	22755
810.025	22706
810.166	22603
810.308	22569
810.45	22641
810.591	22466
810.733	22257
810.875	22051
811.016	22048
811.158	21960
811.299	22173
811.441	22257
811.582	22257
811.724	22082
811.865	22120
812.007	22048
812.148	22082
812.29	22074
812.431	22204
812.573	22398
812.714	22230
812.855	22542
812.997	22618
813.138	22694
813.279	22573
813.421	22622
813.562	22489
813.703	22352
813.845	22204
813.986	21991
814.127	21682
814.268	21743
814.41	21641
814.551	21587
814.692	21599
814.833	21530
814.974	21488
815.115	21614
815.256	21431
815.397	21302
815.539	21416
815.68	21321
815.821	21287
815.962	21249
816.103	21359
816.244	21123
816.385	21100
816.526	20853
816.666	20868
816.807	20735
816.948	20781
817.089	20842
817.23	20804
817.371	20693
817.512	20617
817.653	20667
817.793	20632
817.934	20735
818.075	20686
818.216	20625
818.356	20724
818.497	20659
818.638	20431
818.778	20438
818.919	20377
819.06	20427
819.2	20556
819.341	20526
819.481	20465
819.622	20621
819.762	20918
819.903	20883
820.043	20785
820.184	20724
820.324	20708
820.465	20777
820.605	20678
820.746	20579
820.886	20499
821.026	20632
821.167	20476
821.307	20727
821.447	20670
821.588	20549
821.728	20313
821.868	20187
822.008	20111
822.149	19932
822.289	20077
822.429	19978
822.569	19837
822.709	19757
822.849	19552
822.99	19521
823.13	19472
823.27	19476
823.41	19384
823.55	19343
823.69	19289
823.83	19293
823.97	19259
824.11	19095
824.25	19084
824.389	19179
824.529	19289
824.669	19118
824.809	19213
824.949	19263
825.089	19255
825.228	19133
825.368	18981
825.508	18913
825.648	18962
825.787	18932
825.927	18970
826.067	18886
826.206	18795
826.346	18924
826.485	18890
826.625	18856
826.765	18966
826.904	18973
827.044	18741
827.183	18741
827.323	18669
827.462	18574
827.601	18570
827.741	18578
827.88	18578
828.02	18441
828.159	18563
828.298	18707
828.437	18696
828.577	18555
828.716	18681
828.855	18490
828.994	18365
829.134	18228
829.273	18479
829.412	18289
829.551	18235
829.69	18323
829.829	18319
829.968	18555
830.107	18479
830.246	18433
830.385	18311
830.524	18296
830.663	18087
830.802	18117
830.941	17920
831.08	17870
831.219	17954
831.357	17999
831.496	18140
831.635	17866
831.774	17828
831.913	17794
832.051	17707
832.19	17684
832.329	17764
832.467	17760
832.606	17554
832.744	17676
832.883	17581
833.022	17634
833.16	17714
833.299	17714
833.437	17718
833.576	17756
833.714	17836
833.852	17798
833.991	17718
834.129	17790
834.267	17786
834.406	17779
834.544	17729
834.682	17707
834.821	17703
834.959	17821
835.097	17714
835.235	17843
835.373	17646
835.511	17676
835.65	17554
835.788	17516
835.926	17493
836.064	17334
836.202	17448
836.34	17581
836.478	17615
836.615	17524
836.753	17516
836.891	17726
837.029	17634
837.167	17436
837.305	17391
837.443	17516
837.58	17341
837.718	17467
837.856	17516
837.993	17395
838.131	17474
838.269	17254
838.406	17372
838.544	17334
838.681	17128
838.819	16999
838.956	16991
839.094	16961
839.231	16908
839.369	17086
839.506	17395
839.643	17185
839.781	16946
839.918	16877
840.055	16991
840.193	16919
840.33	16900
840.467	16957
840.604	17033
840.742	17277
840.879	16702
841.016	16828
841.153	16824
841.29	17010
841.427	16949
841.564	17033
841.701	16987
841.838	16953
841.975	16904
842.112	16771
842.249	16752
842.385	16679
842.522	16938
842.659	16736
842.796	16706
842.933	16664
843.069	16710
843.206	16702
843.343	16778
843.479	16710
843.616	16713
843.752	16466
843.889	16489
844.025	16675
844.162	16489
844.298	16584
844.435	16550
844.571	16523
844.708	16565
844.844	16706
844.98	16752
845.117	16615
845.253	16542
845.389	16546
845.525	16900
845.661	17121
845.798	17436
845.934	17745
846.07	17752
846.206	17756
846.342	17657
846.478	17128
846.614	16618
846.75	16382
846.886	16181
847.022	16185
847.158	16147
847.294	16173
847.429	16025
847.565	16006
847.701	16322
847.837	15854
847.972	15709
848.108	15747
848.244	15793
848.379	15656
848.515	15599
848.65	15595
848.786	15587
848.921	15690
849.057	15838
849.192	15728
849.328	15679
849.463	15679
849.598	15633
849.734	15496
849.869	15515
850.004	15389
850.14	15477
850.275	15424
850.41	15313
850.545	15275
850.68	15332
850.815	15424
850.95	15466
851.085	15416
851.22	15511
851.355	15370
851.49	15500
851.625	15283
851.76	15329
851.895	15298
852.03	15249
852.165	15317
852.299	15329
852.434	15397
852.569	15378
852.703	15408
852.838	15477
852.973	15511
853.107	15545
853.242	15458
853.376	15363
853.511	15058
853.645	15211
853.78	15302
853.914	15203
854.048	15173
854.183	15199
854.317	15378
854.451	15481
854.585	15310
854.72	15237
854.854	15363
854.988	15180
855.122	15146
855.256	15066
855.39	15233
855.524	15294
855.658	15203
855.792	15298
855.926	15370
856.06	15264
856.194	15370
856.327	15252
856.461	15256
856.595	15138
856.729	15176
856.862	15329
856.996	15302
857.13	15355
857.263	15389
857.397	15329
857.53	15184
857.664	15275
857.797	15306
857.931	15321
858.064	15211
858.197	15344
858.331	15302
858.464	15184
858.597	15203
858.731	15176
858.864	15256
858.997	15272
859.13	15264
859.263	15211
859.396	15332
859.529	15135
859.662	15195
859.795	15272
859.928	15287
860.061	15405
860.194	15473
860.327	15252
860.46	15192
860.592	15195
860.725	15355
860.858	15329
860.99	15237
861.123	15097
861.256	15184
861.388	15142
861.521	15850
861.653	15100
861.786	15039
861.918	15081
862.05	15165
862.183	15260
862.315	15256
862.447	15252
862.58	15135
862.712	15097
862.844	14937
862.976	15074
863.108	14986
863.24	15431
863.372	14967
863.504	14956
863.636	15028
863.768	15066
863.9	14963
864.032	14933
864.164	14982
864.296	15058
864.428	15089
864.559	15112
864.691	15055
864.823	15017
864.954	15024
865.086	15051
865.217	15062
865.349	14876
865.48	14979
865.612	15032
865.743	15142
865.875	14956
866.006	14853
866.137	14937
866.269	15032
866.4	14948
866.531	14929
866.662	14872
866.793	14914
866.924	14975
867.055	14861
867.186	14952
867.317	14979
867.448	14979
867.579	14872
867.71	14773
867.841	14899
867.972	15051
868.103	14979
868.233	14941
868.364	15009
868.495	14982
868.625	15157
868.756	15245
868.886	15154
869.017	15093
869.147	15283
869.278	15355
869.408	15249
869.539	15252
869.669	15283
869.799	15306
869.929	15359
870.06	15306
870.19	15496
870.32	15519
870.45	15622
870.58	15568
870.71	15720
870.84	15682
870.97	15625
871.1	15549
871.23	15865
871.36	15831
871.489	15652
871.619	15766
871.749	15671
871.879	15876
872.008	15953
872.138	15724
872.267	15793
872.397	15610
872.526	15641
872.656	15568
872.785	15720
872.915	15915
873.044	15823
873.173	15861
873.303	15892
873.432	15911
873.561	15823
873.69	15838
873.819	15960
873.948	15934
874.077	15869
874.206	15831
874.335	15888
874.464	15926
874.593	16139
874.722	16154
874.851	16143
874.979	16268
875.108	16173
875.237	16192
875.365	16025
875.494	16105
875.623	16226
875.751	16177
875.88	16185
876.008	16386
876.136	16352
876.265	16607
876.393	16710
876.521	16710
876.65	16725
876.778	16752
876.906	16573
877.034	16561
877.162	16596
877.29	16645
877.418	16516
877.546	16626
877.674	16596
877.802	16599
877.93	16691
878.058	16637
878.185	16584
878.313	16634
878.441	16679
878.568	16565
878.696	16710
878.824	16854
878.951	16854
879.079	17174
879.206	17239
879.333	17322
879.461	17277
879.588	17459
879.715	17490
879.842	17547
879.97	17337
880.097	16930
880.224	16744
880.351	16812
880.478	16584
880.605	16672
880.732	16687
880.859	16801
880.986	16580
881.112	16733
881.239	16466
881.366	16177
881.493	16329
881.619	16219
881.746	16211
881.872	16280
881.999	16169
882.125	16284
882.252	16363
882.378	16329
882.505	16417
882.631	16173
882.757	16021
882.883	16166
883.01	16093
883.136	16086
883.262	15956
883.388	15899
883.514	16109
883.64	16090
883.766	16078
883.892	15918
884.018	15907
884.143	16067
884.269	16139
884.395	15892
884.52	15800
884.646	15835
884.772	15739
884.897	15819
885.023	15785
885.148	15873
885.274	15915
885.399	15892
885.524	15751
885.65	15595
885.775	15713
885.9	15816
886.025	15827
886.15	15785
886.275	15667
886.4	15622
886.525	15728
886.65	15580
886.775	15652
886.9	15899
887.025	15876
887.149	15755
887.274	15534
887.399	15488
887.523	15473
887.648	15317
887.773	15359
887.897	15599
888.021	15545
888.146	15367
888.27	15500
888.395	15580
888.519	15534
888.643	15492
888.767	15545
888.891	15405
889.015	15260
889.139	15355
889.263	15355
889.387	15454
889.511	15462
889.635	15405
889.759	15264
889.883	15268
890.006	15336
890.13	15363
890.254	15355
890.377	15218
890.501	15097
890.624	15039
890.748	15188
890.871	15013
890.995	15051
891.118	14902
891.241	15093
891.364	15028
891.488	15104
891.611	15028
891.734	15047
891.857	15085
891.98	14986
892.103	15028
892.226	15055
892.349	14914
892.471	14849
892.594	14891
892.717	14952
892.839	14986
892.962	15028
893.085	15119
893.207	14941
893.33	14758
893.452	14948
893.575	15013
893.697	14891
893.819	15089
893.941	15066
894.064	15077
894.186	14948
894.308	14925
894.43	15070
894.552	15146
894.674	15100
894.796	14826
894.918	14952
895.04	14921
895.161	15104
895.283	14971
895.405	14979
895.526	14952
895.648	15020
895.769	14986
895.891	15058
896.012	15085
896.134	15112
896.255	15020
896.376	15047
896.498	15039
896.619	15020
896.74	15032
896.861	15127
896.982	15359
897.103	15534
897.224	15325
897.345	15340
897.466	15291
897.587	15241
897.708	15504
897.828	15367
897.949	15393
898.07	15192
898.19	15287
898.311	15469
898.431	15374
898.552	15435
898.672	15515
898.792	15557
898.913	15439
899.033	15291
899.153	15233
899.273	15291
899.393	15245
899.513	15291
899.633	15260
899.753	15336
899.873	15218
899.993	15313
900.113	15302
900.232	15374
900.352	15226
900.472	15176
900.591	15097
900.711	15203
900.83	15066
900.95	15184
901.069	15199
901.189	15013
901.308	14948
901.427	14735
901.546	14785
901.665	14762
901.784	14811
901.904	14598
902.023	14571
902.141	14385
902.26	14412
902.379	14381
902.498	14385
902.617	14305
902.735	14362
902.854	14305
902.973	14267
903.091	14024
903.21	14054
903.328	14058
903.446	14027
903.565	13837
903.683	13868
903.801	13708
903.919	13883
904.038	13830
904.156	13830
904.274	13715
904.392	13674
904.51	13636
904.627	13643
904.745	13811
904.863	13750
904.981	13472
905.098	13400
905.216	13441
905.334	13335
905.451	13419
905.569	13251
905.686	13407
905.803	13457
905.921	13168
906.038	13304
906.155	13285
906.272	13046
906.389	13129
906.506	12989
906.623	12935
906.74	12894
906.857	12768
906.974	12935
907.091	12962
907.208	13034
907.324	12935
907.441	12798
907.557	12726
907.674	12623
907.79	12673
907.907	12585
908.023	12692
908.139	12719
908.256	12612
908.372	12616
908.488	12566
908.604	12467
908.72	12365
908.836	12369
908.952	12460
909.068	12452
909.184	12490
909.3	12422
909.415	12456
909.531	12353
909.647	12171
909.762	12213
909.878	12201
909.993	12178
910.108	12155
910.224	12079
910.339	12247
910.454	12076
910.57	12091
910.685	11992
910.8	12304
910.915	12171
911.03	12003
911.145	11954
911.259	11828
911.374	11878
911.489	11874
911.604	11847
911.718	11570
911.833	11653
911.947	11577
912.062	11452
912.176	11630
912.291	11577
912.405	11668
912.519	11794
912.633	11813
912.748	11691
912.862	11615
912.976	11448
913.09	11383
913.204	11440
913.318	11482
913.431	11551
913.545	11623
913.659	11573
913.772	11505
913.886	11398
914	11288
914.113	11436
914.226	11490
914.34	11421
914.453	11239
914.566	11444
914.68	11258
914.793	11258
914.906	11178
915.019	11056
915.132	10995
915.245	11018
915.358	11121
915.47	11159
915.583	11098
915.696	11166
915.809	11166
915.921	11258
916.034	11102
916.146	11071
916.259	11124
916.371	11102
916.483	11048
916.595	10987
916.708	11052
916.82	11025
916.932	10984
917.044	10987
917.156	10946
917.268	10824
917.38	10961
917.491	10862
917.603	10938
917.715	10984
917.826	10938
917.938	10816
918.049	10771
918.161	10881
918.272	11010
918.384	10900
918.495	10843
918.606	10767
918.717	10675
918.828	10763
918.939	10793
919.05	10630
919.161	10687
919.272	10516
919.383	10580
919.494	10812
919.604	10919
919.715	10729
919.826	10634
919.936	10710
920.047	10908
920.157	10896
920.267	10923
920.378	10805
920.488	10664
920.598	10995
920.708	11124
920.818	10957
920.928	10873
921.038	11067
921.148	11098
921.258	10740
921.368	10721
921.477	10637
921.587	10622
921.697	10451
921.806	10554
921.916	10413
922.025	10390
922.134	10303
922.244	10234
922.353	10318
922.462	10246
922.571	10131
922.68	9983
922.789	9991
922.898	10048
923.007	9937
923.116	10101
923.224	9953
923.333	9934
923.442	9930
923.55	9831
923.659	9975
923.767	9892
923.876	9846
923.984	9937
924.092	9850
924.201	9873
924.309	9895
924.417	9823
924.525	9762
924.633	9808
924.741	10683
924.849	9633
924.956	9770
925.064	9561
925.172	9469
925.279	9606
925.387	9622
925.494	9610
925.602	9701
925.709	9644
925.816	9515
925.924	9648
926.031	9717
926.138	9557
926.245	9618
926.352	9568
926.459	9686
926.566	9656
926.673	9580
926.779	9462
926.886	9439
926.993	9283
927.099	9393
927.206	9260
927.312	9279
927.419	9329
927.525	9283
927.631	9302
927.737	9268
927.843	9154
927.95	9100
928.056	9211
928.162	9184
928.267	9150
928.373	9740
928.479	9313
928.585	9005
928.69	9199
928.796	9211
928.901	9093
929.007	9039
929.112	9154
929.218	9131
929.323	9028
929.428	9077
929.533	9176
929.638	8937
929.743	8956
929.848	9032
929.953	9017
930.058	8823
930.163	8815
930.267	8750
930.372	8880
930.477	8712
930.581	8986
930.685	8853
930.79	8754
930.894	8708
930.998	8682
931.103	8792
931.207	8492
931.311	8408
931.415	8385
931.519	8221
931.623	8252
