Data from test_V78500241_1250.txt Node
Date: Fri Mar 25 14:42:25 CST 2022
User: usil
Spectrometer: V785-0024
Trigger mode: 0
Integration Time (sec): 4.000000E-1
Scans to average: 1
Nonlinearity correction enabled: false
Boxcar width: 0
Storing dark spectrum: false
XAxis mode: Wavelengths
Number of Pixels in Spectrum: 1024
>>>>>Begin Spectral Data<<<<<
801.071	22428
801.214	22306
801.356	21915
801.499	21892
801.641	21823
801.783	21785
801.926	21667
802.068	21641
802.211	21652
802.353	21606
802.496	21428
802.638	21188
802.78	21089
802.923	21157
803.065	21146
803.208	21024
803.35	21066
803.492	21081
803.635	21306
803.777	21173
803.919	21165
804.061	21485
804.204	21195
804.346	21009
804.488	20849
804.63	21112
804.773	20956
804.915	20967
805.057	21230
805.199	21066
805.341	21119
805.483	21108
805.626	21058
805.768	20998
805.91	21024
806.052	20921
806.194	20895
806.336	21100
806.478	21096
806.62	20944
806.762	21081
806.904	21150
807.046	21287
807.188	21329
807.33	21420
807.472	21454
807.614	21325
807.756	21329
807.898	21298
808.04	21104
808.182	21233
808.324	21131
808.465	21138
808.607	21405
808.749	21580
808.891	21614
809.033	21743
809.174	21564
809.316	21389
809.458	21492
809.6	21393
809.741	21454
809.883	21580
810.025	21507
810.166	21618
810.308	21603
810.45	21336
810.591	21450
810.733	21340
810.875	21317
811.016	21184
811.158	21081
811.299	21218
811.441	21180
811.582	21245
811.724	21256
811.865	21131
812.007	21154
812.148	21039
812.29	21214
812.431	21348
812.573	21496
812.714	21561
812.855	21762
812.997	21736
813.138	21816
813.279	21804
813.421	21660
813.562	21557
813.703	21519
813.845	21275
813.986	21085
814.127	20899
814.268	20796
814.41	20746
814.551	20712
814.692	20655
814.833	20720
814.974	20617
815.115	20712
815.256	20549
815.397	20514
815.539	20545
815.68	20408
815.821	20389
815.962	20514
816.103	20503
816.244	20343
816.385	20218
816.526	20168
816.666	19989
816.807	19989
816.948	19978
817.089	20024
817.23	19925
817.371	19894
817.512	19967
817.653	19913
817.793	19967
817.934	19868
818.075	19925
818.216	19826
818.356	19906
818.497	19734
818.638	19582
818.778	19575
818.919	19624
819.06	19609
819.2	19776
819.341	19818
819.481	19761
819.622	19955
819.762	20088
819.903	20065
820.043	19928
820.184	19864
820.324	19890
820.465	19982
820.605	19947
820.746	19883
820.886	19750
821.026	19761
821.167	19921
821.307	19986
821.447	19799
821.588	19643
821.728	19449
821.868	19388
822.008	19312
822.149	19156
822.289	19187
822.429	19000
822.569	18962
822.709	18916
822.849	18844
822.99	18707
823.13	18798
823.27	18661
823.41	18642
823.55	18555
823.69	18506
823.83	18612
823.97	18452
824.11	18262
824.25	18395
824.389	18414
824.529	18414
824.669	18228
824.809	18372
824.949	18319
825.089	18429
825.228	18353
825.368	18247
825.508	18232
825.648	18232
825.787	18232
825.927	18144
826.067	18182
826.206	18068
826.346	18136
826.485	18140
826.625	18197
826.765	18205
826.904	18144
827.044	18053
827.183	17851
827.323	17847
827.462	17885
827.601	17771
827.741	17794
827.88	17817
828.02	17581
828.159	17851
828.298	17923
828.437	17923
828.577	17824
828.716	17992
828.855	17699
828.994	17547
829.134	17642
829.273	17676
829.412	17459
829.551	17558
829.69	17676
829.829	17585
829.968	17687
830.107	17615
830.246	17585
830.385	17516
830.524	17341
830.663	17436
830.802	17307
830.941	17197
831.08	17299
831.219	17326
831.357	17299
831.496	17402
831.635	17162
831.774	17124
831.913	17083
832.051	17048
832.19	16980
832.329	17052
832.467	16995
832.606	16824
832.744	16843
832.883	16866
833.022	16782
833.16	16869
833.299	17010
833.437	16934
833.576	16968
833.714	16991
833.852	16904
833.991	17064
834.129	17041
834.267	16991
834.406	16923
834.544	16980
834.682	16949
834.821	16999
834.959	17185
835.097	16949
835.235	16877
835.373	16991
835.511	17003
835.65	16908
835.788	16881
835.926	16668
836.064	16649
836.202	16679
836.34	16923
836.478	16923
836.615	16828
836.753	16816
836.891	16961
837.029	16911
837.167	16797
837.305	16816
837.443	16854
837.58	16672
837.718	16869
837.856	16755
837.993	16820
838.131	16752
838.269	16603
838.406	16653
838.544	16630
838.681	16542
838.819	16440
838.956	16303
839.094	16291
839.231	16325
839.369	16478
839.506	16691
839.643	16500
839.781	16367
839.918	16276
840.055	16299
840.193	16230
840.33	16318
840.467	16257
840.604	16337
840.742	16508
840.879	16154
841.016	16265
841.153	16177
841.29	16322
841.427	16360
841.564	16394
841.701	16253
841.838	16306
841.975	16120
842.112	16325
842.249	16162
842.385	16044
842.522	16223
842.659	16116
842.796	16021
842.933	16059
843.069	16010
843.206	16097
843.343	16166
843.479	16109
843.616	16116
843.752	15827
843.889	15823
844.025	16063
844.162	15888
844.298	15972
844.435	15838
844.571	15823
844.708	15869
844.844	16086
844.98	16013
845.117	15930
845.253	15899
845.389	15781
845.525	15797
845.661	15789
845.798	15709
845.934	15781
846.07	15819
846.206	15842
846.342	15892
846.478	15633
846.614	15523
846.75	15401
846.886	15408
847.022	15485
847.158	15504
847.294	15412
847.429	15572
847.565	15435
847.701	15686
847.837	15135
847.972	15142
848.108	15302
848.244	15180
848.379	15051
848.515	14979
848.65	15028
848.786	15085
848.921	15028
849.057	15203
849.192	15211
849.328	15001
849.463	15039
849.598	14960
849.734	14914
849.869	14804
850.004	14811
850.14	14864
850.275	14830
850.41	14693
850.545	14705
850.68	14891
850.815	14857
850.95	14800
851.085	14979
851.22	14895
851.355	14804
851.49	14724
851.625	14754
851.76	14777
851.895	14716
852.03	14663
852.165	14746
852.299	14804
852.434	14849
852.569	14796
852.703	14765
852.838	14918
852.973	14990
853.107	14902
853.242	14708
853.376	14625
853.511	14579
853.645	14556
853.78	14716
853.914	14689
854.048	14579
854.183	14541
854.317	14648
854.451	14781
854.585	14575
854.72	14686
854.854	14705
854.988	14583
855.122	14731
855.256	14571
855.39	14644
855.524	14758
855.658	14682
855.792	14598
855.926	14670
856.06	14716
856.194	14746
856.327	14648
856.461	14632
856.595	14552
856.729	14606
856.862	14823
856.996	14632
857.13	14720
857.263	14807
857.397	14777
857.53	14659
857.664	14697
857.797	14785
857.931	14720
858.064	14727
858.197	14788
858.331	14648
858.464	14651
858.597	14541
858.731	14659
858.864	14651
858.997	14590
859.13	14678
859.263	14712
859.396	14705
859.529	14636
859.662	14720
859.795	14651
859.928	14655
860.061	14868
860.194	14773
860.327	14800
860.46	14697
860.592	14727
860.725	14815
860.858	14754
860.99	14594
861.123	14606
861.256	14667
861.388	14716
861.521	15408
861.653	14492
861.786	14575
861.918	14492
862.05	14484
862.183	14606
862.315	14636
862.447	14708
862.58	14568
862.712	14507
862.844	14343
862.976	14507
863.108	14446
863.24	14899
863.372	14309
863.504	14484
863.636	14442
863.768	14393
863.9	14446
864.032	14332
864.164	14278
864.296	14473
864.428	14434
864.559	14552
864.691	14495
864.823	14476
864.954	14473
865.086	14431
865.217	14339
865.349	14396
865.48	14457
865.612	14507
865.743	14644
865.875	14400
866.006	14408
866.137	14358
866.269	14370
866.4	14351
866.531	14427
866.662	14358
866.793	14446
866.924	14324
867.055	14362
867.186	14526
867.317	14385
867.448	14309
867.579	14366
867.71	14374
867.841	14305
867.972	14469
868.103	14393
868.233	14537
868.364	14495
868.495	14400
868.625	14648
868.756	14750
868.886	14480
869.017	14590
869.147	14838
869.278	14762
869.408	14670
869.539	14739
869.669	14788
869.799	14682
869.929	14754
870.06	14705
870.19	14918
870.32	14921
870.45	15005
870.58	15097
870.71	15260
870.84	15058
870.97	15066
871.1	15032
871.23	15313
871.36	15230
871.489	15195
871.619	15252
871.749	15310
871.879	15226
872.008	15287
872.138	15291
872.267	15252
872.397	15188
872.526	15043
872.656	15013
872.785	15077
872.915	15260
873.044	15302
873.173	15188
873.303	15370
873.432	15351
873.561	15439
873.69	15405
873.819	15378
873.948	15340
874.077	15351
874.206	15188
874.335	15294
874.464	15519
874.593	15587
874.722	15462
874.851	15679
874.979	15705
875.108	15656
875.237	15553
875.365	15542
875.494	15606
875.623	15701
875.751	15568
875.88	15648
876.008	15793
876.136	15884
876.265	16078
876.393	16169
876.521	16120
876.65	16082
876.778	15964
876.906	16002
877.034	15911
877.162	16013
877.29	15949
877.418	16051
877.546	15979
877.674	16006
877.802	16067
877.93	16002
878.058	16063
878.185	15979
878.313	15998
878.441	16074
878.568	15941
878.696	16025
878.824	16158
878.951	16120
879.079	16207
879.206	16390
879.333	16287
879.461	16265
879.588	16223
879.715	16211
879.842	16352
879.97	16154
880.097	15926
880.224	15884
880.351	15907
880.478	15892
880.605	15880
880.732	15812
880.859	16150
880.986	15987
881.112	15861
881.239	15789
881.366	15660
881.493	15526
881.619	15576
881.746	15443
881.872	15526
881.999	15488
882.125	15542
882.252	15587
882.378	15595
882.505	15694
882.631	15473
882.757	15416
882.883	15454
883.01	15351
883.136	15268
883.262	15279
883.388	15218
883.514	15416
883.64	15408
883.766	15294
883.892	15199
884.018	15195
884.143	15294
884.269	15454
884.395	15188
884.52	15039
884.646	15032
884.772	14967
884.897	14956
885.023	15017
885.148	15150
885.274	15252
885.399	15127
885.524	15043
885.65	15070
885.775	15055
885.9	15036
886.025	15146
886.15	15104
886.275	15005
886.4	14891
886.525	15005
886.65	15142
886.775	14990
886.9	15127
887.025	15408
887.149	15036
887.274	14861
887.399	14815
887.523	14857
887.648	14849
887.773	14678
887.897	14982
888.021	15009
888.146	14796
888.27	14925
888.395	15009
888.519	14849
888.643	14937
888.767	14967
888.891	14785
889.015	14716
889.139	14792
889.263	14686
889.387	14868
889.511	14925
889.635	14914
889.759	14629
889.883	14731
890.006	14754
890.13	14876
890.254	14686
890.377	14705
890.501	14644
890.624	14556
890.748	14689
890.871	14484
890.995	14423
891.118	14355
891.241	14408
891.364	14461
891.488	14541
891.611	14385
891.734	14381
891.857	14473
891.98	14431
892.103	14469
892.226	14446
892.349	14317
892.471	14347
892.594	14393
892.717	14404
892.839	14393
892.962	14393
893.085	14465
893.207	14495
893.33	14263
893.452	14415
893.575	14431
893.697	14393
893.819	14488
893.941	14606
894.064	14568
894.186	14442
894.308	14385
894.43	14484
894.552	14556
894.674	14507
894.796	14332
894.918	14450
895.04	14469
895.161	14503
895.283	14575
895.405	14457
895.526	14434
895.648	14514
895.769	14564
895.891	14476
896.012	14560
896.134	14537
896.255	14560
896.376	14526
896.498	14446
896.619	14575
896.74	14606
896.861	14610
896.982	14971
897.103	15097
897.224	14910
897.345	14834
897.466	14781
897.587	14807
897.708	14982
897.828	14921
897.949	14796
898.07	14735
898.19	14765
898.311	14967
898.431	14762
898.552	14925
898.672	14937
898.792	14990
898.913	14902
899.033	14914
899.153	14754
899.273	14686
899.393	14792
899.513	14800
899.633	14781
899.753	14796
899.873	14811
899.993	14883
900.113	14762
900.232	14811
900.352	14735
900.472	14640
900.591	14590
900.711	14602
900.83	14617
900.95	14708
901.069	14743
901.189	14575
901.308	14294
901.427	14328
901.546	14381
901.665	14355
901.784	14328
901.904	14111
902.023	14153
902.141	13928
902.26	13784
902.379	13932
902.498	13894
902.617	13803
902.735	13883
902.854	13856
902.973	13795
903.091	13696
903.21	13575
903.328	13605
903.446	13537
903.565	13324
903.683	13468
903.801	13365
903.919	13411
904.038	13343
904.156	13198
904.274	13362
904.392	13255
904.51	13247
904.627	13259
904.745	13335
904.863	13339
904.981	13069
905.098	12894
905.216	12920
905.334	12890
905.451	12913
905.569	12966
905.686	12928
905.803	12951
905.921	12833
906.038	12878
906.155	12745
906.272	12635
906.389	12662
906.506	12490
906.623	12540
906.74	12536
906.857	12414
906.974	12407
907.091	12555
907.208	12578
907.324	12612
907.441	12422
907.557	12262
907.674	12243
907.79	12190
907.907	12258
908.023	12334
908.139	12247
908.256	12197
908.372	12167
908.488	12171
908.604	12049
908.72	11961
908.836	12079
908.952	11965
909.068	12091
909.184	12220
909.3	12041
909.415	12041
909.531	12057
909.647	11741
909.762	11707
909.878	11783
909.993	11729
910.108	11767
910.224	11733
910.339	11748
910.454	11688
910.57	11665
910.685	11619
910.8	11847
910.915	11745
911.03	11589
911.145	11604
911.259	11493
911.374	11478
911.489	11372
911.604	11379
911.718	11330
911.833	11201
911.947	11124
912.062	11048
912.176	11227
912.291	11197
912.405	11223
912.519	11425
912.633	11417
912.748	11250
912.862	11334
912.976	11132
913.09	11060
913.204	11056
913.318	11075
913.431	11216
913.545	11227
913.659	11227
913.772	11155
913.886	11033
914	10892
914.113	11010
914.226	11109
914.34	11033
914.453	10915
914.566	11079
914.68	11022
914.793	10934
914.906	10774
915.019	10744
915.132	10672
915.245	10698
915.358	10736
915.47	10733
915.583	10790
915.696	10790
915.809	10850
915.921	10965
916.034	10744
916.146	10675
916.259	10592
916.371	10782
916.483	10733
916.595	10592
916.708	10656
916.82	10714
916.932	10641
917.044	10679
917.156	10558
917.268	10573
917.38	10538
917.491	10512
917.603	10481
917.715	10637
917.826	10675
917.938	10554
918.049	10424
918.161	10569
918.272	10717
918.384	10637
918.495	10542
918.606	10436
918.717	10337
918.828	10459
918.939	10523
919.05	10329
919.161	10371
919.272	10246
919.383	10295
919.494	10466
919.604	10672
919.715	10451
919.826	10390
919.936	10360
920.047	10504
920.157	10466
920.267	10675
920.378	10512
920.488	10436
920.598	10645
920.708	10717
920.818	10691
920.928	10577
921.038	10725
921.148	10740
921.258	10516
921.368	10352
921.477	10291
921.587	10284
921.697	10166
921.806	10299
921.916	10109
922.025	9998
922.134	10048
922.244	9895
922.353	10059
922.462	9918
922.571	9835
922.68	9736
922.789	9686
922.898	9603
923.007	9667
923.116	9690
923.224	9656
923.333	9660
923.442	9526
923.55	9481
923.659	9553
923.767	9561
923.876	9561
923.984	9526
924.092	9454
924.201	9519
924.309	9523
924.417	9542
924.525	9443
924.633	9534
924.741	10306
924.849	9272
924.956	9500
925.064	9336
925.172	9214
925.279	9294
925.387	9275
925.494	9294
925.602	9389
925.709	9367
925.816	9291
925.924	9275
926.031	9393
926.138	9363
926.245	9420
926.352	9218
926.459	9348
926.566	9393
926.673	9245
926.779	9135
926.886	9180
926.993	9017
927.099	9138
927.206	9024
927.312	8990
927.419	9070
927.525	8998
927.631	9051
927.737	8952
927.843	8876
927.95	8746
928.056	8918
928.162	8910
928.267	8929
928.373	9580
928.479	8998
928.585	8792
928.69	8883
928.796	8963
928.901	8838
929.007	8731
929.112	8853
929.218	8792
929.323	8769
929.428	8743
929.533	8883
929.638	8693
929.743	8705
929.848	8796
929.953	8769
930.058	8552
930.163	8480
930.267	8511
930.372	8697
930.477	8446
930.581	8705
930.685	8533
930.79	8404
930.894	8404
930.998	8404
931.103	8613
931.207	8214
931.311	8164
931.415	8103
931.519	7883
931.623	7928
