Data from test_V78500241_2313.txt Node
Date: Fri Mar 25 14:49:49 CST 2022
User: usil
Spectrometer: V785-0024
Trigger mode: 0
Integration Time (sec): 4.000000E-1
Scans to average: 1
Nonlinearity correction enabled: false
Boxcar width: 0
Storing dark spectrum: false
XAxis mode: Wavelengths
Number of Pixels in Spectrum: 1024
>>>>>Begin Spectral Data<<<<<
801.071	22207
801.214	22036
801.356	21800
801.499	21667
801.641	21538
801.783	21545
801.926	21564
802.068	21500
802.211	21454
802.353	21298
802.496	21207
802.638	21013
802.78	21020
802.923	20933
803.065	20967
803.208	20815
803.35	20876
803.492	20994
803.635	20952
803.777	20849
803.919	20929
804.061	21287
804.204	20975
804.346	20842
804.488	20796
804.63	20918
804.773	20731
804.915	20796
805.057	21036
805.199	20819
805.341	20880
805.483	21055
805.626	20891
805.768	20815
805.91	20876
806.052	20750
806.194	20648
806.336	20925
806.478	20845
806.62	20872
806.762	20853
806.904	20941
807.046	21142
807.188	21119
807.33	21131
807.472	21119
807.614	21039
807.756	21195
807.898	20944
808.04	20773
808.182	20994
808.324	20921
808.465	20956
808.607	21093
808.749	21188
808.891	21336
809.033	21454
809.174	21119
809.316	21108
809.458	21146
809.6	21176
809.741	21237
809.883	21252
810.025	21351
810.166	21272
810.308	21313
810.45	21359
810.591	21074
810.733	21055
810.875	21127
811.016	20849
811.158	20769
811.299	21024
811.441	21150
811.582	21051
811.724	21036
811.865	20815
812.007	20887
812.148	21089
812.29	21024
812.431	21142
812.573	21260
812.714	21340
812.855	21458
812.997	21507
813.138	21766
813.279	21523
813.421	21466
813.562	21458
813.703	21184
813.845	21112
813.986	20845
814.127	20773
814.268	20636
814.41	20613
814.551	20362
814.692	20625
814.833	20431
814.974	20476
815.115	20465
815.256	20377
815.397	20351
815.539	20298
815.68	20336
815.821	20225
815.962	20240
816.103	20248
816.244	20005
816.385	19921
816.526	19989
816.666	19906
816.807	19677
816.948	19704
817.089	19883
817.23	19704
817.371	19605
817.512	19677
817.653	19651
817.793	19514
817.934	19734
818.075	19662
818.216	19635
818.356	19628
818.497	19327
818.638	19354
818.778	19202
818.919	19255
819.06	19232
819.2	19464
819.341	19597
819.481	19616
819.622	19559
819.762	19906
819.903	19826
820.043	19658
820.184	19647
820.324	19514
820.465	19742
820.605	19628
820.746	19521
820.886	19449
821.026	19563
821.167	19575
821.307	19613
821.447	19518
821.588	19396
821.728	19377
821.868	19084
822.008	18977
822.149	19061
822.289	18977
822.429	18787
822.569	18722
822.709	18719
822.849	18479
822.99	18521
823.13	18464
823.27	18521
823.41	18369
823.55	18209
823.69	18273
823.83	18456
823.97	18228
824.11	18038
824.25	17996
824.389	18159
824.529	18102
824.669	18087
824.809	18197
824.949	18098
825.089	18190
825.228	18041
825.368	17874
825.508	17889
825.648	17813
825.787	17931
825.927	17965
826.067	17760
826.206	17668
826.346	17931
826.485	17836
826.625	17771
826.765	17885
826.904	17904
827.044	17570
827.183	17497
827.323	17558
827.462	17509
827.601	17604
827.741	17455
827.88	17611
828.02	17356
828.159	17581
828.298	17642
828.437	17619
828.577	17376
828.716	17623
828.855	17619
828.994	17273
829.134	17284
829.273	17216
829.412	17296
829.551	17280
829.69	17269
829.829	17330
829.968	17360
830.107	17284
830.246	17235
830.385	17242
830.524	17147
830.663	17147
830.802	16991
830.941	16968
831.08	16881
831.219	17014
831.357	16957
831.496	17090
831.635	16797
831.774	16809
831.913	16790
832.051	16641
832.19	16725
832.329	16694
832.467	16622
832.606	16561
832.744	16622
832.883	16569
833.022	16546
833.16	16527
833.299	16637
833.437	16584
833.576	16630
833.714	16615
833.852	16653
833.991	16615
834.129	16759
834.267	16691
834.406	16649
834.544	16687
834.682	16630
834.821	16603
834.959	16710
835.097	16516
835.235	16618
835.373	16603
835.511	16580
835.65	16485
835.788	16497
835.926	16352
836.064	16402
836.202	16322
836.34	16569
836.478	16637
836.615	16394
836.753	16634
836.891	16615
837.029	16531
837.167	16417
837.305	16344
837.443	16386
837.58	16402
837.718	16398
837.856	16470
837.993	16451
838.131	16455
838.269	16287
838.406	16398
838.544	16215
838.681	16048
838.819	15968
838.956	16025
839.094	15941
839.231	15983
839.369	16032
839.506	16344
839.643	16181
839.781	15922
839.918	15892
840.055	15873
840.193	15956
840.33	15972
840.467	15888
840.604	16002
840.742	16192
840.879	15816
841.016	15854
841.153	15812
841.29	16071
841.427	15956
841.564	15937
841.701	15873
841.838	15835
841.975	15865
842.112	15861
842.249	15694
842.385	15671
842.522	15835
842.659	15667
842.796	15625
842.933	15797
843.069	15599
843.206	15564
843.343	15808
843.479	15656
843.616	15728
843.752	15435
843.889	15435
844.025	15622
844.162	15450
844.298	15587
844.435	15515
844.571	15424
844.708	15523
844.844	15633
844.98	15720
845.117	15625
845.253	15412
845.389	15344
845.525	15511
845.661	15310
845.798	15245
845.934	15275
846.07	15195
846.206	15233
846.342	15450
846.478	15325
846.614	15097
846.75	14906
846.886	15036
847.022	15207
847.158	15028
847.294	15116
847.429	15081
847.565	15077
847.701	15317
847.837	14868
847.972	14762
848.108	14902
848.244	14883
848.379	14663
848.515	14629
848.65	14575
848.786	14674
848.921	14648
849.057	14804
849.192	14933
849.328	14708
849.463	14655
849.598	14590
849.734	14480
849.869	14583
850.004	14377
850.14	14450
850.275	14469
850.41	14351
850.545	14431
850.68	14431
850.815	14412
850.95	14377
851.085	14564
851.22	14457
851.355	14556
851.49	14336
851.625	14313
851.76	14457
851.895	14301
852.03	14324
852.165	14381
852.299	14480
852.434	14541
852.569	14427
852.703	14423
852.838	14317
852.973	14598
853.107	14598
853.242	14370
853.376	14339
853.511	14237
853.645	14180
853.78	14541
853.914	14408
854.048	14278
854.183	14298
854.317	14180
854.451	14461
854.585	14290
854.72	14278
854.854	14271
854.988	14172
855.122	14309
855.256	14149
855.39	14278
855.524	14339
855.658	14351
855.792	14313
855.926	14305
856.06	14423
856.194	14404
856.327	14400
856.461	14225
856.595	14263
856.729	14278
856.862	14396
856.996	14351
857.13	14396
857.263	14366
857.397	14400
857.53	14355
857.664	14374
857.797	14320
857.931	14282
858.064	14377
858.197	14450
858.331	14336
858.464	14199
858.597	14092
858.731	14218
858.864	14145
858.997	14309
859.13	14271
859.263	14301
859.396	14366
859.529	14229
859.662	14370
859.795	14180
859.928	14221
860.061	14492
860.194	14381
860.327	14294
860.46	14248
860.592	14309
860.725	14381
860.858	14374
860.99	14324
861.123	14183
861.256	14206
861.388	14263
861.521	14849
861.653	14062
861.786	14084
861.918	14161
862.05	14161
862.183	14210
862.315	14275
862.447	14244
862.58	14271
862.712	14031
862.844	13909
862.976	14107
863.108	14100
863.24	14415
863.372	13986
863.504	14031
863.636	14027
863.768	14126
863.9	14069
864.032	14001
864.164	13902
864.296	13989
864.428	14123
864.559	14119
864.691	14149
864.823	14210
864.954	14077
865.086	14103
865.217	14043
865.349	13871
865.48	14012
865.612	14054
865.743	14202
865.875	14046
866.006	14001
866.137	14005
866.269	14035
866.4	14073
866.531	14012
866.662	13993
866.793	13970
866.924	13982
867.055	14107
867.186	14016
867.317	13947
867.448	13902
867.579	14020
867.71	13932
867.841	13936
867.972	14027
868.103	14035
868.233	14065
868.364	14069
868.495	14100
868.625	14256
868.756	14355
868.886	14065
869.017	14290
869.147	14400
869.278	14336
869.408	14298
869.539	14381
869.669	14434
869.799	14419
869.929	14381
870.06	14385
870.19	14587
870.32	14663
870.45	14644
870.58	14682
870.71	14750
870.84	14712
870.97	14697
871.1	14746
871.23	14819
871.36	14944
871.489	14823
871.619	14902
871.749	14986
871.879	14941
872.008	15036
872.138	14842
872.267	14887
872.397	14697
872.526	14644
872.656	14716
872.785	14777
872.915	14849
873.044	14941
873.173	14872
873.303	14918
873.432	14952
873.561	14929
873.69	14963
873.819	14963
873.948	15062
874.077	15028
874.206	14853
874.335	14998
874.464	15104
874.593	15226
874.722	15108
874.851	15241
874.979	15245
875.108	15363
875.237	15287
875.365	15157
875.494	15245
875.623	15363
875.751	15256
875.88	15256
876.008	15473
876.136	15526
876.265	15743
876.393	15827
876.521	15728
876.65	15709
876.778	15759
876.906	15584
877.034	15660
877.162	15755
877.29	15637
877.418	15705
877.546	15614
877.674	15629
877.802	15667
877.93	15671
878.058	15610
878.185	15477
878.313	15690
878.441	15610
878.568	15530
878.696	15610
878.824	15644
878.951	15705
879.079	15770
879.206	15895
879.333	15804
879.461	15686
879.588	15682
879.715	15895
879.842	15937
879.97	15751
880.097	15416
880.224	15488
880.351	15519
880.478	15534
880.605	15412
880.732	15542
880.859	15762
880.986	15519
881.112	15603
881.239	15500
881.366	15359
881.493	15195
881.619	15176
881.746	15119
881.872	15249
881.999	15188
882.125	15207
882.252	15195
882.378	15218
882.505	15298
882.631	15203
882.757	14986
882.883	15028
883.01	14963
883.136	15024
883.262	14834
883.388	14864
883.514	14994
883.64	14979
883.766	14925
883.892	14750
884.018	14849
884.143	15024
884.269	15062
884.395	14682
884.52	14739
884.646	14625
884.772	14610
884.897	14579
885.023	14720
885.148	14762
885.274	14746
885.399	14739
885.524	14655
885.65	14746
885.775	14686
885.9	14651
886.025	14838
886.15	14754
886.275	14659
886.4	14507
886.525	14632
886.65	14541
886.775	14583
886.9	14842
887.025	14918
887.149	14705
887.274	14537
887.399	14473
887.523	14545
887.648	14552
887.773	14332
887.897	14636
888.021	14587
888.146	14419
888.27	14602
888.395	14693
888.519	14667
888.643	14587
888.767	14522
888.891	14389
889.015	14404
889.139	14366
889.263	14396
889.387	14495
889.511	14625
889.635	14434
889.759	14248
889.883	14374
890.006	14404
890.13	14499
890.254	14412
890.377	14385
890.501	14290
890.624	14195
890.748	14161
890.871	14161
890.995	14008
891.118	14020
891.241	13997
891.364	14107
891.488	14161
891.611	14062
891.734	14035
891.857	14199
891.98	14142
892.103	14221
892.226	14168
892.349	14073
892.471	13959
892.594	14050
892.717	14123
892.839	14054
892.962	14081
893.085	14206
893.207	14103
893.33	13989
893.452	14005
893.575	14145
893.697	14046
893.819	14294
893.941	14278
894.064	14214
894.186	14123
894.308	14062
894.43	14225
894.552	14294
894.674	14229
894.796	14043
894.918	14225
895.04	14130
895.161	14123
895.283	14119
895.405	14183
895.526	14225
895.648	14218
895.769	14225
895.891	14313
896.012	14271
896.134	14370
896.255	14248
896.376	14191
896.498	14161
896.619	14366
896.74	14278
896.861	14434
896.982	14590
897.103	14750
897.224	14598
897.345	14457
897.466	14343
897.587	14461
897.708	14712
897.828	14632
897.949	14488
898.07	14400
898.19	14457
898.311	14693
898.431	14533
898.552	14617
898.672	14716
898.792	14617
898.913	14663
899.033	14564
899.153	14541
899.273	14324
899.393	14434
899.513	14530
899.633	14400
899.753	14461
899.873	14419
899.993	14648
900.113	14442
900.232	14488
900.352	14431
900.472	14476
900.591	14278
900.711	14374
900.83	14309
900.95	14480
901.069	14400
901.189	14290
901.308	14077
901.427	13909
901.546	14050
901.665	14062
901.784	14024
901.904	13894
902.023	13761
902.141	13537
902.26	13647
902.379	13738
902.498	13586
902.617	13476
902.735	13651
902.854	13605
902.973	13548
903.091	13354
903.21	13285
903.328	13225
903.446	13270
903.565	13213
903.683	13152
903.801	13053
903.919	13206
904.038	13202
904.156	12977
904.274	13015
904.392	12852
904.51	12932
904.627	12897
904.745	13012
904.863	12993
904.981	12779
905.098	12627
905.216	12650
905.334	12745
905.451	12654
905.569	12696
905.686	12715
905.803	12707
905.921	12464
906.038	12574
906.155	12574
906.272	12422
906.389	12388
906.506	12346
906.623	12254
906.74	12213
906.857	12133
906.974	12182
907.091	12319
907.208	12285
907.324	12304
907.441	12152
907.557	11988
907.674	12049
907.79	11882
907.907	11897
908.023	12098
908.139	11996
908.256	12026
908.372	11946
908.488	11961
908.604	11756
908.72	11680
908.836	11847
908.952	11684
909.068	11718
909.184	11813
909.3	11786
909.415	11817
909.531	11684
909.647	11486
909.762	11535
909.878	11486
909.993	11577
910.108	11562
910.224	11524
910.339	11505
910.454	11429
910.57	11417
910.685	11303
910.8	11596
910.915	11596
911.03	11383
911.145	11201
911.259	11193
911.374	11208
911.489	11117
911.604	11067
911.718	11006
911.833	10919
911.947	10866
912.062	10885
912.176	10934
912.291	10961
912.405	10949
912.519	11162
912.633	11220
912.748	11105
912.862	11022
912.976	10812
913.09	10828
913.204	10835
913.318	10877
913.431	10976
913.545	10984
913.659	10972
913.772	10869
913.886	10714
914	10664
914.113	10877
914.226	10835
914.34	10923
914.453	10679
914.566	10915
914.68	10744
914.793	10679
914.906	10462
915.019	10512
915.132	10375
915.245	10409
915.358	10523
915.47	10489
915.583	10489
915.696	10641
915.809	10649
915.921	10630
916.034	10481
916.146	10474
916.259	10314
916.371	10508
916.483	10462
916.595	10398
916.708	10421
916.82	10508
916.932	10398
917.044	10413
917.156	10352
917.268	10325
917.38	10261
917.491	10238
917.603	10276
917.715	10329
917.826	10360
917.938	10329
918.049	10223
918.161	10337
918.272	10459
918.384	10523
918.495	10421
918.606	10169
918.717	10116
918.828	10169
918.939	10223
919.05	10124
919.161	10211
919.272	10002
919.383	10071
919.494	10253
919.604	10466
919.715	10280
919.826	10162
919.936	10196
920.047	10234
920.157	10211
920.267	10379
920.378	10329
920.488	10154
920.598	10443
920.708	10603
920.818	10413
920.928	10447
921.038	10611
921.148	10538
921.258	10284
921.368	10211
921.477	10063
921.587	10112
921.697	9934
921.806	10116
921.916	9953
922.025	9808
922.134	9770
922.244	9720
922.353	9812
922.462	9663
922.571	9633
922.68	9393
922.789	9420
922.898	9481
923.007	9408
923.116	9447
923.224	9450
923.333	9447
923.442	9386
923.55	9370
923.659	9367
923.767	9408
923.876	9340
923.984	9412
924.092	9233
924.201	9298
924.309	9340
924.417	9351
924.525	9310
924.633	9272
924.741	10242
924.849	9112
924.956	9230
925.064	9062
925.172	9055
925.279	9112
925.387	9127
925.494	9066
925.602	9241
925.709	9169
925.816	9085
925.924	9169
926.031	9241
926.138	9146
926.245	9146
926.352	9119
926.459	9188
926.566	9264
926.673	9116
926.779	8982
926.886	8982
926.993	8906
927.099	8842
927.206	8804
927.312	8845
927.419	8941
927.525	8838
927.631	8910
927.737	8769
927.843	8663
927.95	8571
928.056	8785
928.162	8773
928.267	8731
928.373	9378
928.479	8842
928.585	8594
928.69	8697
928.796	8792
928.901	8602
929.007	8545
929.112	8693
929.218	8632
929.323	8613
929.428	8495
929.533	8667
929.638	8499
929.743	8594
929.848	8590
929.953	8530
930.058	8358
930.163	8286
930.267	8385
930.372	8412
930.477	8271
930.581	8530
930.685	8381
930.79	8233
930.894	8271
930.998	8252
931.103	8389
931.207	8115
931.311	7974
931.415	7955
931.519	7776
931.623	7693
