Data from test_V78500241_1477.txt Node
Date: Fri Mar 25 14:43:59 CST 2022
User: usil
Spectrometer: V785-0024
Trigger mode: 0
Integration Time (sec): 4.000000E-1
Scans to average: 1
Nonlinearity correction enabled: false
Boxcar width: 0
Storing dark spectrum: false
XAxis mode: Wavelengths
Number of Pixels in Spectrum: 1024
>>>>>Begin Spectral Data<<<<<
801.071	22375
801.214	22352
801.356	21987
801.499	21964
801.641	21876
801.783	21663
801.926	21842
802.068	21717
802.211	21701
802.353	21538
802.496	21275
802.638	21298
802.78	21188
802.923	21252
803.065	21249
803.208	21195
803.35	21039
803.492	21241
803.635	21252
803.777	21051
803.919	21176
804.061	21420
804.204	21096
804.346	20975
804.488	20845
804.63	21100
804.773	20876
804.915	21051
805.057	21245
805.199	21047
805.341	21131
805.483	21096
805.626	21081
805.768	21028
805.91	20994
806.052	20956
806.194	20902
806.336	21241
806.478	21077
806.62	20906
806.762	21089
806.904	21279
807.046	21332
807.188	21382
807.33	21473
807.472	21481
807.614	21317
807.756	21340
807.898	21279
808.04	21192
808.182	21195
808.324	21180
808.465	21351
808.607	21515
808.749	21625
808.891	21720
809.033	21751
809.174	21705
809.316	21656
809.458	21561
809.6	21652
809.741	21641
809.883	21469
810.025	21717
810.166	21652
810.308	21583
810.45	21618
810.591	21523
810.733	21386
810.875	21348
811.016	21180
811.158	21085
811.299	21272
811.441	21344
811.582	21321
811.724	21165
811.865	21245
812.007	21169
812.148	21222
812.29	21184
812.431	21488
812.573	21507
812.714	21663
812.855	21694
812.997	21915
813.138	21949
813.279	21869
813.421	21774
813.562	21606
813.703	21557
813.845	21367
813.986	21104
814.127	20914
814.268	20826
814.41	20838
814.551	20765
814.692	20811
814.833	20769
814.974	20648
815.115	20765
815.256	20701
815.397	20693
815.539	20560
815.68	20590
815.821	20431
815.962	20438
816.103	20575
816.244	20362
816.385	20149
816.526	20271
816.666	20054
816.807	19951
816.948	20027
817.089	20008
817.23	19887
817.371	19921
817.512	19868
817.653	19818
817.793	19879
817.934	19868
818.075	19936
818.216	19875
818.356	19784
818.497	19791
818.638	19575
818.778	19597
818.919	19635
819.06	19651
819.2	19708
819.341	19849
819.481	19864
819.622	19986
819.762	20103
819.903	20039
820.043	19940
820.184	19894
820.324	19936
820.465	19944
820.605	19947
820.746	19803
820.886	19856
821.026	19902
821.167	19727
821.307	19997
821.447	19765
821.588	19632
821.728	19525
821.868	19434
822.008	19335
822.149	19232
822.289	19289
822.429	19042
822.569	18886
822.709	18981
822.849	18764
822.99	18867
823.13	18829
823.27	18681
823.41	18570
823.55	18456
823.69	18536
823.83	18639
823.97	18502
824.11	18391
824.25	18327
824.389	18391
824.529	18365
824.669	18407
824.809	18490
824.949	18582
825.089	18338
825.228	18372
825.368	18262
825.508	18163
825.648	18258
825.787	18239
825.927	18296
826.067	18038
826.206	18083
826.346	18209
826.485	18182
826.625	18155
826.765	18083
826.904	18235
827.044	17954
827.183	17874
827.323	17836
827.462	17870
827.601	17859
827.741	17767
827.88	17832
828.02	17748
828.159	17764
828.298	17840
828.437	17916
828.577	17821
828.716	17954
828.855	17733
828.994	17543
829.134	17551
829.273	17695
829.412	17391
829.551	17535
829.69	17562
829.829	17585
829.968	17676
830.107	17684
830.246	17703
830.385	17497
830.524	17611
830.663	17311
830.802	17273
830.941	17162
831.08	17083
831.219	17220
831.357	17197
831.496	17269
831.635	17174
831.774	17067
831.913	17071
832.051	16984
832.19	16946
832.329	17071
832.467	16873
832.606	16858
832.744	16957
832.883	16923
833.022	16828
833.16	16900
833.299	16961
833.437	16900
833.576	16820
833.714	16805
833.852	17022
833.991	17033
834.129	17060
834.267	16892
834.406	16824
834.544	17022
834.682	16885
834.821	16889
834.959	17037
835.097	16915
835.235	17022
835.373	16957
835.511	16949
835.65	16869
835.788	16774
835.926	16733
836.064	16569
836.202	16634
836.34	16862
836.478	16980
836.615	16866
836.753	16831
836.891	16923
837.029	16938
837.167	16706
837.305	16774
837.443	16782
837.58	16653
837.718	16713
837.856	16691
837.993	16649
838.131	16717
838.269	16550
838.406	16607
838.544	16512
838.681	16348
838.819	16390
838.956	16246
839.094	16162
839.231	16177
839.369	16333
839.506	16679
839.643	16485
839.781	16306
839.918	16223
840.055	16257
840.193	16295
840.33	16253
840.467	16169
840.604	16325
840.742	16417
840.879	16086
841.016	16154
841.153	16204
841.29	16375
841.427	16257
841.564	16329
841.701	16238
841.838	16154
841.975	16204
842.112	16131
842.249	16055
842.385	15979
842.522	16242
842.659	16029
842.796	15956
842.933	16067
843.069	15911
843.206	15888
843.343	16059
843.479	16032
843.616	15960
843.752	15842
843.889	15724
844.025	15869
844.162	15823
844.298	15880
844.435	15762
844.571	15778
844.708	15876
844.844	15937
844.98	16036
845.117	15930
845.253	15751
845.389	15679
845.525	15804
845.661	15884
845.798	15675
845.934	15797
846.07	15804
846.206	15884
846.342	15888
846.478	15739
846.614	15530
846.75	15355
846.886	15389
847.022	15584
847.158	15363
847.294	15424
847.429	15355
847.565	15340
847.701	15564
847.837	15150
847.972	15108
848.108	15245
848.244	15131
848.379	14982
848.515	14986
848.65	14956
848.786	14929
848.921	14952
849.057	15108
849.192	15051
849.328	14948
849.463	14918
849.598	14857
849.734	14918
849.869	14891
850.004	14807
850.14	14819
850.275	14765
850.41	14663
850.545	14712
850.68	14670
850.815	14735
850.95	14667
851.085	14872
851.22	14845
851.355	14648
851.49	14659
851.625	14701
851.76	14716
851.895	14590
852.03	14636
852.165	14659
852.299	14686
852.434	14815
852.569	14754
852.703	14735
852.838	14849
852.973	14849
853.107	14857
853.242	14602
853.376	14606
853.511	14583
853.645	14552
853.78	14693
853.914	14598
854.048	14461
854.183	14442
854.317	14587
854.451	14796
854.585	14560
854.72	14621
854.854	14727
854.988	14454
855.122	14530
855.256	14415
855.39	14629
855.524	14636
855.658	14602
855.792	14598
855.926	14594
856.06	14632
856.194	14708
856.327	14613
856.461	14480
856.595	14495
856.729	14556
856.862	14613
856.996	14659
857.13	14697
857.263	14674
857.397	14651
857.53	14636
857.664	14663
857.797	14648
857.931	14674
858.064	14598
858.197	14674
858.331	14556
858.464	14613
858.597	14488
858.731	14632
858.864	14667
858.997	14655
859.13	14632
859.263	14632
859.396	14644
859.529	14495
859.662	14530
859.795	14518
859.928	14602
860.061	14735
860.194	14758
860.327	14583
860.46	14594
860.592	14720
860.725	14743
860.858	14705
860.99	14583
861.123	14518
861.256	14499
861.388	14568
861.521	15302
861.653	14492
861.786	14412
861.918	14408
862.05	14446
862.183	14476
862.315	14689
862.447	14636
862.58	14450
862.712	14377
862.844	14374
862.976	14450
863.108	14404
863.24	14800
863.372	14309
863.504	14339
863.636	14404
863.768	14301
863.9	14305
864.032	14240
864.164	14328
864.296	14465
864.428	14415
864.559	14415
864.691	14438
864.823	14450
864.954	14336
865.086	14404
865.217	14404
865.349	14263
865.48	14339
865.612	14396
865.743	14533
865.875	14366
866.006	14320
866.137	14271
866.269	14271
866.4	14305
866.531	14347
866.662	14206
866.793	14237
866.924	14305
867.055	14355
867.186	14366
867.317	14366
867.448	14237
867.579	14206
867.71	14286
867.841	14362
867.972	14320
868.103	14263
868.233	14252
868.364	14282
868.495	14438
868.625	14670
868.756	14670
868.886	14533
869.017	14480
869.147	14663
869.278	14629
869.408	14632
869.539	14560
869.669	14621
869.799	14575
869.929	14697
870.06	14705
870.19	14937
870.32	14929
870.45	14902
870.58	14887
870.71	15116
870.84	15039
870.97	14990
871.1	14937
871.23	15112
871.36	15252
871.489	15089
871.619	15097
871.749	15233
871.879	15260
872.008	15264
872.138	15222
872.267	15142
872.397	15036
872.526	14933
872.656	15070
872.785	14975
872.915	15272
873.044	15275
873.173	15154
873.303	15272
873.432	15294
873.561	15291
873.69	15256
873.819	15218
873.948	15370
874.077	15344
874.206	15176
874.335	15317
874.464	15447
874.593	15504
874.722	15454
874.851	15507
874.979	15591
875.108	15553
875.237	15591
875.365	15389
875.494	15545
875.623	15469
875.751	15492
875.88	15663
876.008	15618
876.136	15831
876.265	15972
876.393	16071
876.521	16032
876.65	16036
876.778	15960
876.906	15915
877.034	15808
877.162	15953
877.29	15953
877.418	15975
877.546	16074
877.674	15895
877.802	15953
877.93	15930
878.058	15930
878.185	15789
878.313	15941
878.441	16029
878.568	15797
878.696	15865
878.824	16029
878.951	16093
879.079	16154
879.206	16379
879.333	16314
879.461	16101
879.588	16139
879.715	16299
879.842	16291
879.97	16078
880.097	15797
880.224	15941
880.351	15979
880.478	15785
880.605	15793
880.732	15781
880.859	16029
880.986	15785
881.112	15846
881.239	15720
881.366	15644
881.493	15458
881.619	15511
881.746	15428
881.872	15481
881.999	15492
882.125	15485
882.252	15564
882.378	15473
882.505	15644
882.631	15370
882.757	15351
882.883	15241
883.01	15310
883.136	15192
883.262	15184
883.388	15138
883.514	15298
883.64	15340
883.766	15173
883.892	15081
884.018	15165
884.143	15313
884.269	15405
884.395	15062
884.52	15001
884.646	15024
884.772	14895
884.897	14899
885.023	15005
885.148	15013
885.274	15180
885.399	15089
885.524	15043
885.65	15085
885.775	14990
885.9	14982
886.025	15081
886.15	15047
886.275	14944
886.4	14849
886.525	14872
886.65	14986
886.775	14929
886.9	15009
887.025	15180
887.149	14925
887.274	14804
887.399	14765
887.523	14773
887.648	14800
887.773	14659
887.897	14857
888.021	14880
888.146	14724
888.27	14849
888.395	15017
888.519	14880
888.643	14960
888.767	14899
888.891	14712
889.015	14629
889.139	14746
889.263	14651
889.387	14830
889.511	14883
889.635	14819
889.759	14640
889.883	14727
890.006	14815
890.13	14727
890.254	14533
890.377	14629
890.501	14484
890.624	14362
890.748	14587
890.871	14412
890.995	14256
891.118	14244
891.241	14404
891.364	14324
891.488	14438
891.611	14278
891.734	14317
891.857	14492
891.98	14343
892.103	14488
892.226	14499
892.349	14389
892.471	14221
892.594	14404
892.717	14412
892.839	14389
892.962	14332
893.085	14404
893.207	14332
893.33	14252
893.452	14358
893.575	14450
893.697	14286
893.819	14484
893.941	14537
894.064	14480
894.186	14301
894.308	14400
894.43	14564
894.552	14541
894.674	14450
894.796	14313
894.918	14374
895.04	14393
895.161	14503
895.283	14317
895.405	14457
895.526	14408
895.648	14408
895.769	14507
895.891	14450
896.012	14503
896.134	14537
896.255	14571
896.376	14552
896.498	14499
896.619	14549
896.74	14530
896.861	14590
896.982	14937
897.103	14941
897.224	14739
897.345	14838
897.466	14724
897.587	14861
897.708	14910
897.828	14899
897.949	14693
898.07	14727
898.19	14773
898.311	14910
898.431	14807
898.552	14906
898.672	14982
898.792	15001
898.913	14792
899.033	14838
899.153	14644
899.273	14587
899.393	14682
899.513	14845
899.633	14762
899.753	14697
899.873	14686
899.993	14796
900.113	14781
900.232	14705
900.352	14644
900.472	14602
900.591	14488
900.711	14587
900.83	14503
900.95	14743
901.069	14804
901.189	14492
901.308	14290
901.427	14237
901.546	14233
901.665	14374
901.784	14320
901.904	14206
902.023	14039
902.141	13902
902.26	13818
902.379	13906
902.498	13818
902.617	13753
902.735	13769
902.854	13811
902.973	13780
903.091	13487
903.21	13544
903.328	13544
903.446	13426
903.565	13324
903.683	13403
903.801	13293
903.919	13362
904.038	13472
904.156	13179
904.274	13282
904.392	13152
904.51	13225
904.627	13202
904.745	13263
904.863	13240
904.981	12932
905.098	12882
905.216	12901
905.334	12932
905.451	12878
905.569	12878
905.686	12840
905.803	12825
905.921	12662
906.038	12798
906.155	12726
906.272	12604
906.389	12608
906.506	12445
906.623	12540
906.74	12475
906.857	12285
906.974	12388
907.091	12547
907.208	12551
907.324	12502
907.441	12369
907.557	12224
907.674	12175
907.79	12129
907.907	12155
908.023	12273
908.139	12239
908.256	12159
908.372	12140
908.488	12083
908.604	11923
908.72	11950
908.836	11973
908.952	11904
909.068	11935
909.184	12007
909.3	11977
909.415	12045
909.531	11969
909.647	11775
909.762	11821
909.878	11699
909.993	11783
910.108	11653
910.224	11718
910.339	11691
910.454	11676
910.57	11478
910.685	11581
910.8	11794
910.915	11722
911.03	11627
911.145	11459
911.259	11364
911.374	11387
911.489	11334
911.604	11307
911.718	11212
911.833	11223
911.947	11227
912.062	11060
912.176	11254
912.291	11067
912.405	11189
912.519	11429
912.633	11356
912.748	11242
912.862	11216
912.976	11060
913.09	10968
913.204	11003
913.318	11109
913.431	11170
913.545	11216
913.659	11185
913.772	11048
913.886	10927
914	10889
914.113	10949
914.226	11075
914.34	11098
914.453	10809
914.566	10957
914.68	10927
914.793	10930
914.906	10675
915.019	10683
915.132	10641
915.245	10626
915.358	10706
915.47	10710
915.583	10679
915.696	10710
915.809	10755
915.921	10881
916.034	10634
916.146	10580
916.259	10626
916.371	10645
916.483	10634
916.595	10641
916.708	10626
916.82	10611
916.932	10634
917.044	10626
917.156	10546
917.268	10440
917.38	10538
917.491	10466
917.603	10580
917.715	10592
917.826	10565
917.938	10352
918.049	10379
918.161	10531
918.272	10569
918.384	10592
918.495	10538
918.606	10459
918.717	10398
918.828	10443
918.939	10409
919.05	10322
919.161	10352
919.272	10173
919.383	10318
919.494	10451
919.604	10584
919.715	10375
919.826	10287
919.936	10352
920.047	10478
920.157	10432
920.267	10641
920.378	10295
920.488	10310
920.598	10577
920.708	10740
920.818	10558
920.928	10561
921.038	10679
921.148	10675
921.258	10462
921.368	10462
921.477	10200
921.587	10291
921.697	10166
921.806	10185
921.916	10090
922.025	9975
922.134	9922
922.244	9899
922.353	10006
922.462	9827
922.571	9804
922.68	9660
922.789	9610
922.898	9584
923.007	9576
923.116	9713
923.224	9644
923.333	9587
923.442	9507
923.55	9534
923.659	9500
923.767	9534
923.876	9511
923.984	9641
924.092	9405
924.201	9511
924.309	9507
924.417	9542
924.525	9408
924.633	9405
924.741	10348
924.849	9241
924.956	9386
925.064	9199
925.172	9165
925.279	9317
925.387	9310
925.494	9332
925.602	9450
925.709	9306
925.816	9264
925.924	9370
926.031	9294
926.138	9249
926.245	9378
926.352	9165
926.459	9363
926.566	9431
926.673	9226
926.779	9135
926.886	9169
926.993	8921
927.099	8979
927.206	8895
927.312	8952
927.419	9036
927.525	8994
927.631	8998
927.737	8971
927.843	8902
927.95	8811
928.056	8830
928.162	8902
928.267	8994
928.373	9553
928.479	8941
928.585	8724
928.69	8857
928.796	8937
928.901	8857
929.007	8648
929.112	8788
929.218	8849
929.323	8731
929.428	8746
929.533	8895
929.638	8625
929.743	8686
929.848	8731
929.953	8697
930.058	8571
930.163	8476
930.267	8514
930.372	8594
930.477	8457
930.581	8815
930.685	8541
930.79	8461
930.894	8362
930.998	8320
931.103	8617
931.207	8168
931.311	8164
931.415	8088
931.519	7879
931.623	7887
