Data from test_V78500241_990.txt Node
Date: Fri Mar 25 14:40:36 CST 2022
User: usil
Spectrometer: V785-0024
Trigger mode: 0
Integration Time (sec): 4.000000E-1
Scans to average: 1
Nonlinearity correction enabled: false
Boxcar width: 0
Storing dark spectrum: false
XAxis mode: Wavelengths
Number of Pixels in Spectrum: 1024
>>>>>Begin Spectral Data<<<<<
801.071	23265
801.214	23227
801.356	22820
801.499	22778
801.641	22683
801.783	22664
801.926	22675
802.068	22478
802.211	22367
802.353	22291
802.496	22234
802.638	22025
802.78	22048
802.923	22044
803.065	21876
803.208	21857
803.35	22013
803.492	21876
803.635	22032
803.777	21903
803.919	21956
804.061	22265
804.204	22059
804.346	21915
804.488	21854
804.63	21865
804.773	21713
804.915	21800
805.057	21960
805.199	21941
805.341	21854
805.483	21915
805.626	21987
805.768	21903
805.91	21915
806.052	21975
806.194	21831
806.336	22074
806.478	22040
806.62	22055
806.762	21975
806.904	22204
807.046	22386
807.188	22428
807.33	22466
807.472	22519
807.614	22409
807.756	22542
807.898	22462
808.04	22485
808.182	22535
808.324	22748
808.465	22881
808.607	23303
808.749	23646
808.891	23714
809.033	23813
809.174	23604
809.316	23334
809.458	23181
809.6	22961
809.741	22987
809.883	22820
810.025	22835
810.166	22752
810.308	22694
810.45	22630
810.591	22622
810.733	22322
810.875	22341
811.016	22116
811.158	22238
811.299	22223
811.441	22299
811.582	22223
811.724	22105
811.865	22017
812.007	22120
812.148	22135
812.29	22166
812.431	22481
812.573	22474
812.714	22504
812.855	22630
812.997	22687
813.138	22892
813.279	22645
813.421	22626
813.562	22607
813.703	22466
813.845	22249
813.986	21972
814.127	21709
814.268	21698
814.41	21732
814.551	21751
814.692	21789
814.833	21526
814.974	21561
815.115	21591
815.256	21469
815.397	21595
815.539	21542
815.68	21408
815.821	21218
815.962	21424
816.103	21393
816.244	21389
816.385	21089
816.526	21165
816.666	20937
816.807	20899
816.948	20929
817.089	20971
817.23	20883
817.371	20921
817.512	20876
817.653	20689
817.793	20762
817.934	20895
818.075	20811
818.216	20720
818.356	20739
818.497	20705
818.638	20431
818.778	20484
818.919	20526
819.06	20465
819.2	20583
819.341	20727
819.481	20625
819.622	20693
819.762	20979
819.903	21005
820.043	20910
820.184	20739
820.324	20815
820.465	20891
820.605	20773
820.746	20853
820.886	20594
821.026	20693
821.167	20727
821.307	20750
821.447	20735
821.588	20659
821.728	20473
821.868	20252
822.008	19955
822.149	20096
822.289	20058
822.429	19849
822.569	19982
822.709	19860
822.849	19601
822.99	19639
823.13	19483
823.27	19491
823.41	19445
823.55	19206
823.69	19449
823.83	19274
823.97	19362
824.11	19126
824.25	19099
824.389	19175
824.529	19255
824.669	19217
824.809	19175
824.949	19308
825.089	19164
825.228	19255
825.368	19080
825.508	19023
825.648	18977
825.787	19004
825.927	19046
826.067	18928
826.206	18962
826.346	19095
826.485	19057
826.625	19004
826.765	19057
826.904	19061
827.044	18757
827.183	18711
827.323	18623
827.462	18726
827.601	18677
827.741	18684
827.88	18612
828.02	18578
828.159	18692
828.298	18563
828.437	18726
828.577	18608
828.716	18776
828.855	18536
828.994	18410
829.134	18407
829.273	18433
829.412	18365
829.551	18429
829.69	18407
829.829	18429
829.968	18559
830.107	18429
830.246	18441
830.385	18311
830.524	18327
830.663	18254
830.802	18258
830.941	18095
831.08	17961
831.219	18095
831.357	18076
831.496	18163
831.635	18007
831.774	17908
831.913	17821
832.051	17843
832.19	17691
832.329	17855
832.467	17775
832.606	17668
832.744	17722
832.883	17687
833.022	17570
833.16	17737
833.299	17802
833.437	17726
833.576	17699
833.714	17771
833.852	17866
833.991	17859
834.129	17863
834.267	17855
834.406	17836
834.544	17745
834.682	17817
834.821	17691
834.959	18003
835.097	17764
835.235	17786
835.373	17775
835.511	17813
835.65	17707
835.788	17627
835.926	17391
836.064	17421
836.202	17376
836.34	17585
836.478	17764
836.615	17581
836.753	17646
836.891	17760
837.029	17710
837.167	17623
837.305	17596
837.443	17497
837.58	17376
837.718	17615
837.856	17509
837.993	17455
838.131	17455
838.269	17455
838.406	17448
838.544	17254
838.681	17174
838.819	17079
838.956	16957
839.094	17071
839.231	17170
839.369	17193
839.506	17478
839.643	17318
839.781	16995
839.918	16999
840.055	16999
840.193	16999
840.33	16942
840.467	16908
840.604	17090
840.742	17216
840.879	16847
841.016	16858
841.153	16930
841.29	17121
841.427	16953
841.564	17003
841.701	17124
841.838	16877
841.975	16877
842.112	16809
842.249	16824
842.385	16694
842.522	16957
842.659	16816
842.796	16736
842.933	16824
843.069	16805
843.206	16786
843.343	16843
843.479	16774
843.616	16744
843.752	16523
843.889	16527
844.025	16645
844.162	16565
844.298	16683
844.435	16580
844.571	16607
844.708	16645
844.844	16725
844.98	16744
845.117	16771
845.253	16596
845.389	16710
845.525	16911
845.661	17231
845.798	17532
845.934	17950
846.07	18053
846.206	18011
846.342	17893
846.478	17356
846.614	16793
846.75	16531
846.886	16371
847.022	16375
847.158	16276
847.294	16185
847.429	16223
847.565	16154
847.701	16363
847.837	15892
847.972	15793
848.108	15937
848.244	15953
848.379	15739
848.515	15698
848.65	15622
848.786	15679
848.921	15759
849.057	15850
849.192	15739
849.328	15671
849.463	15766
849.598	15660
849.734	15568
849.869	15538
850.004	15454
850.14	15557
850.275	15462
850.41	15348
850.545	15359
850.68	15424
850.815	15443
850.95	15443
851.085	15644
851.22	15481
851.355	15454
851.49	15325
851.625	15435
851.76	15439
851.895	15363
852.03	15294
852.165	15317
852.299	15507
852.434	15462
852.569	15401
852.703	15488
852.838	15538
852.973	15599
853.107	15599
853.242	15496
853.376	15268
853.511	15249
853.645	15287
853.78	15477
853.914	15370
854.048	15367
854.183	15272
854.317	15412
854.451	15515
854.585	15329
854.72	15313
854.854	15329
854.988	15207
855.122	15252
855.256	15203
855.39	15344
855.524	15313
855.658	15291
855.792	15325
855.926	15439
856.06	15325
856.194	15389
856.327	15306
856.461	15184
856.595	15256
856.729	15321
856.862	15363
856.996	15283
857.13	15351
857.263	15405
857.397	15382
857.53	15351
857.664	15268
857.797	15382
857.931	15462
858.064	15382
858.197	15386
858.331	15214
858.464	15237
858.597	15218
858.731	15226
858.864	15287
858.997	15249
859.13	15298
859.263	15310
859.396	15374
859.529	15283
859.662	15237
859.795	15192
859.928	15256
860.061	15435
860.194	15485
860.327	15218
860.46	15279
860.592	15462
860.725	15378
860.858	15450
860.99	15313
861.123	15199
861.256	15241
861.388	15218
861.521	15918
861.653	15302
861.786	15142
861.918	15161
862.05	15214
862.183	15222
862.315	15287
862.447	15268
862.58	15188
862.712	15135
862.844	14979
862.976	15020
863.108	15089
863.24	15389
863.372	14982
863.504	15104
863.636	14960
863.768	15161
863.9	15085
864.032	14990
864.164	14963
864.296	15036
864.428	15188
864.559	15127
864.691	15142
864.823	15062
864.954	15100
865.086	15100
865.217	15089
865.349	15017
865.48	15020
865.612	15043
865.743	15131
865.875	15028
866.006	15005
866.137	14956
866.269	14925
866.4	15032
866.531	14876
866.662	14880
866.793	14941
866.924	14910
867.055	15058
867.186	15028
867.317	14921
867.448	14906
867.579	14998
867.71	14918
867.841	14933
867.972	14998
868.103	15017
868.233	15001
868.364	14986
868.495	15135
868.625	15245
868.756	15325
868.886	15214
869.017	15180
869.147	15260
869.278	15359
869.408	15291
869.539	15321
869.669	15401
869.799	15389
869.929	15367
870.06	15355
870.19	15564
870.32	15591
870.45	15622
870.58	15728
870.71	15766
870.84	15709
870.97	15648
871.1	15682
871.23	15819
871.36	15778
871.489	15789
871.619	15842
871.749	15930
871.879	15778
872.008	15865
872.138	15899
872.267	15827
872.397	15739
872.526	15755
872.656	15606
872.785	15591
872.915	15857
873.044	15892
873.173	15915
873.303	15907
873.432	15949
873.561	16051
873.69	15956
873.819	15888
873.948	16002
874.077	15964
874.206	15998
874.335	15895
874.464	16101
874.593	16188
874.722	16147
874.851	16280
874.979	16238
875.108	16306
875.237	16196
875.365	16181
875.494	16329
875.623	16303
875.751	16314
875.88	16295
876.008	16443
876.136	16398
876.265	16702
876.393	16691
876.521	16740
876.65	16664
876.778	16717
876.906	16634
877.034	16519
877.162	16706
877.29	16546
877.418	16660
877.546	16641
877.674	16660
877.802	16812
877.93	16679
878.058	16755
878.185	16573
878.313	16713
878.441	16805
878.568	16622
878.696	16908
878.824	16835
878.951	16987
879.079	17166
879.206	17433
879.333	17551
879.461	17486
879.588	17558
879.715	17695
879.842	17608
879.97	17330
880.097	16968
880.224	16877
880.351	16847
880.478	16816
880.605	16748
880.732	16729
880.859	17048
880.986	16664
881.112	16698
881.239	16637
881.366	16382
881.493	16322
881.619	16363
881.746	16322
881.872	16348
881.999	16295
882.125	16230
882.252	16352
882.378	16447
882.505	16538
882.631	16253
882.757	16166
882.883	16223
883.01	16257
883.136	16044
883.262	15998
883.388	16067
883.514	16299
883.64	16219
883.766	16048
883.892	15991
884.018	16044
884.143	16090
884.269	16166
884.395	15884
884.52	15876
884.646	15865
884.772	15865
884.897	15774
885.023	15945
885.148	15915
885.274	15941
885.399	15994
885.524	15781
885.65	15888
885.775	15766
885.9	15797
886.025	15892
886.15	15854
886.275	15778
886.4	15701
886.525	15800
886.65	15599
886.775	15720
886.9	15800
887.025	15949
887.149	15732
887.274	15679
887.399	15530
887.523	15561
887.648	15507
887.773	15416
887.897	15500
888.021	15610
888.146	15542
888.27	15644
888.395	15705
888.519	15587
888.643	15557
888.767	15675
888.891	15477
889.015	15401
889.139	15405
889.263	15416
889.387	15488
889.511	15504
889.635	15454
889.759	15382
889.883	15268
890.006	15294
890.13	15458
890.254	15275
890.377	15218
890.501	15207
890.624	15214
890.748	15176
890.871	15070
890.995	14990
891.118	15097
891.241	15070
891.364	14998
891.488	15123
891.611	15020
891.734	15005
891.857	15058
891.98	15093
892.103	15085
892.226	15036
892.349	15009
892.471	14861
892.594	14948
892.717	14990
892.839	14918
892.962	14918
893.085	15051
893.207	14914
893.33	14876
893.452	14880
893.575	14990
893.697	15005
893.819	15108
893.941	15241
894.064	15169
894.186	14887
894.308	14902
894.43	15062
894.552	15173
894.674	15081
894.796	14994
894.918	14994
895.04	15024
895.161	15123
895.283	15051
895.405	14937
895.526	15039
895.648	15085
895.769	15017
895.891	15176
896.012	15119
896.134	15138
896.255	15131
896.376	15119
896.498	15138
896.619	15154
896.74	15058
896.861	15161
896.982	15458
897.103	15603
897.224	15477
897.345	15340
897.466	15313
897.587	15382
897.708	15473
897.828	15389
897.949	15336
898.07	15195
898.19	15367
898.311	15507
898.431	15504
898.552	15477
898.672	15462
898.792	15561
898.913	15538
899.033	15443
899.153	15329
899.273	15256
899.393	15264
899.513	15412
899.633	15344
899.753	15348
899.873	15272
899.993	15325
900.113	15317
900.232	15359
900.352	15233
900.472	15264
900.591	15070
900.711	15157
900.83	15112
900.95	15351
901.069	15264
901.189	15116
901.308	14895
901.427	14925
901.546	14838
901.665	14800
901.784	14819
901.904	14682
902.023	14590
902.141	14381
902.26	14286
902.379	14495
902.498	14412
902.617	14282
902.735	14427
902.854	14438
902.973	14355
903.091	14073
903.21	14176
903.328	14046
903.446	13944
903.565	13959
903.683	13830
903.801	13860
903.919	13890
904.038	13868
904.156	13776
904.274	13780
904.392	13719
904.51	13704
904.627	13731
904.745	13772
904.863	13753
904.981	13567
905.098	13438
905.216	13457
905.334	13445
905.451	13457
905.569	13411
905.686	13422
905.803	13415
905.921	13274
906.038	13358
906.155	13179
906.272	13133
906.389	13160
906.506	13038
906.623	12943
906.74	13015
906.857	12856
906.974	12894
907.091	13107
907.208	13133
907.324	13088
907.441	12867
907.557	12829
907.674	12791
907.79	12620
907.907	12650
908.023	12700
908.139	12760
908.256	12597
908.372	12623
908.488	12658
908.604	12407
908.72	12372
908.836	12471
908.952	12376
909.068	12498
909.184	12513
909.3	12445
909.415	12574
909.531	12467
909.647	12277
909.762	12178
909.878	12201
909.993	12346
910.108	12163
910.224	12197
910.339	12186
910.454	12159
910.57	12049
910.685	11954
910.8	12258
910.915	12254
911.03	12057
911.145	11874
911.259	11847
911.374	11897
911.489	11722
911.604	11775
911.718	11710
911.833	11634
911.947	11524
912.062	11421
912.176	11665
912.291	11684
912.405	11676
912.519	11874
912.633	11840
912.748	11665
912.862	11714
912.976	11524
913.09	11368
913.204	11444
913.318	11528
913.431	11630
913.545	11589
913.659	11524
913.772	11467
913.886	11372
914	11349
914.113	11524
914.226	11478
914.34	11341
914.453	11235
914.566	11402
914.68	11311
914.793	11398
914.906	11140
915.019	11064
915.132	11117
915.245	11025
915.358	11098
915.47	11155
915.583	11159
915.696	11094
915.809	11284
915.921	11261
916.034	11014
916.146	10984
916.259	11075
916.371	11098
916.483	11064
916.595	11048
916.708	10995
916.82	11022
916.932	11045
917.044	11003
917.156	10999
917.268	10885
917.38	10965
917.491	10873
917.603	10957
917.715	10999
917.826	10995
917.938	10930
918.049	10793
918.161	10919
918.272	11056
918.384	11075
918.495	10881
918.606	10850
918.717	10683
918.828	10793
918.939	10771
919.05	10694
919.161	10759
919.272	10596
919.383	10622
919.494	10892
919.604	10980
919.715	10721
919.826	10626
919.936	10805
920.047	10835
920.157	10797
920.267	10961
920.378	10801
920.488	10752
920.598	10946
920.708	11128
920.818	11033
920.928	10881
921.038	11147
921.148	11083
921.258	10847
921.368	10778
921.477	10603
921.587	10592
921.697	10519
921.806	10668
921.916	10481
922.025	10409
922.134	10352
922.244	10310
922.353	10356
922.462	10223
922.571	10147
922.68	10032
922.789	10025
922.898	10082
923.007	10010
923.116	10074
923.224	10025
923.333	9994
923.442	9918
923.55	9918
923.659	9892
923.767	9937
923.876	9888
923.984	9880
924.092	9686
924.201	9873
924.309	9915
924.417	9880
924.525	9751
924.633	9785
924.741	10771
924.849	9625
924.956	9827
925.064	9637
925.172	9587
925.279	9561
925.387	9614
925.494	9599
925.602	9740
925.709	9606
925.816	9633
925.924	9656
926.031	9633
926.138	9576
926.245	9698
926.352	9576
926.459	9694
926.566	9778
926.673	9572
926.779	9428
926.886	9431
926.993	9317
927.099	9294
927.206	9302
927.312	9245
927.419	9310
927.525	9351
927.631	9374
927.737	9214
927.843	9169
927.95	9093
928.056	9176
928.162	9253
928.267	9279
928.373	9759
928.479	9321
928.585	9062
928.69	9222
928.796	9287
928.901	9161
929.007	8883
929.112	9108
929.218	9119
929.323	9062
929.428	8941
929.533	9195
929.638	8967
929.743	9039
929.848	9081
929.953	8971
930.058	8982
930.163	8716
930.267	8750
930.372	8899
930.477	8845
930.581	9039
930.685	8895
930.79	8701
930.894	8762
930.998	8701
931.103	8857
931.207	8579
931.311	8412
931.415	8404
931.519	8202
931.623	8221
