Data from test_V78500241_3588.txt Node
Date: Fri Mar 25 14:58:42 CST 2022
User: usil
Spectrometer: V785-0024
Trigger mode: 0
Integration Time (sec): 4.000000E-1
Scans to average: 1
Nonlinearity correction enabled: false
Boxcar width: 0
Storing dark spectrum: false
XAxis mode: Wavelengths
Number of Pixels in Spectrum: 1024
>>>>>Begin Spectral Data<<<<<
801.071	21857
801.214	21724
801.356	21572
801.499	21348
801.641	21237
801.783	21272
801.926	21389
802.068	21287
802.211	21119
802.353	20963
802.496	20857
802.638	20750
802.78	20708
802.923	20739
803.065	20670
803.208	20530
803.35	20636
803.492	20735
803.635	20682
803.777	20625
803.919	20689
804.061	20971
804.204	20667
804.346	20465
804.488	20598
804.63	20549
804.773	20434
804.915	20450
805.057	20655
805.199	20549
805.341	20473
805.483	20609
805.626	20530
805.768	20522
805.91	20587
806.052	20571
806.194	20454
806.336	20674
806.478	20469
806.62	20412
806.762	20514
806.904	20746
807.046	20956
807.188	20895
807.33	20765
807.472	20838
807.614	20769
807.756	20762
807.898	20568
808.04	20545
808.182	20476
808.324	20495
808.465	20575
808.607	20785
808.749	20823
808.891	20883
809.033	20906
809.174	20887
809.316	20864
809.458	20883
809.6	20777
809.741	20872
809.883	20849
810.025	21005
810.166	20921
810.308	20929
810.45	20952
810.591	20960
810.733	20762
810.875	20731
811.016	20533
811.158	20552
811.299	20746
811.441	20724
811.582	20587
811.724	20609
811.865	20621
812.007	20552
812.148	20575
812.29	20678
812.431	20785
812.573	20872
812.714	21104
812.855	21165
812.997	21211
813.138	21249
813.279	21127
813.421	21180
813.562	21043
813.703	20876
813.845	20804
813.986	20530
814.127	20332
814.268	20336
814.41	20187
814.551	20138
814.692	20259
814.833	20138
814.974	20115
815.115	20202
815.256	20062
815.397	19955
815.539	20126
815.68	19833
815.821	19845
815.962	20043
816.103	19989
816.244	19674
816.385	19582
816.526	19571
816.666	19441
816.807	19304
816.948	19434
817.089	19403
817.23	19331
817.371	19362
817.512	19209
817.653	19217
817.793	19141
817.934	19240
818.075	19244
818.216	19331
818.356	19179
818.497	19012
818.638	18935
818.778	19046
818.919	18878
819.06	19038
819.2	19145
819.341	19255
819.481	19069
819.622	19244
819.762	19377
819.903	19377
820.043	19350
820.184	19152
820.324	19285
820.465	19282
820.605	19266
820.746	19133
820.886	19084
821.026	19217
821.167	19088
821.307	19270
821.447	19129
821.588	19053
821.728	18852
821.868	18817
822.008	18688
822.149	18726
822.289	18646
822.429	18437
822.569	18323
822.709	18334
822.849	18232
822.99	18209
823.13	18076
823.27	18057
823.41	17965
823.55	17916
823.69	18091
823.83	17996
823.97	17973
824.11	17710
824.25	17718
824.389	17798
824.529	17824
824.669	17672
824.809	17885
824.949	17843
825.089	17783
825.228	17691
825.368	17551
825.508	17448
825.648	17532
825.787	17558
825.927	17562
826.067	17467
826.206	17497
826.346	17512
826.485	17528
826.625	17516
826.765	17630
826.904	17619
827.044	17265
827.183	17284
827.323	17143
827.462	17383
827.601	17223
827.741	17185
827.88	17246
828.02	17006
828.159	17193
828.298	17417
828.437	17261
828.577	17181
828.716	17356
828.855	17155
828.994	17022
829.134	16938
829.273	16965
829.412	16900
829.551	16915
829.69	16927
829.829	16862
829.968	17102
830.107	17006
830.246	16881
830.385	16896
830.524	16831
830.663	16820
830.802	16710
830.941	16645
831.08	16611
831.219	16630
831.357	16622
831.496	16771
831.635	16577
831.774	16497
831.913	16569
832.051	16314
832.19	16405
832.329	16382
832.467	16413
832.606	16124
832.744	16265
832.883	16246
833.022	16246
833.16	16242
833.299	16318
833.437	16287
833.576	16325
833.714	16310
833.852	16333
833.991	16413
834.129	16390
834.267	16424
834.406	16390
834.544	16310
834.682	16386
834.821	16325
834.959	16538
835.097	16272
835.235	16459
835.373	16363
835.511	16352
835.65	16352
835.788	16287
835.926	16124
836.064	16017
836.202	16078
836.34	16303
836.478	16314
836.615	16310
836.753	16367
836.891	16360
837.029	16375
837.167	16314
837.305	16325
837.443	16135
837.58	16120
837.718	16162
837.856	16188
837.993	16166
838.131	16230
838.269	16109
838.406	16207
838.544	16048
838.681	15827
838.819	15876
838.956	15778
839.094	15800
839.231	15759
839.369	15968
839.506	16154
839.643	16002
839.781	15789
839.918	15682
840.055	15793
840.193	15800
840.33	15747
840.467	15728
840.604	15865
840.742	16097
840.879	15709
841.016	15675
841.153	15595
841.29	15915
841.427	15800
841.564	15720
841.701	15812
841.838	15656
841.975	15625
842.112	15652
842.249	15572
842.385	15485
842.522	15823
842.659	15454
842.796	15507
842.933	15625
843.069	15473
843.206	15595
843.343	15549
843.479	15534
843.616	15622
843.752	15272
843.889	15348
844.025	15469
844.162	15313
844.298	15405
844.435	15176
844.571	15279
844.708	15370
844.844	15439
844.98	15492
845.117	15393
845.253	15256
845.389	15150
845.525	15264
845.661	15211
845.798	15074
845.934	15119
846.07	15043
846.206	15131
846.342	15161
846.478	15150
846.614	14933
846.75	14895
846.886	14952
847.022	14937
847.158	14910
847.294	14883
847.429	14883
847.565	14842
847.701	15146
847.837	14693
847.972	14606
848.108	14705
848.244	14716
848.379	14598
848.515	14415
848.65	14514
848.786	14446
848.921	14442
849.057	14518
849.192	14564
849.328	14632
849.463	14518
849.598	14492
849.734	14370
849.869	14434
850.004	14252
850.14	14320
850.275	14202
850.41	14233
850.545	14210
850.68	14191
850.815	14286
850.95	14176
851.085	14389
851.22	14343
851.355	14320
851.49	14191
851.625	14248
851.76	14218
851.895	14050
852.03	14130
852.165	14149
852.299	14237
852.434	14389
852.569	14396
852.703	14256
852.838	14393
852.973	14537
853.107	14362
853.242	14176
853.376	14229
853.511	14084
853.645	14145
853.78	14298
853.914	14168
854.048	14100
854.183	14016
854.317	14119
854.451	14358
854.585	14126
854.72	14111
854.854	14157
854.988	14062
855.122	14092
855.256	13963
855.39	14005
855.524	14244
855.658	14153
855.792	14161
855.926	14191
856.06	14134
856.194	14183
856.327	14119
856.461	14001
856.595	14031
856.729	14081
856.862	14233
856.996	14123
857.13	14176
857.263	14221
857.397	14248
857.53	14103
857.664	14157
857.797	14267
857.931	14252
858.064	14088
858.197	14218
858.331	14191
858.464	14123
858.597	14126
858.731	14103
858.864	14077
858.997	14157
859.13	14142
859.263	14168
859.396	14267
859.529	14100
859.662	14062
859.795	14027
859.928	14168
860.061	14210
860.194	14343
860.327	14092
860.46	14123
860.592	14191
860.725	14195
860.858	14282
860.99	14123
861.123	13997
861.256	14096
861.388	14191
861.521	14941
861.653	13997
861.786	14027
861.918	13974
862.05	14046
862.183	14100
862.315	14138
862.447	14111
862.58	14039
862.712	13997
862.844	13944
862.976	13982
863.108	13921
863.24	14309
863.372	13845
863.504	13909
863.636	13932
863.768	13944
863.9	13845
864.032	13868
864.164	13856
864.296	13921
864.428	14046
864.559	13978
864.691	14012
864.823	13997
864.954	13940
865.086	13970
865.217	13822
865.349	13826
865.48	13894
865.612	13978
865.743	14008
865.875	13921
866.006	13868
866.137	13799
866.269	13902
866.4	13841
866.531	13791
866.662	13780
866.793	13852
866.924	13879
867.055	13875
867.186	13830
867.317	13830
867.448	13795
867.579	13833
867.71	13769
867.841	13803
867.972	13951
868.103	13890
868.233	13894
868.364	13959
868.495	14012
868.625	14168
868.756	14290
868.886	14054
869.017	14062
869.147	14305
869.278	14267
869.408	14164
869.539	14084
869.669	14263
869.799	14195
869.929	14202
870.06	14256
870.19	14537
870.32	14492
870.45	14495
870.58	14598
870.71	14716
870.84	14564
870.97	14526
871.1	14537
871.23	14769
871.36	14705
871.489	14629
871.619	14739
871.749	14762
871.879	14788
872.008	14876
872.138	14750
872.267	14773
872.397	14632
872.526	14587
872.656	14560
872.785	14533
872.915	14807
873.044	14838
873.173	14834
873.303	14811
873.432	14785
873.561	15009
873.69	14765
873.819	14838
873.948	14914
874.077	14815
874.206	14773
874.335	14811
874.464	14990
874.593	15055
874.722	14960
874.851	15188
874.979	15142
875.108	15142
875.237	15043
875.365	15028
875.494	15097
875.623	15138
875.751	15024
875.88	15154
876.008	15214
876.136	15249
876.265	15591
876.393	15720
876.521	15644
876.65	15591
876.778	15568
876.906	15504
877.034	15530
877.162	15542
877.29	15420
877.418	15477
877.546	15534
877.674	15542
877.802	15599
877.93	15564
878.058	15443
878.185	15412
878.313	15519
878.441	15580
878.568	15378
878.696	15534
878.824	15576
878.951	15595
879.079	15660
879.206	15724
879.333	15682
879.461	15580
879.588	15644
879.715	15720
879.842	15785
879.97	15568
880.097	15351
880.224	15397
880.351	15462
880.478	15408
880.605	15313
880.732	15397
880.859	15663
880.986	15363
881.112	15439
881.239	15355
881.366	15150
881.493	15093
881.619	15001
881.746	15036
881.872	14967
881.999	14937
882.125	14963
882.252	15047
882.378	15051
882.505	15211
882.631	15032
882.757	14895
882.883	14967
883.01	14895
883.136	14804
883.262	14708
883.388	14621
883.514	14842
883.64	14956
883.766	14849
883.892	14746
884.018	14727
884.143	14918
884.269	14921
884.395	14606
884.52	14530
884.646	14549
884.772	14514
884.897	14488
885.023	14564
885.148	14670
885.274	14724
885.399	14606
885.524	14530
885.65	14621
885.775	14606
885.9	14602
886.025	14659
886.15	14655
886.275	14575
886.4	14484
886.525	14530
886.65	14594
886.775	14514
886.9	14701
887.025	14765
887.149	14629
887.274	14400
887.399	14339
887.523	14423
887.648	14343
887.773	14305
887.897	14473
888.021	14450
888.146	14396
888.27	14454
888.395	14537
888.519	14423
888.643	14362
888.767	14530
888.891	14351
889.015	14248
889.139	14252
889.263	14320
889.387	14476
889.511	14377
889.635	14412
889.759	14278
889.883	14256
890.006	14294
890.13	14336
890.254	14248
890.377	14195
890.501	14069
890.624	14130
890.748	14084
890.871	13959
890.995	13913
891.118	13921
891.241	13986
891.364	14008
891.488	14119
891.611	13997
891.734	13959
891.857	14027
891.98	13955
892.103	14050
892.226	13959
892.349	13940
892.471	13788
892.594	13868
892.717	14065
892.839	13970
892.962	13986
893.085	14069
893.207	14008
893.33	13902
893.452	13921
893.575	14062
893.697	13940
893.819	14107
893.941	14210
894.064	14225
894.186	13940
894.308	13947
894.43	14164
894.552	14164
894.674	14130
894.796	13936
894.918	13974
895.04	14008
895.161	14183
895.283	14092
895.405	13955
895.526	14016
895.648	14119
895.769	14138
895.891	14084
896.012	14168
896.134	14103
896.255	14195
896.376	14084
896.498	14073
896.619	14214
896.74	13997
896.861	14142
896.982	14457
897.103	14667
897.224	14423
897.345	14381
897.466	14332
897.587	14412
897.708	14541
897.828	14503
897.949	14347
898.07	14343
898.19	14393
898.311	14579
898.431	14434
898.552	14495
898.672	14617
898.792	14625
898.913	14511
899.033	14381
899.153	14332
899.273	14263
899.393	14317
899.513	14427
899.633	14324
899.753	14355
899.873	14263
899.993	14427
900.113	14347
900.232	14351
900.352	14351
900.472	14225
900.591	14130
900.711	14362
900.83	14248
900.95	14298
901.069	14434
901.189	14153
901.308	13932
901.427	13913
901.546	13898
901.665	13890
901.784	13986
901.904	13662
902.023	13628
902.141	13533
902.26	13396
902.379	13491
902.498	13422
902.617	13369
902.735	13537
902.854	13487
902.973	13358
903.091	13194
903.21	13072
903.328	13137
903.446	13107
903.565	13053
903.683	13023
903.801	12894
903.919	12993
904.038	13027
904.156	12814
904.274	12890
904.392	12848
904.51	12825
904.627	12791
904.745	12871
904.863	12909
904.981	12700
905.098	12574
905.216	12528
905.334	12566
905.451	12578
905.569	12452
905.686	12597
905.803	12513
905.921	12399
906.038	12464
906.155	12407
906.272	12315
906.389	12338
906.506	12205
906.623	12072
906.74	12117
906.857	12076
906.974	12011
907.091	12220
907.208	12213
907.324	12148
907.441	12060
907.557	11961
907.674	11855
907.79	11809
907.907	11824
908.023	11916
908.139	11893
908.256	11901
908.372	11931
908.488	11790
908.604	11756
908.72	11619
908.836	11668
908.952	11615
909.068	11608
909.184	11718
909.3	11707
909.415	11695
909.531	11653
909.647	11448
909.762	11524
909.878	11334
909.993	11349
910.108	11372
910.224	11345
910.339	11474
910.454	11269
910.57	11318
910.685	11212
910.8	11493
910.915	11318
911.03	11227
911.145	11075
911.259	10995
911.374	11143
911.489	11083
911.604	10999
911.718	10850
911.833	10968
911.947	10755
912.062	10698
912.176	10824
912.291	10862
912.405	10889
912.519	11029
912.633	11128
912.748	10980
912.862	10934
912.976	10767
913.09	10584
913.204	10710
913.318	10797
913.431	10858
913.545	10839
913.659	10892
913.772	10752
913.886	10653
914	10554
914.113	10660
914.226	10763
914.34	10721
914.453	10531
914.566	10698
914.68	10679
914.793	10561
914.906	10440
915.019	10348
915.132	10303
915.245	10398
915.358	10379
915.47	10459
915.583	10417
915.696	10485
915.809	10523
915.921	10546
916.034	10367
916.146	10417
916.259	10249
916.371	10447
916.483	10398
916.595	10318
916.708	10360
916.82	10394
916.932	10333
917.044	10363
917.156	10253
917.268	10223
917.38	10128
917.491	10185
917.603	10280
917.715	10337
917.826	10314
917.938	10207
918.049	10109
918.161	10169
918.272	10337
918.384	10341
918.495	10230
918.606	10116
918.717	10036
918.828	10055
918.939	10124
919.05	10071
919.161	10067
919.272	9918
919.383	9991
919.494	10128
919.604	10177
919.715	10116
919.826	9964
919.936	10181
920.047	10223
920.157	10154
920.267	10352
920.378	10135
920.488	10101
920.598	10360
920.708	10413
920.818	10341
920.928	10291
921.038	10375
921.148	10428
921.258	10173
921.368	10078
921.477	9949
921.587	9850
921.697	9854
921.806	9998
921.916	9861
922.025	9732
922.134	9641
922.244	9591
922.353	9724
922.462	9625
922.571	9477
922.68	9363
922.789	9405
922.898	9416
923.007	9317
923.116	9378
923.224	9416
923.333	9363
923.442	9218
923.55	9230
923.659	9310
923.767	9313
923.876	9203
923.984	9256
924.092	9199
924.201	9207
924.309	9199
924.417	9241
924.525	9161
924.633	9218
924.741	9937
924.849	8979
924.956	9192
925.064	9024
925.172	8956
925.279	9043
925.387	9032
925.494	9013
925.602	9154
925.709	9123
925.816	9036
925.924	9032
926.031	9176
926.138	9043
926.245	9020
926.352	8982
926.459	9157
926.566	9184
926.673	8986
926.779	8948
926.886	8918
926.993	8807
927.099	8746
927.206	8750
927.312	8659
927.419	8796
927.525	8785
927.631	8769
927.737	8640
927.843	8598
927.95	8541
928.056	8659
928.162	8686
928.267	8705
928.373	9214
928.479	8735
928.585	8488
928.69	8659
928.796	8621
928.901	8610
929.007	8434
929.112	8560
929.218	8556
929.323	8457
929.428	8442
929.533	8587
929.638	8374
929.743	8412
929.848	8537
929.953	8434
930.058	8324
930.163	8210
930.267	8218
930.372	8385
930.477	8187
930.581	8450
930.685	8332
930.79	8214
930.894	8248
930.998	8218
931.103	8271
931.207	7974
931.311	7955
931.415	7864
931.519	7742
931.623	7738
