Data from test_V78500241_1756.txt Node
Date: Fri Mar 25 14:45:56 CST 2022
User: usil
Spectrometer: V785-0024
Trigger mode: 0
Integration Time (sec): 4.000000E-1
Scans to average: 1
Nonlinearity correction enabled: false
Boxcar width: 0
Storing dark spectrum: false
XAxis mode: Wavelengths
Number of Pixels in Spectrum: 1024
>>>>>Begin Spectral Data<<<<<
801.071	22299
801.214	22070
801.356	21842
801.499	21698
801.641	21599
801.783	21526
801.926	21500
802.068	21443
802.211	21374
802.353	21260
802.496	21154
802.638	21043
802.78	20971
802.923	21104
803.065	20960
803.208	20941
803.35	20956
803.492	20872
803.635	21081
803.777	20891
803.919	20906
804.061	21184
804.204	20975
804.346	20792
804.488	20785
804.63	20902
804.773	20788
804.915	20788
805.057	20937
805.199	20712
805.341	20842
805.483	20952
805.626	20960
805.768	20697
805.91	20853
806.052	20891
806.194	20739
806.336	20948
806.478	20781
806.62	20682
806.762	20868
806.904	20944
807.046	21249
807.188	21184
807.33	21241
807.472	21135
807.614	21108
807.756	21085
807.898	20933
808.04	20857
808.182	20971
808.324	20971
808.465	20861
808.607	21055
808.749	21199
808.891	21325
809.033	21389
809.174	21313
809.316	21138
809.458	21203
809.6	21291
809.741	21207
809.883	21173
810.025	21389
810.166	21401
810.308	21408
810.45	21424
810.591	21173
810.733	21112
810.875	21039
811.016	20941
811.158	20948
811.299	21017
811.441	21032
811.582	21043
811.724	21013
811.865	21017
812.007	20982
812.148	20880
812.29	20868
812.431	21195
812.573	21104
812.714	21374
812.855	21405
812.997	21591
813.138	21686
813.279	21557
813.421	21469
813.562	21348
813.703	21275
813.845	21157
813.986	20739
814.127	20689
814.268	20579
814.41	20545
814.551	20450
814.692	20583
814.833	20431
814.974	20598
815.115	20305
815.256	20476
815.397	20317
815.539	20461
815.68	20298
815.821	20202
815.962	20191
816.103	20195
816.244	20081
816.385	19898
816.526	20005
816.666	19772
816.807	19666
816.948	19723
817.089	19826
817.23	19712
817.371	19597
817.512	19590
817.653	19677
817.793	19544
817.934	19651
818.075	19727
818.216	19685
818.356	19544
818.497	19480
818.638	19301
818.778	19263
818.919	19289
819.06	19430
819.2	19339
819.341	19529
819.481	19533
819.622	19571
819.762	19769
819.903	19693
820.043	19738
820.184	19628
820.324	19662
820.465	19727
820.605	19521
820.746	19662
820.886	19476
821.026	19563
821.167	19655
821.307	19571
821.447	19506
821.588	19521
821.728	19327
821.868	18989
822.008	19053
822.149	18943
822.289	18958
822.429	18730
822.569	18639
822.709	18696
822.849	18555
822.99	18540
823.13	18509
823.27	18475
823.41	18292
823.55	18266
823.69	18376
823.83	18270
823.97	18201
824.11	18110
824.25	18117
824.389	18053
824.529	18136
824.669	18163
824.809	18148
824.949	18228
825.089	18163
825.228	18106
825.368	18003
825.508	17973
825.648	17920
825.787	17984
825.927	17805
826.067	17802
826.206	17878
826.346	17866
826.485	17912
826.625	17809
826.765	17931
826.904	17935
827.044	17615
827.183	17592
827.323	17471
827.462	17752
827.601	17478
827.741	17528
827.88	17532
828.02	17463
828.159	17528
828.298	17630
828.437	17634
828.577	17687
828.716	17642
828.855	17512
828.994	17254
829.134	17387
829.273	17349
829.412	17258
829.551	17356
829.69	17235
829.829	17387
829.968	17482
830.107	17455
830.246	17212
830.385	17322
830.524	17193
830.663	17113
830.802	17045
830.941	17064
831.08	16915
831.219	16999
831.357	17109
831.496	17200
831.635	17056
831.774	16873
831.913	16725
832.051	16656
832.19	16713
832.329	16771
832.467	16653
832.606	16538
832.744	16607
832.883	16580
833.022	16622
833.16	16569
833.299	16599
833.437	16626
833.576	16630
833.714	16634
833.852	16641
833.991	16774
834.129	16778
834.267	16752
834.406	16729
834.544	16721
834.682	16679
834.821	16687
834.959	16889
835.097	16675
835.235	16755
835.373	16797
835.511	16675
835.65	16599
835.788	16538
835.926	16421
836.064	16360
836.202	16436
836.34	16580
836.478	16752
836.615	16470
836.753	16660
836.891	16694
837.029	16656
837.167	16611
837.305	16424
837.443	16466
837.58	16390
837.718	16580
837.856	16481
837.993	16436
838.131	16382
838.269	16337
838.406	16379
838.544	16367
838.681	16185
838.819	16154
838.956	15979
839.094	15991
839.231	16143
839.369	16090
839.506	16478
839.643	16219
839.781	16013
839.918	16021
840.055	15991
840.193	15949
840.33	16006
840.467	15907
840.604	16067
840.742	16150
840.879	15987
841.016	15979
841.153	16029
841.29	16105
841.427	16109
841.564	16093
841.701	16105
841.838	16013
841.975	16013
842.112	15888
842.249	15789
842.385	15755
842.522	15899
842.659	15778
842.796	15903
842.933	15732
843.069	15762
843.206	15759
843.343	15781
843.479	15800
843.616	15861
843.752	15553
843.889	15519
844.025	15819
844.162	15534
844.298	15652
844.435	15496
844.571	15477
844.708	15724
844.844	15804
844.98	15797
845.117	15686
845.253	15580
845.389	15439
845.525	15507
845.661	15462
845.798	15401
845.934	15386
846.07	15340
846.206	15435
846.342	15469
846.478	15291
846.614	15119
846.75	15104
846.886	15032
847.022	15233
847.158	15135
847.294	15142
847.429	15180
847.565	15039
847.701	15302
847.837	14906
847.972	14891
848.108	15013
848.244	14914
848.379	14720
848.515	14724
848.65	14849
848.786	14773
848.921	14689
849.057	14857
849.192	14899
849.328	14773
849.463	14731
849.598	14697
849.734	14682
849.869	14606
850.004	14560
850.14	14526
850.275	14575
850.41	14454
850.545	14522
850.68	14492
850.815	14492
850.95	14522
851.085	14663
851.22	14625
851.355	14511
851.49	14533
851.625	14507
851.76	14438
851.895	14408
852.03	14336
852.165	14465
852.299	14473
852.434	14568
852.569	14644
852.703	14545
852.838	14571
852.973	14655
853.107	14648
853.242	14431
853.376	14450
853.511	14374
853.645	14259
853.78	14530
853.914	14408
854.048	14396
854.183	14362
854.317	14530
854.451	14522
854.585	14286
854.72	14370
854.854	14385
854.988	14256
855.122	14400
855.256	14267
855.39	14355
855.524	14419
855.658	14507
855.792	14427
855.926	14423
856.06	14469
856.194	14564
856.327	14290
856.461	14412
856.595	14328
856.729	14339
856.862	14518
856.996	14442
857.13	14461
857.263	14511
857.397	14511
857.53	14332
857.664	14317
857.797	14473
857.931	14495
858.064	14419
858.197	14507
858.331	14393
858.464	14351
858.597	14347
858.731	14339
858.864	14434
858.997	14374
859.13	14396
859.263	14438
859.396	14450
859.529	14370
859.662	14377
859.795	14339
859.928	14427
860.061	14552
860.194	14583
860.327	14408
860.46	14442
860.592	14454
860.725	14530
860.858	14514
860.99	14298
861.123	14256
861.256	14336
861.388	14412
861.521	14975
861.653	14377
861.786	14199
861.918	14278
862.05	14271
862.183	14313
862.315	14461
862.447	14438
862.58	14271
862.712	14161
862.844	14130
862.976	14248
863.108	14210
863.24	14629
863.372	14088
863.504	14161
863.636	14130
863.768	14092
863.9	14096
864.032	14111
864.164	14168
864.296	14119
864.428	14202
864.559	14290
864.691	14259
864.823	14176
864.954	14290
865.086	14153
865.217	14153
865.349	14240
865.48	14202
865.612	14164
865.743	14214
865.875	14248
866.006	14183
866.137	14180
866.269	14149
866.4	14210
866.531	14130
866.662	14096
866.793	13986
866.924	14180
867.055	14138
867.186	14157
867.317	14145
867.448	14050
867.579	14168
867.71	14096
867.841	14043
867.972	14046
868.103	14183
868.233	14176
868.364	14195
868.495	14199
868.625	14309
868.756	14514
868.886	14324
869.017	14328
869.147	14507
869.278	14511
869.408	14339
869.539	14431
869.669	14480
869.799	14511
869.929	14533
870.06	14503
870.19	14659
870.32	14686
870.45	14693
870.58	14880
870.71	14876
870.84	14861
870.97	14819
871.1	14716
871.23	15009
871.36	14967
871.489	14895
871.619	14937
871.749	14986
871.879	14994
872.008	15085
872.138	15013
872.267	14925
872.397	14750
872.526	14815
872.656	14788
872.785	14804
872.915	14952
873.044	15093
873.173	15013
873.303	15051
873.432	15081
873.561	15123
873.69	15032
873.819	15070
873.948	15074
874.077	15001
874.206	14906
874.335	15070
874.464	15157
874.593	15287
874.722	15264
874.851	15393
874.979	15466
875.108	15340
875.237	15298
875.365	15283
875.494	15287
875.623	15397
875.751	15321
875.88	15378
876.008	15576
876.136	15557
876.265	15895
876.393	15869
876.521	15831
876.65	15911
876.778	15728
876.906	15686
877.034	15717
877.162	15869
877.29	15762
877.418	15819
877.546	15774
877.674	15823
877.802	15804
877.93	15781
878.058	15743
878.185	15739
878.313	15804
878.441	15739
878.568	15542
878.696	15679
878.824	15797
878.951	15812
879.079	15956
879.206	16131
879.333	15907
879.461	15876
879.588	15926
879.715	16032
879.842	15937
879.97	15850
880.097	15675
880.224	15724
880.351	15660
880.478	15610
880.605	15473
880.732	15660
880.859	15865
880.986	15667
881.112	15538
881.239	15530
881.366	15439
881.493	15241
881.619	15203
881.746	15336
881.872	15256
881.999	15169
882.125	15218
882.252	15252
882.378	15332
882.505	15317
882.631	15237
882.757	15074
882.883	15058
883.01	15051
883.136	15028
883.262	15024
883.388	14994
883.514	15176
883.64	15066
883.766	15085
883.892	14925
884.018	14887
884.143	15104
884.269	15131
884.395	14994
884.52	14788
884.646	14880
884.772	14697
884.897	14697
885.023	14845
885.148	14838
885.274	14948
885.399	14933
885.524	14796
885.65	14830
885.775	14716
885.9	14750
886.025	14906
886.15	14773
886.275	14712
886.4	14670
886.525	14610
886.65	14758
886.775	14781
886.9	14910
887.025	14929
887.149	14826
887.274	14659
887.399	14587
887.523	14568
887.648	14476
887.773	14537
887.897	14754
888.021	14530
888.146	14617
888.27	14754
888.395	14750
888.519	14644
888.643	14651
888.767	14708
888.891	14469
889.015	14438
889.139	14590
889.263	14549
889.387	14629
889.511	14727
889.635	14541
889.759	14415
889.883	14522
890.006	14541
890.13	14621
890.254	14442
890.377	14461
890.501	14324
890.624	14225
890.748	14389
890.871	14229
890.995	14199
891.118	14031
891.241	14256
891.364	14195
891.488	14286
891.611	14210
891.734	14248
891.857	14336
891.98	14164
892.103	14294
892.226	14145
892.349	14065
892.471	14100
892.594	14096
892.717	14278
892.839	14153
892.962	14183
893.085	14259
893.207	14256
893.33	14035
893.452	14142
893.575	14252
893.697	14115
893.819	14343
893.941	14412
894.064	14305
894.186	14176
894.308	14187
894.43	14336
894.552	14366
894.674	14351
894.796	14210
894.918	14218
895.04	14100
895.161	14309
895.283	14172
895.405	14259
895.526	14343
895.648	14199
895.769	14461
895.891	14370
896.012	14362
896.134	14419
896.255	14305
896.376	14275
896.498	14313
896.619	14408
896.74	14374
896.861	14370
896.982	14674
897.103	14682
897.224	14636
897.345	14560
897.466	14549
897.587	14629
897.708	14720
897.828	14667
897.949	14564
898.07	14503
898.19	14579
898.311	14670
898.431	14579
898.552	14796
898.672	14743
898.792	14792
898.913	14716
899.033	14552
899.153	14473
899.273	14495
899.393	14446
899.513	14438
899.633	14454
899.753	14610
899.873	14518
899.993	14610
900.113	14587
900.232	14488
900.352	14560
900.472	14511
900.591	14393
900.711	14423
900.83	14328
900.95	14457
901.069	14617
901.189	14419
901.308	14157
901.427	14092
901.546	14043
901.665	14043
901.784	14073
901.904	13967
902.023	13890
902.141	13700
902.26	13628
902.379	13738
902.498	13632
902.617	13609
902.735	13609
902.854	13582
902.973	13594
903.091	13350
903.21	13403
903.328	13400
903.446	13263
903.565	13259
903.683	13331
903.801	13145
903.919	13228
904.038	13206
904.156	13004
904.274	13122
904.392	13057
904.51	13091
904.627	13061
904.745	13072
904.863	13095
904.981	12909
905.098	12639
905.216	12787
905.334	12734
905.451	12726
905.569	12669
905.686	12753
905.803	12700
905.921	12544
906.038	12532
906.155	12604
906.272	12513
906.389	12437
906.506	12414
906.623	12239
906.74	12334
906.857	12171
906.974	12197
907.091	12460
907.208	12445
907.324	12353
907.441	12251
907.557	12148
907.674	12079
907.79	12041
907.907	11996
908.023	12049
908.139	11984
908.256	12049
908.372	11984
908.488	12011
908.604	11851
908.72	11790
908.836	11741
908.952	11786
909.068	11813
909.184	11961
909.3	11813
909.415	11908
909.531	11935
909.647	11657
909.762	11611
909.878	11528
909.993	11581
910.108	11672
910.224	11638
910.339	11585
910.454	11520
910.57	11433
910.685	11349
910.8	11714
910.915	11676
911.03	11554
911.145	11330
911.259	11345
911.374	11292
911.489	11311
911.604	11166
911.718	11117
911.833	11208
911.947	10984
912.062	10930
912.176	11025
912.291	11075
912.405	11071
912.519	11265
912.633	11391
912.748	11151
912.862	11048
912.976	11014
913.09	10892
913.204	10938
913.318	10984
913.431	11045
913.545	11075
913.659	11113
913.772	10923
913.886	10816
914	10831
914.113	10911
914.226	10930
914.34	10919
914.453	10828
914.566	10934
914.68	10790
914.793	10687
914.906	10668
915.019	10577
915.132	10489
915.245	10599
915.358	10702
915.47	10508
915.583	10698
915.696	10656
915.809	10729
915.921	10736
916.034	10603
916.146	10565
916.259	10512
916.371	10596
916.483	10599
916.595	10470
916.708	10481
916.82	10527
916.932	10546
917.044	10508
917.156	10466
917.268	10436
917.38	10478
917.491	10466
917.603	10436
917.715	10459
917.826	10561
917.938	10394
918.049	10333
918.161	10398
918.272	10519
918.384	10569
918.495	10474
918.606	10303
918.717	10230
918.828	10284
918.939	10394
919.05	10246
919.161	10223
919.272	10090
919.383	10249
919.494	10451
919.604	10462
919.715	10295
919.826	10272
919.936	10268
920.047	10432
920.157	10367
920.267	10531
920.378	10413
920.488	10360
920.598	10485
920.708	10630
920.818	10508
920.928	10447
921.038	10611
921.148	10656
921.258	10329
921.368	10284
921.477	10162
921.587	10162
921.697	10090
921.806	10181
921.916	10040
922.025	9888
922.134	9797
922.244	9785
922.353	9991
922.462	9781
922.571	9705
922.68	9591
922.789	9431
922.898	9663
923.007	9462
923.116	9599
923.224	9488
923.333	9549
923.442	9477
923.55	9367
923.659	9473
923.767	9477
923.876	9405
923.984	9511
924.092	9355
924.201	9431
924.309	9386
924.417	9355
924.525	9287
924.633	9435
924.741	10333
924.849	9192
924.956	9321
925.064	9188
925.172	9138
925.279	9180
925.387	9211
925.494	9241
925.602	9310
925.709	9306
925.816	9207
925.924	9188
926.031	9298
926.138	9233
926.245	9222
926.352	9112
926.459	9226
926.566	9332
926.673	9199
926.779	9070
926.886	9157
926.993	8929
927.099	8925
927.206	8864
927.312	8902
927.419	8963
927.525	8929
927.631	8975
927.737	8834
927.843	8849
927.95	8701
928.056	8773
928.162	8834
928.267	8887
928.373	9500
928.479	8952
928.585	8663
928.69	8758
928.796	8796
928.901	8712
929.007	8606
929.112	8731
929.218	8739
929.323	8693
929.428	8644
929.533	8785
929.638	8556
929.743	8583
929.848	8610
929.953	8625
930.058	8549
930.163	8404
930.267	8434
930.372	8610
930.477	8408
930.581	8629
930.685	8488
930.79	8377
930.894	8415
930.998	8396
931.103	8446
931.207	8176
931.311	8100
931.415	7997
931.519	7807
931.623	7826
