Data from test_V78500241_1021.txt Node
Date: Fri Mar 25 14:40:49 CST 2022
User: usil
Spectrometer: V785-0024
Trigger mode: 0
Integration Time (sec): 4.000000E-1
Scans to average: 1
Nonlinearity correction enabled: false
Boxcar width: 0
Storing dark spectrum: false
XAxis mode: Wavelengths
Number of Pixels in Spectrum: 1024
>>>>>Begin Spectral Data<<<<<
801.071	22911
801.214	22957
801.356	22672
801.499	22497
801.641	22382
801.783	22318
801.926	22398
802.068	22154
802.211	22223
802.353	22143
802.496	21918
802.638	21987
802.78	21831
802.923	21739
803.065	21587
803.208	21572
803.35	21656
803.492	21846
803.635	21800
803.777	21663
803.919	21633
804.061	22013
804.204	21774
804.346	21603
804.488	21561
804.63	21629
804.773	21523
804.915	21610
805.057	21759
805.199	21511
805.341	21679
805.483	21800
805.626	21549
805.768	21629
805.91	21690
806.052	21583
806.194	21481
806.336	21789
806.478	21660
806.62	21656
806.762	21751
806.904	21827
807.046	22116
807.188	22078
807.33	21945
807.472	22265
807.614	22059
807.756	22078
807.898	21994
808.04	22013
808.182	22116
808.324	22303
808.465	22428
808.607	22672
808.749	22927
808.891	23086
809.033	23113
809.174	22911
809.316	22733
809.458	22713
809.6	22523
809.741	22599
809.883	22417
810.025	22424
810.166	22421
810.308	22405
810.45	22257
810.591	22246
810.733	22120
810.875	21926
811.016	21869
811.158	21884
811.299	21911
811.441	22063
811.582	21884
811.724	21857
811.865	21762
812.007	21819
812.148	21808
812.29	21873
812.431	22025
812.573	22177
812.714	22215
812.855	22344
812.997	22485
813.138	22550
813.279	22455
813.421	22436
813.562	22196
813.703	22147
813.845	21983
813.986	21751
814.127	21447
814.268	21428
814.41	21500
814.551	21317
814.692	21469
814.833	21386
814.974	21393
815.115	21359
815.256	21287
815.397	21325
815.539	21154
815.68	21123
815.821	21024
815.962	21146
816.103	21036
816.244	20872
816.385	20914
816.526	20944
816.666	20625
816.807	20518
816.948	20556
817.089	20590
817.23	20484
817.371	20560
817.512	20461
817.653	20465
817.793	20514
817.934	20526
818.075	20587
818.216	20613
818.356	20385
818.497	20301
818.638	20233
818.778	20263
818.919	20134
819.06	20332
819.2	20324
819.341	20396
819.481	20355
819.622	20450
819.762	20724
819.903	20625
820.043	20503
820.184	20499
820.324	20526
820.465	20556
820.605	20629
820.746	20568
820.886	20320
821.026	20351
821.167	20423
821.307	20602
821.447	20423
821.588	20263
821.728	20206
821.868	19989
822.008	19849
822.149	20012
822.289	19883
822.429	19632
822.569	19537
822.709	19533
822.849	19411
822.99	19316
823.13	19350
823.27	19247
823.41	19156
823.55	19065
823.69	19308
823.83	19259
823.97	19217
824.11	18985
824.25	18909
824.389	18958
824.529	19031
824.669	19015
824.809	19069
824.949	19046
825.089	19164
825.228	18958
825.368	18844
825.508	18741
825.648	18688
825.787	18825
825.927	18829
826.067	18665
826.206	18783
826.346	18783
826.485	18837
826.625	18719
826.765	18856
826.904	18779
827.044	18570
827.183	18517
827.323	18365
827.462	18380
827.601	18544
827.741	18486
827.88	18429
828.02	18399
828.159	18353
828.298	18460
828.437	18574
828.577	18384
828.716	18544
828.855	18399
828.994	18251
829.134	18205
829.273	18106
829.412	18102
829.551	18041
829.69	18098
829.829	18129
829.968	18152
830.107	18270
830.246	18224
830.385	18167
830.524	18110
830.663	17912
830.802	17897
830.941	17775
831.08	17779
831.219	17813
831.357	17859
831.496	17969
831.635	17794
831.774	17745
831.913	17657
832.051	17478
832.19	17562
832.329	17665
832.467	17474
832.606	17414
832.744	17486
832.883	17493
833.022	17455
833.16	17474
833.299	17417
833.437	17493
833.576	17524
833.714	17509
833.852	17554
833.991	17543
834.129	17642
834.267	17592
834.406	17554
834.544	17668
834.682	17486
834.821	17493
834.959	17680
835.097	17440
835.235	17528
835.373	17528
835.511	17585
835.65	17501
835.788	17501
835.926	17269
836.064	17197
836.202	17250
836.34	17421
836.478	17440
836.615	17417
836.753	17501
836.891	17581
837.029	17368
837.167	17452
837.305	17372
837.443	17296
837.58	17242
837.718	17337
837.856	17402
837.993	17261
838.131	17273
838.269	17231
838.406	17181
838.544	17147
838.681	17071
838.819	17037
838.956	16820
839.094	16702
839.231	16949
839.369	16938
839.506	17277
839.643	17010
839.781	16904
839.918	16755
840.055	16809
840.193	16850
840.33	16721
840.467	16759
840.604	16778
840.742	16934
840.879	16641
841.016	16691
841.153	16656
841.29	16938
841.427	16862
841.564	16854
841.701	16889
841.838	16736
841.975	16634
842.112	16793
842.249	16660
842.385	16599
842.522	16828
842.659	16577
842.796	16550
842.933	16508
843.069	16596
843.206	16546
843.343	16702
843.479	16588
843.616	16573
843.752	16363
843.889	16447
844.025	16577
844.162	16246
844.298	16390
844.435	16367
844.571	16287
844.708	16413
844.844	16558
844.98	16519
845.117	16675
845.253	16485
845.389	16493
845.525	16702
845.661	16797
845.798	16953
845.934	17216
846.07	17311
846.206	17341
846.342	17227
846.478	16816
846.614	16363
846.75	16055
846.886	16013
847.022	16078
847.158	16032
847.294	15934
847.429	15979
847.565	15964
847.701	16120
847.837	15698
847.972	15614
848.108	15751
848.244	15781
848.379	15564
848.515	15481
848.65	15466
848.786	15515
848.921	15599
849.057	15644
849.192	15622
849.328	15519
849.463	15477
849.598	15412
849.734	15393
849.869	15363
850.004	15336
850.14	15272
850.275	15313
850.41	15211
850.545	15249
850.68	15264
850.815	15272
850.95	15260
851.085	15382
851.22	15348
851.355	15275
851.49	15252
851.625	15214
851.76	15294
851.895	15108
852.03	15112
852.165	15260
852.299	15313
852.434	15252
852.569	15332
852.703	15230
852.838	15344
852.973	15481
853.107	15363
853.242	15230
853.376	15131
853.511	15077
853.645	15058
853.78	15233
853.914	15157
854.048	15184
854.183	15138
854.317	15157
854.451	15321
854.585	15214
854.72	15001
854.854	15055
854.988	15032
855.122	15157
855.256	14982
855.39	15146
855.524	15116
855.658	15214
855.792	15138
855.926	15146
856.06	15154
856.194	15199
856.327	15112
856.461	15104
856.595	15062
856.729	15180
856.862	15108
856.996	15150
857.13	15169
857.263	15268
857.397	15272
857.53	15062
857.664	15165
857.797	15146
857.931	15317
858.064	15173
858.197	15283
858.331	15131
858.464	15085
858.597	14990
858.731	15138
858.864	15112
858.997	15176
859.13	15100
859.263	15138
859.396	15104
859.529	15051
859.662	15066
859.795	15001
859.928	15165
860.061	15298
860.194	15252
860.327	15169
860.46	15135
860.592	15268
860.725	15302
860.858	15241
860.99	15100
861.123	15070
861.256	14948
861.388	15093
861.521	15728
861.653	14960
861.786	14975
861.918	14971
862.05	15043
862.183	15108
862.315	15077
862.447	15142
862.58	15047
862.712	14910
862.844	14842
862.976	15032
863.108	14979
863.24	15275
863.372	14868
863.504	14857
863.636	14891
863.768	14910
863.9	14864
864.032	14826
864.164	14861
864.296	14921
864.428	15020
864.559	14883
864.691	15017
864.823	14960
864.954	14830
865.086	14887
865.217	14956
865.349	14796
865.48	14876
865.612	14891
865.743	15043
865.875	14838
866.006	14792
866.137	14849
866.269	14895
866.4	14929
866.531	14880
866.662	14819
866.793	14823
866.924	14826
867.055	14914
867.186	14925
867.317	14739
867.448	14727
867.579	14845
867.71	14663
867.841	14788
867.972	14845
868.103	14845
868.233	14902
868.364	14849
868.495	14902
868.625	14967
868.756	15131
868.886	15058
869.017	15150
869.147	15169
869.278	15283
869.408	15081
869.539	15169
869.669	15252
869.799	15108
869.929	15237
870.06	15161
870.19	15431
870.32	15416
870.45	15408
870.58	15450
870.71	15568
870.84	15660
870.97	15542
871.1	15515
871.23	15633
871.36	15633
871.489	15492
871.619	15663
871.749	15705
871.879	15705
872.008	15785
872.138	15648
872.267	15747
872.397	15584
872.526	15519
872.656	15504
872.785	15648
872.915	15739
873.044	15781
873.173	15717
873.303	15846
873.432	15827
873.561	15797
873.69	15831
873.819	15819
873.948	15778
874.077	15793
874.206	15762
874.335	15755
874.464	15884
874.593	16044
874.722	15949
874.851	15994
874.979	16074
875.108	16120
875.237	15998
875.365	15987
875.494	16086
875.623	16105
875.751	16021
875.88	16185
876.008	16322
876.136	16268
876.265	16409
876.393	16645
876.521	16546
876.65	16596
876.778	16481
876.906	16386
877.034	16367
877.162	16531
877.29	16436
877.418	16481
877.546	16542
877.674	16470
877.802	16550
877.93	16596
878.058	16550
878.185	16375
878.313	16447
878.441	16489
878.568	16500
878.696	16573
878.824	16592
878.951	16733
879.079	16904
879.206	17136
879.333	17064
879.461	16949
879.588	17086
879.715	17136
879.842	17197
879.97	16938
880.097	16763
880.224	16554
880.351	16584
880.478	16611
880.605	16550
880.732	16493
880.859	16653
880.986	16481
881.112	16577
881.239	16371
881.366	16246
881.493	16143
881.619	16082
881.746	16105
881.872	16185
881.999	16090
882.125	16128
882.252	16196
882.378	16135
882.505	16188
882.631	16150
882.757	15918
882.883	15998
883.01	16006
883.136	15876
883.262	15892
883.388	15717
883.514	15956
883.64	15934
883.766	15869
883.892	15736
884.018	15663
884.143	15899
884.269	15998
884.395	15599
884.52	15580
884.646	15648
884.772	15709
884.897	15530
885.023	15561
885.148	15759
885.274	15865
885.399	15690
885.524	15622
885.65	15709
885.775	15496
885.9	15580
886.025	15686
886.15	15755
886.275	15511
886.4	15492
886.525	15557
886.65	15606
886.775	15477
886.9	15728
887.025	15797
887.149	15542
887.274	15310
887.399	15405
887.523	15378
887.648	15340
887.773	15157
887.897	15458
888.021	15523
888.146	15393
888.27	15580
888.395	15447
888.519	15504
888.643	15351
888.767	15386
888.891	15359
889.015	15211
889.139	15283
889.263	15188
889.387	15340
889.511	15393
889.635	15401
889.759	15199
889.883	15249
890.006	15119
890.13	15321
890.254	15192
890.377	15142
890.501	14933
890.624	14967
890.748	15051
890.871	14933
890.995	14765
891.118	14796
891.241	14819
891.364	14861
891.488	15043
891.611	14899
891.734	14853
891.857	14963
891.98	14845
892.103	14979
892.226	14868
892.349	14902
892.471	14762
892.594	14819
892.717	14826
892.839	14872
892.962	14823
893.085	14853
893.207	14811
893.33	14644
893.452	14838
893.575	14842
893.697	14845
893.819	14982
893.941	15055
894.064	14941
894.186	14800
894.308	14868
894.43	14963
894.552	14982
894.674	15039
894.796	14765
894.918	14826
895.04	14887
895.161	14872
895.283	14910
895.405	14781
895.526	14918
895.648	14925
895.769	14921
895.891	14979
896.012	15051
896.134	14948
896.255	14952
896.376	14948
896.498	14998
896.619	15001
896.74	14861
896.861	15077
896.982	15428
897.103	15469
897.224	15283
897.345	15279
897.466	15127
897.587	15237
897.708	15344
897.828	15283
897.949	15184
898.07	15100
898.19	15180
898.311	15195
898.431	15226
898.552	15348
898.672	15428
898.792	15462
898.913	15401
899.033	15214
899.153	15154
899.273	15123
899.393	15093
899.513	15180
899.633	15077
899.753	15146
899.873	15138
899.993	15211
900.113	15112
900.232	15203
900.352	15028
900.472	15058
900.591	14952
900.711	15051
900.83	15028
900.95	15108
901.069	15165
901.189	14937
901.308	14823
901.427	14689
901.546	14689
901.665	14625
901.784	14724
901.904	14613
902.023	14495
902.141	14301
902.26	14210
902.379	14313
902.498	14153
902.617	14176
902.735	14263
902.854	14233
902.973	14172
903.091	13955
903.21	13913
903.328	13963
903.446	13845
903.565	13776
903.683	13875
903.801	13719
903.919	13860
904.038	13784
904.156	13658
904.274	13651
904.392	13696
904.51	13613
904.627	13609
904.745	13651
904.863	13655
904.981	13377
905.098	13301
905.216	13221
905.334	13274
905.451	13365
905.569	13156
905.686	13362
905.803	13228
905.921	13114
906.038	13217
906.155	13149
906.272	13012
906.389	13023
906.506	12882
906.623	12798
906.74	12772
906.857	12779
906.974	12856
907.091	12871
907.208	13012
907.324	12837
907.441	12753
907.557	12570
907.674	12563
907.79	12502
907.907	12642
908.023	12582
908.139	12528
908.256	12513
908.372	12540
908.488	12536
908.604	12441
908.72	12327
908.836	12426
908.952	12330
909.068	12330
909.184	12342
909.3	12300
909.415	12365
909.531	12395
909.647	12155
909.762	12114
909.878	12102
909.993	12083
910.108	12117
910.224	12117
910.339	12129
910.454	12041
910.57	11920
910.685	11866
910.8	12144
910.915	12117
911.03	11939
911.145	11794
911.259	11729
911.374	11748
911.489	11657
911.604	11729
911.718	11543
911.833	11596
911.947	11505
912.062	11307
912.176	11429
912.291	11501
912.405	11497
912.519	11714
912.633	11767
912.748	11604
912.862	11532
912.976	11459
913.09	11326
913.204	11421
913.318	11364
913.431	11490
913.545	11558
913.659	11524
913.772	11429
913.886	11284
914	11326
914.113	11429
914.226	11433
914.34	11341
914.453	11197
914.566	11303
914.68	11318
914.793	11220
914.906	11029
915.019	10965
915.132	10953
915.245	10965
915.358	10984
915.47	11029
915.583	11033
915.696	11025
915.809	11128
915.921	11136
916.034	10908
916.146	10942
916.259	11010
916.371	11109
916.483	10991
916.595	10953
916.708	10957
916.82	10949
916.932	10839
917.044	10934
917.156	10927
917.268	10797
917.38	10774
917.491	10843
917.603	10908
917.715	10904
917.826	10942
917.938	10771
918.049	10793
918.161	10927
918.272	10923
918.384	10980
918.495	10828
918.606	10691
918.717	10611
918.828	10736
918.939	10664
919.05	10626
919.161	10717
919.272	10489
919.383	10592
919.494	10778
919.604	10847
919.715	10725
919.826	10637
919.936	10649
920.047	10744
920.157	10714
920.267	10957
920.378	10702
920.488	10744
920.598	10892
920.708	11083
920.818	10858
920.928	10896
921.038	11006
921.148	10953
921.258	10664
921.368	10645
921.477	10596
921.587	10558
921.697	10344
921.806	10641
921.916	10375
922.025	10185
922.134	10219
922.244	10227
922.353	10268
922.462	10063
922.571	10055
922.68	9915
922.789	9960
922.898	9892
923.007	9835
923.116	9983
923.224	9937
923.333	9994
923.442	9789
923.55	9812
923.659	9789
923.767	9888
923.876	9789
923.984	9850
924.092	9728
924.201	9842
924.309	9778
924.417	9800
924.525	9747
924.633	9762
924.741	10618
924.849	9576
924.956	9675
925.064	9610
925.172	9515
925.279	9515
925.387	9595
925.494	9591
925.602	9701
925.709	9644
925.816	9473
925.924	9519
926.031	9694
926.138	9511
926.245	9519
926.352	9454
926.459	9637
926.566	9686
926.673	9511
926.779	9473
926.886	9382
926.993	9214
927.099	9279
927.206	9173
927.312	9218
927.419	9260
927.525	9275
927.631	9279
927.737	9169
927.843	9062
927.95	9070
928.056	9093
928.162	9146
928.267	9241
928.373	9766
928.479	9253
928.585	9001
928.69	9184
928.796	9218
928.901	9066
929.007	8880
929.112	9032
929.218	9077
929.323	8982
929.428	8944
929.533	9093
929.638	8902
929.743	8906
929.848	8990
929.953	9009
930.058	8849
930.163	8678
930.267	8705
930.372	8872
930.477	8697
930.581	8952
930.685	8773
930.79	8625
930.894	8727
930.998	8602
931.103	8705
931.207	8389
931.311	8358
931.415	8336
931.519	8153
931.623	8214
