Data from test_V78500241_2110.txt Node
Date: Fri Mar 25 14:48:24 CST 2022
User: usil
Spectrometer: V785-0024
Trigger mode: 0
Integration Time (sec): 4.000000E-1
Scans to average: 1
Nonlinearity correction enabled: false
Boxcar width: 0
Storing dark spectrum: false
XAxis mode: Wavelengths
Number of Pixels in Spectrum: 1024
>>>>>Begin Spectral Data<<<<<
801.071	22070
801.214	21960
801.356	21739
801.499	21705
801.641	21572
801.783	21473
801.926	21431
802.068	21340
802.211	21245
802.353	21363
802.496	21108
802.638	20933
802.78	20891
802.923	20937
803.065	20750
803.208	20724
803.35	20724
803.492	20906
803.635	20906
803.777	20918
803.919	20910
804.061	21207
804.204	20853
804.346	20769
804.488	20644
804.63	20773
804.773	20769
804.915	20765
805.057	20758
805.199	20625
805.341	20861
805.483	20872
805.626	20765
805.768	20648
805.91	20765
806.052	20849
806.194	20708
806.336	20883
806.478	20670
806.62	20659
806.762	20754
806.904	20921
807.046	21055
807.188	21062
807.33	20960
807.472	21036
807.614	20899
807.756	20910
807.898	20910
808.04	20735
808.182	20739
808.324	20819
808.465	20933
808.607	21074
808.749	21192
808.891	21237
809.033	21302
809.174	21154
809.316	21089
809.458	21100
809.6	21085
809.741	21184
809.883	21176
810.025	21283
810.166	21108
810.308	21313
810.45	21119
810.591	21165
810.733	21062
810.875	20868
811.016	20800
811.158	20746
811.299	20929
811.441	20960
811.582	20998
811.724	21001
811.865	20933
812.007	20975
812.148	20861
812.29	21039
812.431	20982
812.573	21176
812.714	21199
812.855	21386
812.997	21435
813.138	21717
813.279	21591
813.421	21325
813.562	21230
813.703	21020
813.845	21119
813.986	20781
814.127	20583
814.268	20522
814.41	20480
814.551	20438
814.692	20419
814.833	20393
814.974	20431
815.115	20511
815.256	20339
815.397	20218
815.539	20385
815.68	20164
815.821	20069
815.962	20233
816.103	20176
816.244	19997
816.385	19970
816.526	19791
816.666	19788
816.807	19597
816.948	19639
817.089	19715
817.23	19677
817.371	19552
817.512	19502
817.653	19613
817.793	19616
817.934	19628
818.075	19586
818.216	19635
818.356	19468
818.497	19445
818.638	19209
818.778	19274
818.919	19160
819.06	19331
819.2	19384
819.341	19464
819.481	19499
819.622	19597
819.762	19784
819.903	19750
820.043	19616
820.184	19624
820.324	19468
820.465	19712
820.605	19670
820.746	19601
820.886	19346
821.026	19441
821.167	19666
821.307	19647
821.447	19537
821.588	19358
821.728	19259
821.868	19103
822.008	18958
822.149	19031
822.289	18901
822.429	18825
822.569	18700
822.709	18673
822.849	18601
822.99	18490
823.13	18369
823.27	18426
823.41	18342
823.55	18186
823.69	18308
823.83	18273
823.97	18209
824.11	17980
824.25	18091
824.389	18019
824.529	18235
824.669	17969
824.809	18201
824.949	18117
825.089	18133
825.228	18007
825.368	17809
825.508	17771
825.648	17939
825.787	17927
825.927	17870
826.067	17832
826.206	17798
826.346	17870
826.485	17847
826.625	17832
826.765	17901
826.904	17885
827.044	17794
827.183	17585
827.323	17543
827.462	17592
827.601	17573
827.741	17532
827.88	17585
828.02	17364
828.159	17585
828.298	17627
828.437	17570
828.577	17455
828.716	17707
828.855	17459
828.994	17258
829.134	17231
829.273	17337
829.412	17254
829.551	17197
829.69	17299
829.829	17326
829.968	17383
830.107	17395
830.246	17299
830.385	17197
830.524	17132
830.663	17140
830.802	16972
830.941	16965
831.08	16911
831.219	16949
831.357	17022
831.496	17056
831.635	16885
831.774	16923
831.913	16786
832.051	16702
832.19	16710
832.329	16675
832.467	16607
832.606	16573
832.744	16618
832.883	16561
833.022	16611
833.16	16588
833.299	16675
833.437	16611
833.576	16618
833.714	16615
833.852	16569
833.991	16641
834.129	16755
834.267	16733
834.406	16675
834.544	16596
834.682	16694
834.821	16531
834.959	16809
835.097	16584
835.235	16782
835.373	16698
835.511	16653
835.65	16630
835.788	16523
835.926	16379
836.064	16268
836.202	16394
836.34	16584
836.478	16603
836.615	16546
836.753	16637
836.891	16641
837.029	16561
837.167	16508
837.305	16538
837.443	16512
837.58	16379
837.718	16538
837.856	16481
837.993	16402
838.131	16440
838.269	16363
838.406	16360
838.544	16265
838.681	16093
838.819	16097
838.956	15998
839.094	15953
839.231	16040
839.369	16139
839.506	16379
839.643	16356
839.781	16006
839.918	16074
840.055	16025
840.193	15888
840.33	15911
840.467	15994
840.604	15937
840.742	16238
840.879	15789
841.016	15876
841.153	15846
841.29	16067
841.427	15934
841.564	16044
841.701	16010
841.838	15915
841.975	15899
842.112	15953
842.249	15804
842.385	15705
842.522	16002
842.659	15785
842.796	15686
842.933	15694
843.069	15629
843.206	15713
843.343	15819
843.479	15736
843.616	15720
843.752	15595
843.889	15606
844.025	15686
844.162	15481
844.298	15644
844.435	15504
844.571	15382
844.708	15641
844.844	15759
844.98	15675
845.117	15679
845.253	15526
845.389	15447
845.525	15435
845.661	15466
845.798	15317
845.934	15332
846.07	15386
846.206	15317
846.342	15447
846.478	15344
846.614	15226
846.75	15013
846.886	15077
847.022	15199
847.158	15093
847.294	15176
847.429	15142
847.565	15108
847.701	15332
847.837	14819
847.972	14750
848.108	14937
848.244	14963
848.379	14724
848.515	14712
848.65	14648
848.786	14708
848.921	14686
849.057	14693
849.192	14769
849.328	14762
849.463	14682
849.598	14731
849.734	14659
849.869	14541
850.004	14461
850.14	14533
850.275	14499
850.41	14377
850.545	14400
850.68	14488
850.815	14526
850.95	14446
851.085	14632
851.22	14503
851.355	14446
851.49	14495
851.625	14469
851.76	14431
851.895	14465
852.03	14370
852.165	14427
852.299	14438
852.434	14697
852.569	14450
852.703	14461
852.838	14541
852.973	14579
853.107	14598
853.242	14446
853.376	14374
853.511	14168
853.645	14278
853.78	14446
853.914	14339
854.048	14267
854.183	14332
854.317	14351
854.451	14514
854.585	14244
854.72	14286
854.854	14366
854.988	14199
855.122	14347
855.256	14134
855.39	14332
855.524	14389
855.658	14290
855.792	14393
855.926	14374
856.06	14549
856.194	14473
856.327	14294
856.461	14301
856.595	14366
856.729	14298
856.862	14507
856.996	14351
857.13	14415
857.263	14400
857.397	14393
857.53	14393
857.664	14366
857.797	14393
857.931	14446
858.064	14313
858.197	14446
858.331	14336
858.464	14199
858.597	14225
858.731	14313
858.864	14320
858.997	14336
859.13	14328
859.263	14313
859.396	14419
859.529	14324
859.662	14320
859.795	14343
859.928	14301
860.061	14564
860.194	14518
860.327	14358
860.46	14248
860.592	14511
860.725	14484
860.858	14461
860.99	14362
861.123	14210
861.256	14298
861.388	14336
861.521	14925
861.653	14229
861.786	14172
861.918	14130
862.05	14206
862.183	14305
862.315	14332
862.447	14347
862.58	14290
862.712	14073
862.844	14027
862.976	14176
863.108	14142
863.24	14366
863.372	13986
863.504	13955
863.636	14058
863.768	14301
863.9	14123
864.032	14050
864.164	14035
864.296	14103
864.428	14172
864.559	14210
864.691	14210
864.823	14164
864.954	14111
865.086	14145
865.217	14130
865.349	14077
865.48	14225
865.612	14016
865.743	14229
865.875	14100
866.006	13944
866.137	14103
866.269	14073
866.4	14195
866.531	14123
866.662	13989
866.793	13997
866.924	13989
867.055	14130
867.186	14050
867.317	14054
867.448	13993
867.579	13997
867.71	14035
867.841	13993
867.972	14138
868.103	14054
868.233	14031
868.364	14058
868.495	14126
868.625	14252
868.756	14442
868.886	14237
869.017	14278
869.147	14370
869.278	14454
869.408	14438
869.539	14233
869.669	14457
869.799	14362
869.929	14484
870.06	14507
870.19	14644
870.32	14667
870.45	14667
870.58	14727
870.71	14838
870.84	14823
870.97	14727
871.1	14629
871.23	14902
871.36	14868
871.489	14914
871.619	14887
871.749	14914
871.879	14960
872.008	14986
872.138	14933
872.267	14921
872.397	14773
872.526	14629
872.656	14720
872.785	14811
872.915	14944
873.044	15104
873.173	15036
873.303	14990
873.432	15043
873.561	15089
873.69	14960
873.819	15024
873.948	15028
874.077	14910
874.206	14960
874.335	14979
874.464	15131
874.593	15230
874.722	15283
874.851	15279
874.979	15336
875.108	15325
875.237	15230
875.365	15340
875.494	15245
875.623	15321
875.751	15329
875.88	15329
876.008	15420
876.136	15603
876.265	15762
876.393	15736
876.521	15888
876.65	15686
876.778	15713
876.906	15713
877.034	15629
877.162	15701
877.29	15622
877.418	15739
877.546	15728
877.674	15800
877.802	15701
877.93	15644
878.058	15667
878.185	15682
878.313	15549
878.441	15656
878.568	15553
878.696	15690
878.824	15728
878.951	15698
879.079	15918
879.206	15987
879.333	15766
879.461	15694
879.588	15766
879.715	15831
879.842	15998
879.97	15812
880.097	15507
880.224	15542
880.351	15553
880.478	15523
880.605	15591
880.732	15584
880.859	15857
880.986	15568
881.112	15614
881.239	15473
881.366	15230
881.493	15294
881.619	15154
881.746	15291
881.872	15169
881.999	15222
882.125	15268
882.252	15325
882.378	15252
882.505	15393
882.631	15157
882.757	15081
882.883	15070
883.01	15085
883.136	15009
883.262	14986
883.388	14899
883.514	15089
883.64	15138
883.766	14853
883.892	14883
884.018	14796
884.143	15036
884.269	15066
884.395	14792
884.52	14678
884.646	14746
884.772	14686
884.897	14594
885.023	14724
885.148	14868
885.274	14906
885.399	14937
885.524	14792
885.65	14777
885.775	14796
885.9	14739
886.025	14792
886.15	14857
886.275	14735
886.4	14731
886.525	14689
886.65	14746
886.775	14708
886.9	14880
887.025	14971
887.149	14689
887.274	14556
887.399	14514
887.523	14526
887.648	14503
887.773	14400
887.897	14583
888.021	14583
888.146	14511
888.27	14708
888.395	14785
888.519	14613
888.643	14594
888.767	14617
888.891	14484
889.015	14389
889.139	14450
889.263	14427
889.387	14556
889.511	14682
889.635	14583
889.759	14362
889.883	14434
890.006	14469
890.13	14594
890.254	14332
890.377	14473
890.501	14282
890.624	14252
890.748	14195
890.871	14035
890.995	14130
891.118	14062
891.241	14161
891.364	14202
891.488	14237
891.611	14069
891.734	14130
891.857	14164
891.98	14123
892.103	14229
892.226	14214
892.349	14027
892.471	14058
892.594	14050
892.717	14221
892.839	13993
892.962	14092
893.085	14229
893.207	14157
893.33	14020
893.452	13982
893.575	14214
893.697	14081
893.819	14244
893.941	14320
894.064	14221
894.186	14077
894.308	14084
894.43	14229
894.552	14374
894.674	14233
894.796	14138
894.918	14225
895.04	14103
895.161	14275
895.283	14229
895.405	14100
895.526	14237
895.648	14240
895.769	14256
895.891	14229
896.012	14286
896.134	14351
896.255	14343
896.376	14259
896.498	14317
896.619	14408
896.74	14221
896.861	14240
896.982	14712
897.103	14762
897.224	14568
897.345	14495
897.466	14575
897.587	14530
897.708	14629
897.828	14587
897.949	14587
898.07	14461
898.19	14511
898.311	14720
898.431	14587
898.552	14655
898.672	14720
898.792	14712
898.913	14571
899.033	14625
899.153	14461
899.273	14328
899.393	14533
899.513	14533
899.633	14480
899.753	14503
899.873	14427
899.993	14613
900.113	14560
900.232	14457
900.352	14526
900.472	14431
900.591	14328
900.711	14347
900.83	14370
900.95	14495
901.069	14473
901.189	14351
901.308	14130
901.427	13909
901.546	14031
901.665	14005
901.784	14031
901.904	13833
902.023	13826
902.141	13677
902.26	13700
902.379	13719
902.498	13556
902.617	13605
902.735	13620
902.854	13548
902.973	13582
903.091	13339
903.21	13324
903.328	13247
903.446	13255
903.565	13187
903.683	13274
903.801	13080
903.919	13145
904.038	13209
904.156	13053
904.274	13008
904.392	12905
904.51	12958
904.627	12939
904.745	13015
904.863	13141
904.981	12783
905.098	12681
905.216	12692
905.334	12753
905.451	12677
905.569	12677
905.686	12798
905.803	12707
905.921	12517
906.038	12604
906.155	12540
906.272	12407
906.389	12361
906.506	12319
906.623	12270
906.74	12197
906.857	12216
906.974	12197
907.091	12380
907.208	12407
907.324	12281
907.441	12186
907.557	11973
907.674	12030
907.79	11942
907.907	11958
908.023	12003
908.139	12019
908.256	12049
908.372	11973
908.488	11870
908.604	11767
908.72	11676
908.836	11767
908.952	11756
909.068	11855
909.184	11855
909.3	11748
909.415	11832
909.531	11882
909.647	11554
909.762	11482
909.878	11543
909.993	11596
910.108	11539
910.224	11600
910.339	11627
910.454	11581
910.57	11372
910.685	11334
910.8	11570
910.915	11554
911.03	11429
911.145	11273
911.259	11193
911.374	11273
911.489	11220
911.604	11102
911.718	11094
911.833	10961
911.947	10828
912.062	10904
912.176	11033
912.291	10995
912.405	11045
912.519	11235
912.633	11223
912.748	11147
912.862	11003
912.976	10961
913.09	10771
913.204	10889
913.318	10953
913.431	11022
913.545	10927
913.659	11052
913.772	10904
913.886	10778
914	10767
914.113	10782
914.226	10999
914.34	10877
914.453	10698
914.566	10900
914.68	10641
914.793	10717
914.906	10478
915.019	10512
915.132	10451
915.245	10455
915.358	10584
915.47	10500
915.583	10618
915.696	10592
915.809	10675
915.921	10649
916.034	10508
916.146	10481
916.259	10432
916.371	10542
916.483	10519
916.595	10402
916.708	10428
916.82	10440
916.932	10451
917.044	10481
917.156	10360
917.268	10291
917.38	10398
917.491	10314
917.603	10360
917.715	10405
917.826	10447
917.938	10386
918.049	10230
918.161	10318
918.272	10466
918.384	10421
918.495	10390
918.606	10173
918.717	10185
918.828	10207
918.939	10238
919.05	10135
919.161	10181
919.272	10021
919.383	10147
919.494	10325
919.604	10474
919.715	10185
919.826	10071
919.936	10139
920.047	10318
920.157	10295
920.267	10379
920.378	10272
920.488	10223
920.598	10451
920.708	10519
920.818	10474
920.928	10405
921.038	10561
921.148	10592
921.258	10272
921.368	10204
921.477	10082
921.587	10097
921.697	9968
921.806	10021
921.916	9953
922.025	9800
922.134	9861
922.244	9759
922.353	9804
922.462	9660
922.571	9587
922.68	9485
922.789	9469
922.898	9511
923.007	9473
923.116	9507
923.224	9412
923.333	9557
923.442	9397
923.55	9359
923.659	9370
923.767	9393
923.876	9348
923.984	9428
924.092	9332
924.201	9363
924.309	9378
924.417	9389
924.525	9272
924.633	9302
924.741	10227
924.849	9161
924.956	9241
925.064	9165
925.172	9062
925.279	9119
925.387	9207
925.494	9154
925.602	9272
925.709	9184
925.816	9097
925.924	9112
926.031	9233
926.138	9093
926.245	9218
926.352	9100
926.459	9214
926.566	9253
926.673	9074
926.779	9032
926.886	9024
926.993	8895
927.099	8864
927.206	8811
927.312	8826
927.419	8887
927.525	8849
927.631	8887
927.737	8807
927.843	8743
927.95	8613
928.056	8712
928.162	8746
928.267	8743
928.373	9386
928.479	8838
928.585	8644
928.69	8788
928.796	8743
928.901	8629
929.007	8568
929.112	8621
929.218	8625
929.323	8617
929.428	8552
929.533	8796
929.638	8533
929.743	8537
929.848	8613
929.953	8480
930.058	8503
930.163	8370
930.267	8343
930.372	8473
930.477	8336
930.581	8541
930.685	8366
930.79	8286
930.894	8286
930.998	8221
931.103	8427
931.207	8138
931.311	8012
931.415	7913
931.519	7738
931.623	7776
