Data from test_V78500241_1610.txt Node
Date: Fri Mar 25 14:44:55 CST 2022
User: usil
Spectrometer: V785-0024
Trigger mode: 0
Integration Time (sec): 4.000000E-1
Scans to average: 1
Nonlinearity correction enabled: false
Boxcar width: 0
Storing dark spectrum: false
XAxis mode: Wavelengths
Number of Pixels in Spectrum: 1024
>>>>>Begin Spectral Data<<<<<
801.071	22348
801.214	22211
801.356	22051
801.499	21915
801.641	21652
801.783	21701
801.926	21671
802.068	21614
802.211	21610
802.353	21572
802.496	21264
802.638	21142
802.78	21135
802.923	21028
803.065	21127
803.208	20982
803.35	21127
803.492	21138
803.635	21180
803.777	20967
803.919	21135
804.061	21291
804.204	21077
804.346	21005
804.488	20963
804.63	20994
804.773	20880
804.915	20906
805.057	21112
805.199	21055
805.341	21123
805.483	21211
805.626	21013
805.768	20994
805.91	20963
806.052	20971
806.194	20853
806.336	21146
806.478	20933
806.62	20921
806.762	21047
806.904	21131
807.046	21325
807.188	21294
807.33	21321
807.472	21287
807.614	21237
807.756	21241
807.898	21058
808.04	21058
808.182	21142
808.324	21157
808.465	21081
808.607	21401
808.749	21496
808.891	21496
809.033	21500
809.174	21405
809.316	21378
809.458	21359
809.6	21397
809.741	21439
809.883	21378
810.025	21671
810.166	21580
810.308	21454
810.45	21492
810.591	21336
810.733	21420
810.875	21123
811.016	21138
811.158	21074
811.299	21222
811.441	21317
811.582	21161
811.724	21256
811.865	21116
812.007	21055
812.148	21199
812.29	21112
812.431	21462
812.573	21393
812.714	21488
812.855	21679
812.997	21770
813.138	21800
813.279	21850
813.421	21591
813.562	21599
813.703	21439
813.845	21397
813.986	20990
814.127	20925
814.268	20823
814.41	20727
814.551	20632
814.692	20727
814.833	20667
814.974	20598
815.115	20735
815.256	20457
815.397	20579
815.539	20564
815.68	20423
815.821	20305
815.962	20503
816.103	20412
816.244	20374
816.385	20221
816.526	20210
816.666	20096
816.807	19864
816.948	20084
817.089	19947
817.23	19849
817.371	19811
817.512	19814
817.653	19803
817.793	19807
817.934	19959
818.075	19837
818.216	19845
818.356	19723
818.497	19586
818.638	19499
818.778	19514
818.919	19510
819.06	19578
819.2	19708
819.341	19742
819.481	19719
819.622	19788
819.762	20218
819.903	19974
820.043	19822
820.184	19818
820.324	19795
820.465	19940
820.605	19864
820.746	19757
820.886	19750
821.026	19780
821.167	19753
821.307	19898
821.447	19776
821.588	19609
821.728	19468
821.868	19343
822.008	19152
822.149	19190
822.289	19069
822.429	18989
822.569	18810
822.709	18871
822.849	18661
822.99	18798
823.13	18700
823.27	18578
823.41	18578
823.55	18475
823.69	18540
823.83	18536
823.97	18441
824.11	18315
824.25	18270
824.389	18228
824.529	18361
824.669	18285
824.809	18342
824.949	18361
825.089	18319
825.228	18300
825.368	18174
825.508	18034
825.648	18129
825.787	18083
825.927	18129
826.067	18144
826.206	18003
826.346	18155
826.485	18174
826.625	18102
826.765	18026
826.904	18140
827.044	17840
827.183	17840
827.323	17828
827.462	17729
827.601	17756
827.741	17668
827.88	17817
828.02	17771
828.159	17748
828.298	17710
828.437	17855
828.577	17638
828.716	17771
828.855	17775
828.994	17497
829.134	17440
829.273	17524
829.412	17421
829.551	17497
829.69	17467
829.829	17448
829.968	17558
830.107	17520
830.246	17467
830.385	17539
830.524	17379
830.663	17330
830.802	17261
830.941	17064
831.08	17136
831.219	17231
831.357	17128
831.496	17391
831.635	17204
831.774	17109
831.913	16961
832.051	16923
832.19	16949
832.329	16866
832.467	16774
832.606	16835
832.744	16786
832.883	16805
833.022	16812
833.16	16873
833.299	16763
833.437	16771
833.576	16694
833.714	16889
833.852	16862
833.991	16900
834.129	16961
834.267	16965
834.406	16831
834.544	16767
834.682	16942
834.821	16767
834.959	16976
835.097	16736
835.235	16900
835.373	16968
835.511	16790
835.65	16763
835.788	16748
835.926	16615
836.064	16569
836.202	16550
836.34	16683
836.478	16736
836.615	16637
836.753	16767
836.891	16793
837.029	16786
837.167	16774
837.305	16660
837.443	16580
837.58	16558
837.718	16664
837.856	16512
837.993	16580
838.131	16637
838.269	16550
838.406	16561
838.544	16478
838.681	16382
838.819	16257
838.956	16101
839.094	16112
839.231	16147
839.369	16295
839.506	16478
839.643	16451
839.781	16074
839.918	16128
840.055	16169
840.193	16173
840.33	16188
840.467	16025
840.604	16162
840.742	16306
840.879	16082
841.016	15953
841.153	15975
841.29	16303
841.427	16150
841.564	16120
841.701	16093
841.838	16059
841.975	16051
842.112	16051
842.249	15934
842.385	15789
842.522	16044
842.659	15960
842.796	15915
842.933	15895
843.069	15861
843.206	15842
843.343	15987
843.479	15907
843.616	15861
843.752	15732
843.889	15759
844.025	15762
844.162	15705
844.298	15770
844.435	15724
844.571	15614
844.708	15728
844.844	15819
844.98	15907
845.117	15812
845.253	15656
845.389	15618
845.525	15644
845.661	15614
845.798	15553
845.934	15656
846.07	15603
846.206	15652
846.342	15690
846.478	15504
846.614	15317
846.75	15218
846.886	15351
847.022	15283
847.158	15268
847.294	15351
847.429	15264
847.565	15203
847.701	15492
847.837	14998
847.972	15036
848.108	15161
848.244	15112
848.379	14891
848.515	14887
848.65	14842
848.786	14819
848.921	14849
849.057	14921
849.192	14975
849.328	14937
849.463	14830
849.598	14887
849.734	14800
849.869	14762
850.004	14655
850.14	14735
850.275	14651
850.41	14610
850.545	14613
850.68	14727
850.815	14705
850.95	14598
851.085	14781
851.22	14712
851.355	14590
851.49	14530
851.625	14556
851.76	14617
851.895	14526
852.03	14541
852.165	14499
852.299	14545
852.434	14746
852.569	14659
852.703	14632
852.838	14712
852.973	14769
853.107	14720
853.242	14552
853.376	14484
853.511	14358
853.645	14400
853.78	14545
853.914	14488
854.048	14457
854.183	14503
854.317	14503
854.451	14625
854.585	14469
854.72	14415
854.854	14564
854.988	14377
855.122	14454
855.256	14278
855.39	14522
855.524	14480
855.658	14629
855.792	14552
855.926	14530
856.06	14507
856.194	14651
856.327	14533
856.461	14393
856.595	14431
856.729	14415
856.862	14533
856.996	14480
857.13	14587
857.263	14621
857.397	14606
857.53	14499
857.664	14629
857.797	14579
857.931	14598
858.064	14492
858.197	14556
858.331	14560
858.464	14434
858.597	14377
858.731	14492
858.864	14442
858.997	14457
859.13	14537
859.263	14511
859.396	14560
859.529	14438
859.662	14339
859.795	14495
859.928	14457
860.061	14667
860.194	14632
860.327	14488
860.46	14545
860.592	14533
860.725	14575
860.858	14648
860.99	14484
861.123	14351
861.256	14381
861.388	14556
861.521	15332
861.653	14301
861.786	14252
861.918	14454
862.05	14389
862.183	14434
862.315	14404
862.447	14526
862.58	14355
862.712	14210
862.844	14187
862.976	14393
863.108	14259
863.24	14750
863.372	14202
863.504	14263
863.636	14298
863.768	14244
863.9	14351
864.032	14248
864.164	14214
864.296	14347
864.428	14469
864.559	14419
864.691	14408
864.823	14366
864.954	14286
865.086	14221
865.217	14157
865.349	14221
865.48	14202
865.612	14324
865.743	14328
865.875	14229
866.006	14244
866.137	14229
866.269	14286
866.4	14176
866.531	14271
866.662	14214
866.793	14107
866.924	14305
867.055	14286
867.186	14145
867.317	14187
867.448	14153
867.579	14168
867.71	14043
867.841	14142
867.972	14290
868.103	14218
868.233	14267
868.364	14267
868.495	14244
868.625	14461
868.756	14621
868.886	14419
869.017	14545
869.147	14629
869.278	14560
869.408	14549
869.539	14465
869.669	14473
869.799	14480
869.929	14575
870.06	14625
870.19	14746
870.32	14845
870.45	14826
870.58	14891
870.71	15020
870.84	14956
870.97	14857
871.1	14883
871.23	15047
871.36	15127
871.489	14941
871.619	15097
871.749	15180
871.879	15112
872.008	15176
872.138	15085
872.267	15089
872.397	14895
872.526	14944
872.656	14933
872.785	14910
872.915	15039
873.044	15203
873.173	15180
873.303	15192
873.432	15089
873.561	15264
873.69	15176
873.819	15142
873.948	15116
874.077	15211
874.206	15142
874.335	15173
874.464	15245
874.593	15447
874.722	15344
874.851	15485
874.979	15542
875.108	15584
875.237	15420
875.365	15332
875.494	15519
875.623	15584
875.751	15416
875.88	15492
876.008	15549
876.136	15637
876.265	15827
876.393	15949
876.521	15983
876.65	15918
876.778	15880
876.906	15857
877.034	15888
877.162	15899
877.29	15816
877.418	15930
877.546	15979
877.674	15835
877.802	15812
877.93	15911
878.058	15819
878.185	15701
878.313	15857
878.441	15907
878.568	15686
878.696	15857
878.824	15918
878.951	16002
879.079	16029
879.206	16215
879.333	15994
879.461	15930
879.588	16025
879.715	16109
879.842	16196
879.97	15941
880.097	15774
880.224	15686
880.351	15720
880.478	15835
880.605	15720
880.732	15679
880.859	15926
880.986	15736
881.112	15831
881.239	15660
881.366	15526
881.493	15469
881.619	15363
881.746	15317
881.872	15359
881.999	15428
882.125	15405
882.252	15492
882.378	15340
882.505	15538
882.631	15348
882.757	15237
882.883	15230
883.01	15157
883.136	15119
883.262	15112
883.388	15070
883.514	15245
883.64	15180
883.766	15169
883.892	15009
884.018	14990
884.143	15313
884.269	15302
884.395	14994
884.52	14777
884.646	14872
884.772	14883
884.897	14792
885.023	14929
885.148	15009
885.274	15062
885.399	14918
885.524	14952
885.65	14910
885.775	14963
885.9	14796
886.025	15104
886.15	14990
886.275	14868
886.4	14887
886.525	14845
886.65	14853
886.775	14826
886.9	15032
887.025	15180
887.149	14899
887.274	14720
887.399	14773
887.523	14621
887.648	14769
887.773	14549
887.897	14682
888.021	14743
888.146	14644
888.27	14838
888.395	14834
888.519	14758
888.643	14754
888.767	14754
888.891	14693
889.015	14579
889.139	14724
889.263	14579
889.387	14712
889.511	14785
889.635	14716
889.759	14583
889.883	14503
890.006	14663
890.13	14632
890.254	14480
890.377	14495
890.501	14385
890.624	14404
890.748	14514
890.871	14275
890.995	14225
891.118	14202
891.241	14240
891.364	14339
891.488	14434
891.611	14275
891.734	14229
891.857	14408
891.98	14362
892.103	14393
892.226	14191
892.349	14244
892.471	14168
892.594	14225
892.717	14419
892.839	14248
892.962	14252
893.085	14324
893.207	14221
893.33	14123
893.452	14214
893.575	14320
893.697	14233
893.819	14484
893.941	14518
894.064	14381
894.186	14237
894.308	14256
894.43	14442
894.552	14499
894.674	14499
894.796	14259
894.918	14317
895.04	14309
895.161	14495
895.283	14381
895.405	14385
895.526	14374
895.648	14381
895.769	14450
895.891	14473
896.012	14503
896.134	14400
896.255	14499
896.376	14385
896.498	14385
896.619	14541
896.74	14484
896.861	14598
896.982	14781
897.103	14929
897.224	14762
897.345	14765
897.466	14655
897.587	14765
897.708	14788
897.828	14796
897.949	14670
898.07	14526
898.19	14667
898.311	14830
898.431	14689
898.552	14811
898.672	14861
898.792	14849
898.913	14811
899.033	14731
899.153	14575
899.273	14552
899.393	14518
899.513	14693
899.633	14663
899.753	14724
899.873	14632
899.993	14735
900.113	14659
900.232	14651
900.352	14564
900.472	14564
900.591	14503
900.711	14583
900.83	14415
900.95	14511
901.069	14503
901.189	14431
901.308	14301
901.427	14191
901.546	14240
901.665	14290
901.784	14119
901.904	14050
902.023	14024
902.141	13807
902.26	13746
902.379	13746
902.498	13818
902.617	13601
902.735	13811
902.854	13803
902.973	13727
903.091	13571
903.21	13502
903.328	13411
903.446	13449
903.565	13403
903.683	13232
903.801	13255
903.919	13350
904.038	13255
904.156	13198
904.274	13266
904.392	13110
904.51	13122
904.627	13133
904.745	13160
904.863	13183
904.981	13012
905.098	12795
905.216	12840
905.334	12757
905.451	12913
905.569	12798
905.686	12848
905.803	12783
905.921	12730
906.038	12772
906.155	12677
906.272	12589
906.389	12563
906.506	12445
906.623	12475
906.74	12410
906.857	12323
906.974	12315
907.091	12547
907.208	12559
907.324	12483
907.441	12365
907.557	12205
907.674	12239
907.79	12087
907.907	12171
908.023	12270
908.139	12232
908.256	12049
908.372	12140
908.488	12079
908.604	11942
908.72	11958
908.836	11946
908.952	11904
909.068	11920
909.184	12114
909.3	11874
909.415	11931
909.531	11996
909.647	11661
909.762	11714
909.878	11630
909.993	11779
910.108	11672
910.224	11699
910.339	11760
910.454	11638
910.57	11539
910.685	11474
910.8	11802
910.915	11779
911.03	11638
911.145	11436
911.259	11493
911.374	11440
911.489	11296
911.604	11299
911.718	11094
911.833	11121
911.947	11060
912.062	11060
912.176	11128
912.291	11083
912.405	11151
912.519	11387
912.633	11406
912.748	11265
912.862	11147
912.976	11041
913.09	10934
913.204	10930
913.318	11079
913.431	11098
913.545	11143
913.659	11132
913.772	11098
913.886	10927
914	10839
914.113	10987
914.226	11045
914.34	10938
914.453	10839
914.566	10972
914.68	10915
914.793	10809
914.906	10649
915.019	10656
915.132	10535
915.245	10622
915.358	10584
915.47	10694
915.583	10687
915.696	10740
915.809	10862
915.921	10843
916.034	10630
916.146	10603
916.259	10580
916.371	10702
916.483	10675
916.595	10599
916.708	10523
916.82	10592
916.932	10630
917.044	10542
917.156	10569
917.268	10440
917.38	10421
917.491	10462
917.603	10413
917.715	10561
917.826	10611
917.938	10394
918.049	10363
918.161	10527
918.272	10656
918.384	10577
918.495	10493
918.606	10394
918.717	10284
918.828	10390
918.939	10417
919.05	10303
919.161	10337
919.272	10154
919.383	10204
919.494	10432
919.604	10527
919.715	10306
919.826	10314
919.936	10314
920.047	10386
920.157	10360
920.267	10577
920.378	10405
920.488	10390
920.598	10584
920.708	10759
920.818	10519
920.928	10554
921.038	10752
921.148	10763
921.258	10382
921.368	10341
921.477	10310
921.587	10249
921.697	10044
921.806	10238
921.916	10124
922.025	9895
922.134	9956
922.244	9835
922.353	9899
922.462	9854
922.571	9812
922.68	9576
922.789	9561
922.898	9652
923.007	9580
923.116	9648
923.224	9606
923.333	9557
923.442	9466
923.55	9485
923.659	9523
923.767	9618
923.876	9462
923.984	9481
924.092	9412
924.201	9447
924.309	9450
924.417	9511
924.525	9443
924.633	9420
924.741	10143
924.849	9298
924.956	9408
925.064	9264
925.172	9214
925.279	9256
925.387	9370
925.494	9226
925.602	9374
925.709	9348
925.816	9207
925.924	9275
926.031	9294
926.138	9291
926.245	9256
926.352	9222
926.459	9329
926.566	9291
926.673	9268
926.779	9207
926.886	9135
926.993	8967
927.099	9058
927.206	8941
927.312	8952
927.419	9039
927.525	9005
927.631	9051
927.737	8982
927.843	8781
927.95	8743
928.056	8811
928.162	8891
928.267	8921
928.373	9462
928.479	8902
928.585	8705
928.69	8781
928.796	8853
928.901	8705
929.007	8655
929.112	8826
929.218	8750
929.323	8613
929.428	8689
929.533	8849
929.638	8571
929.743	8663
929.848	8743
929.953	8629
930.058	8617
930.163	8518
930.267	8530
930.372	8632
930.477	8423
930.581	8712
930.685	8518
930.79	8366
930.894	8454
930.998	8415
931.103	8545
931.207	8267
931.311	8161
931.415	8001
931.519	7951
931.623	7906
