Data from test_V78500241_1165.txt Node
Date: Fri Mar 25 14:41:49 CST 2022
User: usil
Spectrometer: V785-0024
Trigger mode: 0
Integration Time (sec): 4.000000E-1
Scans to average: 1
Nonlinearity correction enabled: false
Boxcar width: 0
Storing dark spectrum: false
XAxis mode: Wavelengths
Number of Pixels in Spectrum: 1024
>>>>>Begin Spectral Data<<<<<
801.071	22443
801.214	22322
801.356	22036
801.499	22063
801.641	21899
801.783	21755
801.926	21819
802.068	21831
802.211	21770
802.353	21709
802.496	21408
802.638	21340
802.78	21252
802.923	21275
803.065	21176
803.208	21131
803.35	21093
803.492	21332
803.635	21332
803.777	21138
803.919	21214
804.061	21504
804.204	21249
804.346	21051
804.488	21100
804.63	21066
804.773	21165
804.915	21096
805.057	21222
805.199	21089
805.341	21077
805.483	21260
805.626	21096
805.768	20990
805.91	21032
806.052	21024
806.194	21062
806.336	21154
806.478	21119
806.62	21005
806.762	21218
806.904	21279
807.046	21515
807.188	21431
807.33	21526
807.472	21538
807.614	21363
807.756	21485
807.898	21230
808.04	21157
808.182	21317
808.324	21340
808.465	21389
808.607	21477
808.749	21694
808.891	21739
809.033	21850
809.174	21610
809.316	21481
809.458	21610
809.6	21625
809.741	21591
809.883	21717
810.025	21808
810.166	21789
810.308	21698
810.45	21652
810.591	21488
810.733	21500
810.875	21256
811.016	21321
811.158	21192
811.299	21283
811.441	21424
811.582	21450
811.724	21298
811.865	21313
812.007	21252
812.148	21374
812.29	21188
812.431	21439
812.573	21633
812.714	21698
812.855	21778
812.997	21903
813.138	21903
813.279	21915
813.421	21800
813.562	21682
813.703	21561
813.845	21439
813.986	21112
814.127	21024
814.268	20876
814.41	20872
814.551	20807
814.692	20937
814.833	20720
814.974	20792
815.115	20796
815.256	20621
815.397	20621
815.539	20686
815.68	20708
815.821	20537
815.962	20621
816.103	20640
816.244	20457
816.385	20419
816.526	20305
816.666	20187
816.807	20065
816.948	20031
817.089	20149
817.23	20103
817.371	19902
817.512	19936
817.653	20027
817.793	19974
817.934	20027
818.075	20100
818.216	20027
818.356	20035
818.497	19753
818.638	19689
818.778	19761
818.919	19643
819.06	19643
819.2	19753
819.341	19776
819.481	19883
819.622	20046
819.762	20157
819.903	20157
820.043	20027
820.184	19955
820.324	19963
820.465	20043
820.605	20092
820.746	19997
820.886	19799
821.026	20073
821.167	19864
821.307	20016
821.447	19837
821.588	19944
821.728	19681
821.868	19544
822.008	19392
822.149	19350
822.289	19487
822.429	19194
822.569	19038
822.709	19137
822.849	18829
822.99	18924
823.13	18901
823.27	18867
823.41	18745
823.55	18661
823.69	18787
823.83	18772
823.97	18585
824.11	18494
824.25	18464
824.389	18509
824.529	18551
824.669	18464
824.809	18578
824.949	18536
825.089	18559
825.228	18509
825.368	18292
825.508	18266
825.648	18281
825.787	18391
825.927	18365
826.067	18235
826.206	18216
826.346	18308
826.485	18292
826.625	18384
826.765	18277
826.904	18357
827.044	18026
827.183	18076
827.323	18030
827.462	18038
827.601	17935
827.741	17954
827.88	17954
828.02	17767
828.159	17859
828.298	17904
828.437	17927
828.577	17840
828.716	18060
828.855	17908
828.994	17828
829.134	17729
829.273	17649
829.412	17722
829.551	17737
829.69	17726
829.829	17615
829.968	17748
830.107	17745
830.246	17691
830.385	17680
830.524	17600
830.663	17486
830.802	17501
830.941	17364
831.08	17273
831.219	17417
831.357	17379
831.496	17535
831.635	17440
831.774	17227
831.913	17178
832.051	17155
832.19	17197
832.329	17231
832.467	17067
832.606	17041
832.744	17041
832.883	16881
833.022	17041
833.16	17067
833.299	17052
833.437	17014
833.576	17067
833.714	17006
833.852	17083
833.991	17147
834.129	17094
834.267	17166
834.406	17010
834.544	17143
834.682	17197
834.821	17136
834.959	17159
835.097	16961
835.235	17162
835.373	17075
835.511	17010
835.65	16934
835.788	16965
835.926	16873
836.064	16729
836.202	16831
836.34	17151
836.478	16984
836.615	16999
836.753	17025
836.891	16934
837.029	17056
837.167	17037
837.305	16946
837.443	16919
837.58	16831
837.718	16995
837.856	16877
837.993	16801
838.131	16824
838.269	16725
838.406	16843
838.544	16831
838.681	16474
838.819	16542
838.956	16402
839.094	16462
839.231	16519
839.369	16504
839.506	16790
839.643	16637
839.781	16455
839.918	16295
840.055	16325
840.193	16337
840.33	16310
840.467	16363
840.604	16493
840.742	16748
840.879	16310
841.016	16352
841.153	16246
841.29	16565
841.427	16409
841.564	16459
841.701	16379
841.838	16329
841.975	16234
842.112	16322
842.249	16314
842.385	16188
842.522	16386
842.659	16200
842.796	16219
842.933	16192
843.069	16188
843.206	16139
843.343	16226
843.479	16257
843.616	16238
843.752	15991
843.889	16010
844.025	16063
844.162	15911
844.298	16055
844.435	15930
844.571	15987
844.708	15987
844.844	16223
844.98	16097
845.117	16048
845.253	15926
845.389	15956
845.525	16010
845.661	16063
845.798	15857
845.934	15991
846.07	15922
846.206	15937
846.342	16002
846.478	15926
846.614	15618
846.75	15576
846.886	15557
847.022	15515
847.158	15633
847.294	15561
847.429	15599
847.565	15485
847.701	15781
847.837	15287
847.972	15386
848.108	15378
848.244	15325
848.379	15226
848.515	15161
848.65	15036
848.786	15116
848.921	15142
849.057	15192
849.192	15188
849.328	15116
849.463	15252
849.598	15100
849.734	15081
849.869	14960
850.004	14994
850.14	15036
850.275	14937
850.41	14724
850.545	14819
850.68	14891
850.815	14944
850.95	14921
851.085	15020
851.22	15001
851.355	15013
851.49	14861
851.625	14933
851.76	14937
851.895	14929
852.03	14769
852.165	14929
852.299	14804
852.434	14914
852.569	15017
852.703	14971
852.838	14982
852.973	14998
853.107	15013
853.242	14918
853.376	14834
853.511	14686
853.645	14735
853.78	14876
853.914	14823
854.048	14830
854.183	14826
854.317	14796
854.451	14899
854.585	14773
854.72	14750
854.854	14864
854.988	14667
855.122	14693
855.256	14560
855.39	14731
855.524	14804
855.658	14796
855.792	14792
855.926	14777
856.06	14864
856.194	14910
856.327	14792
856.461	14693
856.595	14777
856.729	14708
856.862	14944
856.996	14864
857.13	14925
857.263	14868
857.397	14849
857.53	14765
857.664	14872
857.797	14853
857.931	14899
858.064	14800
858.197	14876
858.331	14708
858.464	14655
858.597	14663
858.731	14777
858.864	14773
858.997	14716
859.13	14785
859.263	14876
859.396	14906
859.529	14697
859.662	14727
859.795	14705
859.928	14807
860.061	15005
860.194	14921
860.327	14823
860.46	14769
860.592	14906
860.725	14887
860.858	14845
860.99	14708
861.123	14773
861.256	14765
861.388	14644
861.521	15599
861.653	14629
861.786	14632
861.918	14594
862.05	14720
862.183	14682
862.315	14727
862.447	14777
862.58	14750
862.712	14602
862.844	14484
862.976	14651
863.108	14568
863.24	15005
863.372	14541
863.504	14556
863.636	14587
863.768	14663
863.9	14495
864.032	14568
864.164	14541
864.296	14644
864.428	14727
864.559	14625
864.691	14629
864.823	14640
864.954	14571
865.086	14720
865.217	14568
865.349	14533
865.48	14632
865.612	14670
865.743	14674
865.875	14552
866.006	14492
866.137	14621
866.269	14560
866.4	14552
866.531	14492
866.662	14476
866.793	14514
866.924	14415
867.055	14522
867.186	14492
867.317	14404
867.448	14522
867.579	14518
867.71	14617
867.841	14400
867.972	14522
868.103	14507
868.233	14549
868.364	14632
868.495	14587
868.625	14708
868.756	14872
868.886	14800
869.017	14796
869.147	14861
869.278	14956
869.408	14796
869.539	14754
869.669	14838
869.799	14765
869.929	14891
870.06	14925
870.19	15074
870.32	15093
870.45	15157
870.58	15237
870.71	15344
870.84	15340
870.97	15150
871.1	15192
871.23	15428
871.36	15447
871.489	15268
871.619	15359
871.749	15401
871.879	15431
872.008	15466
872.138	15389
872.267	15321
872.397	15355
872.526	15207
872.656	15222
872.785	15233
872.915	15431
873.044	15424
873.173	15408
873.303	15488
873.432	15389
873.561	15477
873.69	15374
873.819	15447
873.948	15538
874.077	15355
874.206	15416
874.335	15488
874.464	15564
874.593	15690
874.722	15739
874.851	15728
874.979	15751
875.108	15846
875.237	15690
875.365	15755
875.494	15732
875.623	15797
875.751	15709
875.88	15709
876.008	15930
876.136	16109
876.265	16215
876.393	16341
876.521	16204
876.65	16177
876.778	16169
876.906	16173
877.034	16086
877.162	16158
877.29	16093
877.418	16185
877.546	16211
877.674	16158
877.802	16196
877.93	16135
878.058	16105
878.185	16128
878.313	16040
878.441	16230
878.568	16032
878.696	16010
878.824	16322
878.951	16196
879.079	16337
879.206	16386
879.333	16371
879.461	16303
879.588	16375
879.715	16386
879.842	16489
879.97	16299
880.097	16055
880.224	16025
880.351	16013
880.478	15991
880.605	15880
880.732	15922
880.859	16261
880.986	16025
881.112	16006
881.239	15907
881.366	15698
881.493	15660
881.619	15561
881.746	15732
881.872	15728
881.999	15606
882.125	15614
882.252	15774
882.378	15762
882.505	15850
882.631	15713
882.757	15469
882.883	15515
883.01	15500
883.136	15538
883.262	15340
883.388	15302
883.514	15496
883.64	15538
883.766	15496
883.892	15340
884.018	15272
884.143	15481
884.269	15595
884.395	15279
884.52	15116
884.646	15302
884.772	15154
884.897	15184
885.023	15192
885.148	15321
885.274	15317
885.399	15317
885.524	15192
885.65	15306
885.775	15180
885.9	15211
886.025	15348
886.15	15222
886.275	15104
886.4	15036
886.525	15169
886.65	15036
886.775	15081
886.9	15245
887.025	15538
887.149	15089
887.274	15047
887.399	15039
887.523	14979
887.648	14944
887.773	14891
887.897	15100
888.021	15093
888.146	14967
888.27	15249
888.395	15218
888.519	15157
888.643	15077
888.767	15047
888.891	14925
889.015	14937
889.139	14838
889.263	14811
889.387	14986
889.511	14944
889.635	14853
889.759	14845
889.883	14883
890.006	14788
890.13	15036
890.254	14720
890.377	14868
890.501	14670
890.624	14617
890.748	14724
890.871	14602
890.995	14511
891.118	14564
891.241	14499
891.364	14530
891.488	14682
891.611	14533
891.734	14495
891.857	14613
891.98	14533
892.103	14636
892.226	14644
892.349	14492
892.471	14404
892.594	14457
892.717	14590
892.839	14415
892.962	14617
893.085	14552
893.207	14533
893.33	14412
893.452	14423
893.575	14632
893.697	14484
893.819	14651
893.941	14785
894.064	14625
894.186	14461
894.308	14480
894.43	14651
894.552	14712
894.674	14754
894.796	14571
894.918	14602
895.04	14522
895.161	14682
895.283	14716
895.405	14514
895.526	14640
895.648	14602
895.769	14655
895.891	14750
896.012	14815
896.134	14670
896.255	14777
896.376	14621
896.498	14682
896.619	14701
896.74	14640
896.861	14758
896.982	15009
897.103	15112
897.224	14918
897.345	14918
897.466	14842
897.587	14933
897.708	15135
897.828	14990
897.949	14815
898.07	14842
898.19	14906
898.311	15085
898.431	15001
898.552	15001
898.672	15154
898.792	15043
898.913	14960
899.033	14979
899.153	14944
899.273	14792
899.393	14861
899.513	14933
899.633	14842
899.753	14880
899.873	14823
899.993	14883
900.113	14807
900.232	14914
900.352	14845
900.472	14788
900.591	14670
900.711	14800
900.83	14773
900.95	14796
901.069	14765
901.189	14705
901.308	14503
901.427	14278
901.546	14355
901.665	14438
901.784	14537
901.904	14347
902.023	14221
902.141	14008
902.26	14031
902.379	14058
902.498	13909
902.617	13898
902.735	13947
902.854	14016
902.973	13993
903.091	13655
903.21	13521
903.328	13666
903.446	13624
903.565	13620
903.683	13540
903.801	13441
903.919	13460
904.038	13521
904.156	13441
904.274	13381
904.392	13392
904.51	13369
904.627	13259
904.745	13453
904.863	13358
904.981	13118
905.098	13015
905.216	13034
905.334	13076
905.451	12985
905.569	12993
905.686	13072
905.803	12981
905.921	12825
906.038	13076
906.155	12867
906.272	12757
906.389	12757
906.506	12635
906.623	12650
906.74	12540
906.857	12532
906.974	12441
907.091	12642
907.208	12738
907.324	12677
907.441	12513
907.557	12509
907.674	12456
907.79	12308
907.907	12327
908.023	12357
908.139	12353
908.256	12270
908.372	12205
908.488	12289
908.604	12140
908.72	12163
908.836	12121
908.952	12053
909.068	12114
909.184	12277
909.3	12121
909.415	12167
909.531	12175
909.647	11893
909.762	11882
909.878	11836
909.993	11977
910.108	11916
910.224	11840
910.339	11950
910.454	11821
910.57	11722
910.685	11573
910.8	11992
910.915	11965
911.03	11745
911.145	11642
911.259	11520
911.374	11604
911.489	11444
911.604	11452
911.718	11337
911.833	11353
911.947	11185
912.062	11159
912.176	11269
912.291	11353
912.405	11322
912.519	11493
912.633	11509
912.748	11478
912.862	11288
912.976	11216
913.09	11117
913.204	11220
913.318	11193
913.431	11178
913.545	11223
913.659	11417
913.772	11208
913.886	11083
914	11083
914.113	11239
914.226	11220
914.34	11162
914.453	10934
914.566	11261
914.68	10991
914.793	11041
914.906	10873
915.019	10774
915.132	10790
915.245	10744
915.358	10839
915.47	10866
915.583	10866
915.696	10885
915.809	10984
915.921	10919
916.034	10816
916.146	10752
916.259	10858
916.371	10828
916.483	10869
916.595	10797
916.708	10847
916.82	10744
916.932	10778
917.044	10736
917.156	10725
917.268	10630
917.38	10615
917.491	10584
917.603	10679
917.715	10710
917.826	10679
917.938	10550
918.049	10447
918.161	10645
918.272	10748
918.384	10691
918.495	10599
918.606	10512
918.717	10493
918.828	10588
918.939	10569
919.05	10443
919.161	10569
919.272	10284
919.383	10466
919.494	10546
919.604	10771
919.715	10508
919.826	10367
919.936	10470
920.047	10596
920.157	10592
920.267	10683
920.378	10523
920.488	10565
920.598	10679
920.708	10835
920.818	10725
920.928	10774
921.038	10801
921.148	10809
921.258	10577
921.368	10519
921.477	10402
921.587	10459
921.697	10344
921.806	10402
921.916	10246
922.025	10055
922.134	10059
922.244	9991
922.353	10082
922.462	9956
922.571	9861
922.68	9797
922.789	9751
922.898	9774
923.007	9656
923.116	9816
923.224	9770
923.333	9705
923.442	9686
923.55	9606
923.659	9652
923.767	9675
923.876	9587
923.984	9686
924.092	9538
924.201	9618
924.309	9599
924.417	9629
924.525	9614
924.633	9526
924.741	10325
924.849	9389
924.956	9549
925.064	9443
925.172	9294
925.279	9336
925.387	9428
925.494	9450
925.602	9496
925.709	9420
925.816	9306
925.924	9382
926.031	9481
926.138	9428
926.245	9424
926.352	9279
926.459	9420
926.566	9492
926.673	9291
926.779	9222
926.886	9233
926.993	9020
927.099	9043
927.206	9081
927.312	8952
927.419	9112
927.525	9062
927.631	9085
927.737	8956
927.843	8933
927.95	8891
928.056	8910
928.162	8944
928.267	9013
928.373	9637
928.479	9032
928.585	8853
928.69	8982
928.796	9043
928.901	8971
929.007	8796
929.112	8883
929.218	8792
929.323	8838
929.428	8845
929.533	8998
929.638	8807
929.743	8785
929.848	8899
929.953	8815
930.058	8727
930.163	8560
930.267	8556
930.372	8762
930.477	8632
930.581	8697
930.685	8727
930.79	8492
930.894	8598
930.998	8469
931.103	8708
931.207	8339
931.311	8263
931.415	8233
931.519	8050
931.623	8043
