Data from test_V78500241_1219.txt Node
Date: Fri Mar 25 14:42:12 CST 2022
User: usil
Spectrometer: V785-0024
Trigger mode: 0
Integration Time (sec): 4.000000E-1
Scans to average: 1
Nonlinearity correction enabled: false
Boxcar width: 0
Storing dark spectrum: false
XAxis mode: Wavelengths
Number of Pixels in Spectrum: 1024
>>>>>Begin Spectral Data<<<<<
801.071	22466
801.214	22436
801.356	21991
801.499	21736
801.641	21785
801.783	21720
801.926	21827
802.068	21583
802.211	21679
802.353	21572
802.496	21351
802.638	21245
802.78	21382
802.923	21036
803.065	21096
803.208	21039
803.35	21119
803.492	21127
803.635	21180
803.777	21161
803.919	21237
804.061	21378
804.204	21317
804.346	21020
804.488	21013
804.63	21089
804.773	20895
804.915	21233
805.057	21195
805.199	21108
805.341	21039
805.483	21173
805.626	21096
805.768	21093
805.91	20982
806.052	20994
806.194	20967
806.336	21055
806.478	21043
806.62	21100
806.762	21043
806.904	21233
807.046	21439
807.188	21287
807.33	21389
807.472	21382
807.614	21355
807.756	21275
807.898	21138
808.04	21237
808.182	20998
808.324	21256
808.465	21230
808.607	21416
808.749	21515
808.891	21660
809.033	21660
809.174	21549
809.316	21507
809.458	21454
809.6	21412
809.741	21496
809.883	21504
810.025	21698
810.166	21435
810.308	21591
810.45	21534
810.591	21435
810.733	21405
810.875	21245
811.016	21146
811.158	21157
811.299	21264
811.441	21370
811.582	21298
811.724	21104
811.865	21176
812.007	21195
812.148	21249
812.29	21146
812.431	21393
812.573	21504
812.714	21526
812.855	21785
812.997	21888
813.138	21804
813.279	21751
813.421	21717
813.562	21637
813.703	21553
813.845	21393
813.986	20967
814.127	20990
814.268	20720
814.41	20857
814.551	20788
814.692	20887
814.833	20693
814.974	20670
815.115	20720
815.256	20670
815.397	20644
815.539	20533
815.68	20537
815.821	20442
815.962	20594
816.103	20434
816.244	20434
816.385	20313
816.526	20248
816.666	20039
816.807	19856
816.948	19978
817.089	20024
817.23	19993
817.371	19925
817.512	19932
817.653	19871
817.793	19917
817.934	19856
818.075	19913
818.216	20020
818.356	19894
818.497	19811
818.638	19609
818.778	19567
818.919	19647
819.06	19689
819.2	19833
819.341	19803
819.481	19811
819.622	19970
819.762	20050
819.903	20046
820.043	19970
820.184	19830
820.324	19860
820.465	19967
820.605	19925
820.746	19909
820.886	19780
821.026	19894
821.167	19890
821.307	19898
821.447	19731
821.588	19666
821.728	19540
821.868	19419
822.008	19228
822.149	19266
822.289	19225
822.429	19053
822.569	18977
822.709	18848
822.849	18833
822.99	18875
823.13	18867
823.27	18764
823.41	18597
823.55	18661
823.69	18582
823.83	18612
823.97	18601
824.11	18388
824.25	18361
824.389	18486
824.529	18369
824.669	18296
824.809	18544
824.949	18437
825.089	18506
825.228	18369
825.368	18357
825.508	18292
825.648	18148
825.787	18190
825.927	18213
826.067	18182
826.206	18098
826.346	18266
826.485	18197
826.625	18102
826.765	18228
826.904	18201
827.044	17851
827.183	17927
827.323	17817
827.462	17828
827.601	17908
827.741	17794
827.88	17843
828.02	17866
828.159	17775
828.298	17798
828.437	17935
828.577	17847
828.716	17885
828.855	17939
828.994	17710
829.134	17619
829.273	17672
829.412	17551
829.551	17524
829.69	17718
829.829	17653
829.968	17665
830.107	17676
830.246	17589
830.385	17562
830.524	17459
830.663	17322
830.802	17391
830.941	17246
831.08	17280
831.219	17246
831.357	17212
831.496	17486
831.635	17345
831.774	17178
831.913	17102
832.051	17102
832.19	17003
832.329	17018
832.467	16961
832.606	16961
832.744	16831
832.883	16915
833.022	16885
833.16	17037
833.299	16942
833.437	16976
833.576	17010
833.714	17003
833.852	17060
833.991	16961
834.129	17052
834.267	16984
834.406	16984
834.544	17029
834.682	16999
834.821	17003
834.959	17166
835.097	16976
835.235	17109
835.373	17056
835.511	16976
835.65	16953
835.788	16889
835.926	16805
836.064	16611
836.202	16755
836.34	16972
836.478	16976
836.615	16946
836.753	16805
836.891	17010
837.029	17071
837.167	16923
837.305	16790
837.443	16786
837.58	16713
837.718	16919
837.856	16736
837.993	16653
838.131	16820
838.269	16752
838.406	16767
838.544	16649
838.681	16432
838.819	16390
838.956	16382
839.094	16348
839.231	16367
839.369	16432
839.506	16702
839.643	16577
839.781	16257
839.918	16306
840.055	16314
840.193	16310
840.33	16318
840.467	16386
840.604	16352
840.742	16538
840.879	16120
841.016	16173
841.153	16276
841.29	16443
841.427	16333
841.564	16352
841.701	16265
841.838	16291
841.975	16246
842.112	16284
842.249	16090
842.385	16109
842.522	16310
842.659	16055
842.796	16044
842.933	16131
843.069	16006
843.206	16162
843.343	16169
843.479	16188
843.616	16143
843.752	16059
843.889	15884
844.025	16090
844.162	15861
844.298	16044
844.435	15812
844.571	15827
844.708	15930
844.844	16109
844.98	16071
845.117	16002
845.253	15819
845.389	15895
845.525	15873
845.661	15819
845.798	15660
845.934	15808
846.07	15675
846.206	15903
846.342	15857
846.478	15728
846.614	15477
846.75	15397
846.886	15412
847.022	15690
847.158	15519
847.294	15439
847.429	15466
847.565	15412
847.701	15739
847.837	15195
847.972	15180
848.108	15321
848.244	15157
848.379	15188
848.515	15047
848.65	14994
848.786	15119
848.921	14960
849.057	15165
849.192	15165
849.328	15214
849.463	15108
849.598	15009
849.734	14956
849.869	14929
850.004	14826
850.14	14849
850.275	14826
850.41	14727
850.545	14686
850.68	14857
850.815	14796
850.95	14838
851.085	14990
851.22	14933
851.355	14830
851.49	14826
851.625	14762
851.76	14735
851.895	14708
852.03	14712
852.165	14777
852.299	14937
852.434	14921
852.569	14807
852.703	14868
852.838	14925
852.973	15001
853.107	14906
853.242	14826
853.376	14655
853.511	14621
853.645	14541
853.78	14769
853.914	14769
854.048	14648
854.183	14705
854.317	14655
854.451	14899
854.585	14716
854.72	14663
854.854	14781
854.988	14617
855.122	14587
855.256	14537
855.39	14640
855.524	14769
855.658	14724
855.792	14769
855.926	14743
856.06	14663
856.194	14762
856.327	14606
856.461	14659
856.595	14651
856.729	14686
856.862	14883
856.996	14769
857.13	14746
857.263	14792
857.397	14781
857.53	14743
857.664	14697
857.797	14735
857.931	14800
858.064	14727
858.197	14765
858.331	14716
858.464	14644
858.597	14480
858.731	14594
858.864	14621
858.997	14724
859.13	14785
859.263	14743
859.396	14804
859.529	14613
859.662	14785
859.795	14537
859.928	14727
860.061	14819
860.194	14895
860.327	14636
860.46	14716
860.592	14830
860.725	14785
860.858	14804
860.99	14682
861.123	14579
861.256	14606
861.388	14712
861.521	15370
861.653	14518
861.786	14545
861.918	14427
862.05	14530
862.183	14590
862.315	14720
862.447	14693
862.58	14686
862.712	14400
862.844	14476
862.976	14568
863.108	14473
863.24	14861
863.372	14450
863.504	14480
863.636	14492
863.768	14545
863.9	14503
864.032	14358
864.164	14336
864.296	14564
864.428	14629
864.559	14526
864.691	14564
864.823	14606
864.954	14461
865.086	14583
865.217	14412
865.349	14454
865.48	14442
865.612	14461
865.743	14568
865.875	14484
866.006	14381
866.137	14469
866.269	14473
866.4	14492
866.531	14438
866.662	14301
866.793	14317
866.924	14374
867.055	14457
867.186	14415
867.317	14461
867.448	14396
867.579	14381
867.71	14286
867.841	14298
867.972	14419
868.103	14434
868.233	14484
868.364	14499
868.495	14575
868.625	14689
868.756	14765
868.886	14579
869.017	14674
869.147	14788
869.278	14872
869.408	14682
869.539	14739
869.669	14689
869.799	14792
869.929	14777
870.06	14758
870.19	14956
870.32	15066
870.45	14967
870.58	15013
870.71	15138
870.84	15116
870.97	14944
871.1	15127
871.23	15313
871.36	15310
871.489	15085
871.619	15355
871.749	15256
871.879	15336
872.008	15340
872.138	15340
872.267	15306
872.397	15058
872.526	15100
872.656	15009
872.785	15104
872.915	15279
873.044	15386
873.173	15355
873.303	15199
873.432	15294
873.561	15310
873.69	15359
873.819	15321
873.948	15401
874.077	15317
874.206	15374
874.335	15298
874.464	15481
874.593	15603
874.722	15477
874.851	15637
874.979	15663
875.108	15694
875.237	15557
875.365	15481
875.494	15584
875.623	15663
875.751	15644
875.88	15644
876.008	15751
876.136	15835
876.265	16044
876.393	16188
876.521	16059
876.65	16112
876.778	16150
876.906	16010
877.034	16002
877.162	16067
877.29	16055
877.418	16032
877.546	15915
877.674	16112
877.802	16101
877.93	16036
878.058	16040
878.185	15998
878.313	16120
878.441	16139
878.568	15968
878.696	16013
878.824	16147
878.951	16150
879.079	16291
879.206	16470
879.333	16303
879.461	16128
879.588	16215
879.715	16325
879.842	16394
879.97	16242
880.097	15972
880.224	15979
880.351	16017
880.478	15918
880.605	15926
880.732	15895
880.859	16135
880.986	16002
881.112	15998
881.239	15789
881.366	15705
881.493	15625
881.619	15572
881.746	15648
881.872	15553
881.999	15549
882.125	15584
882.252	15641
882.378	15618
882.505	15755
882.631	15523
882.757	15393
882.883	15530
883.01	15496
883.136	15412
883.262	15310
883.388	15188
883.514	15416
883.64	15477
883.766	15325
883.892	15188
884.018	15203
884.143	15393
884.269	15504
884.395	15294
884.52	15081
884.646	15127
884.772	15123
884.897	15032
885.023	15264
885.148	15279
885.274	15173
885.399	15211
885.524	15150
885.65	15135
885.775	15119
885.9	15138
886.025	15112
886.15	15211
886.275	15024
886.4	15070
886.525	15085
886.65	15024
886.775	15017
886.9	15142
887.025	15363
887.149	15047
887.274	15051
887.399	14830
887.523	14967
887.648	14883
887.773	14838
887.897	15081
888.021	14921
888.146	14910
888.27	15020
888.395	15047
888.519	15097
888.643	15005
888.767	15009
888.891	14967
889.015	14712
889.139	14838
889.263	14777
889.387	14845
889.511	14883
889.635	14902
889.759	14743
889.883	14743
890.006	14788
890.13	14834
890.254	14743
890.377	14716
890.501	14594
890.624	14511
890.748	14621
890.871	14484
890.995	14434
891.118	14385
891.241	14522
891.364	14442
891.488	14545
891.611	14488
891.734	14511
891.857	14602
891.98	14522
892.103	14568
892.226	14476
892.349	14434
892.471	14267
892.594	14511
892.717	14495
892.839	14514
892.962	14537
893.085	14514
893.207	14488
893.33	14427
893.452	14385
893.575	14503
893.697	14473
893.819	14705
893.941	14663
894.064	14663
894.186	14427
894.308	14358
894.43	14613
894.552	14712
894.674	14648
894.796	14442
894.918	14507
895.04	14427
895.161	14640
895.283	14598
895.405	14442
895.526	14602
895.648	14511
895.769	14564
895.891	14579
896.012	14724
896.134	14701
896.255	14663
896.376	14610
896.498	14613
896.619	14781
896.74	14678
896.861	14678
896.982	14937
897.103	15142
897.224	14906
897.345	14906
897.466	14796
897.587	14868
897.708	15108
897.828	15047
897.949	14899
898.07	14705
898.19	14804
898.311	15036
898.431	15039
898.552	15062
898.672	15013
898.792	15104
898.913	15013
899.033	14895
899.153	14902
899.273	14697
899.393	14750
899.513	14883
899.633	14777
899.753	14800
899.873	14796
899.993	14956
900.113	14792
900.232	14883
900.352	14777
900.472	14674
900.591	14613
900.711	14648
900.83	14617
900.95	14834
901.069	14834
901.189	14625
901.308	14480
901.427	14320
901.546	14415
901.665	14434
901.784	14298
901.904	14206
902.023	14218
902.141	13917
902.26	13921
902.379	14027
902.498	13921
902.617	13921
902.735	13928
902.854	13746
902.973	13883
903.091	13567
903.21	13567
903.328	13651
903.446	13502
903.565	13419
903.683	13468
903.801	13343
903.919	13457
904.038	13510
904.156	13346
904.274	13407
904.392	13304
904.51	13297
904.627	13327
904.745	13335
904.863	13335
904.981	13118
905.098	12989
905.216	12970
905.334	12977
905.451	12939
905.569	12916
905.686	13038
905.803	12966
905.921	12741
906.038	12901
906.155	12806
906.272	12608
906.389	12719
906.506	12593
906.623	12593
906.74	12506
906.857	12388
906.974	12547
907.091	12673
907.208	12772
907.324	12612
907.441	12486
907.557	12365
907.674	12311
907.79	12197
907.907	12315
908.023	12289
908.139	12262
908.256	12281
908.372	12148
908.488	12163
908.604	11988
908.72	12072
908.836	11999
908.952	11954
909.068	12095
909.184	12224
909.3	12102
909.415	12171
909.531	12159
909.647	11863
909.762	11813
909.878	11874
909.993	11927
910.108	11798
910.224	11843
910.339	11824
910.454	11828
910.57	11748
910.685	11615
910.8	11855
910.915	11821
911.03	11638
911.145	11535
911.259	11482
911.374	11509
911.489	11455
911.604	11353
911.718	11330
911.833	11250
911.947	11178
912.062	11128
912.176	11185
912.291	11334
912.405	11261
912.519	11463
912.633	11463
912.748	11372
912.862	11273
912.976	11227
913.09	11025
913.204	11067
913.318	11128
913.431	11265
913.545	11231
913.659	11299
913.772	11083
913.886	11083
914	10999
914.113	11037
914.226	11128
914.34	11124
914.453	10968
914.566	11071
914.68	11018
914.793	10965
914.906	10854
915.019	10675
915.132	10702
915.245	10725
915.358	10744
915.47	10790
915.583	10755
915.696	10790
915.809	10904
915.921	10930
916.034	10736
916.146	10698
916.259	10797
916.371	10797
916.483	10778
916.595	10672
916.708	10698
916.82	10729
916.932	10668
917.044	10702
917.156	10607
917.268	10485
917.38	10577
917.491	10596
917.603	10596
917.715	10679
917.826	10668
917.938	10592
918.049	10405
918.161	10546
918.272	10653
918.384	10683
918.495	10622
918.606	10424
918.717	10508
918.828	10451
918.939	10489
919.05	10424
919.161	10535
919.272	10207
919.383	10272
919.494	10519
919.604	10740
919.715	10512
919.826	10417
919.936	10451
920.047	10535
920.157	10546
920.267	10736
920.378	10531
920.488	10493
920.598	10637
920.708	10793
920.818	10615
920.928	10694
921.038	10839
921.148	10782
921.258	10546
921.368	10451
921.477	10344
921.587	10287
921.697	10158
921.806	10253
921.916	10268
922.025	10017
922.134	10010
922.244	9991
922.353	10059
922.462	9934
922.571	9876
922.68	9774
922.789	9641
922.898	9698
923.007	9671
923.116	9797
923.224	9728
923.333	9694
923.442	9656
923.55	9584
923.659	9648
923.767	9671
923.876	9595
923.984	9641
924.092	9538
924.201	9481
924.309	9542
924.417	9671
924.525	9511
924.633	9485
924.741	10276
924.849	9393
924.956	9526
925.064	9359
925.172	9245
925.279	9348
925.387	9298
925.494	9279
925.602	9496
925.709	9408
925.816	9306
925.924	9408
926.031	9477
926.138	9321
926.245	9325
926.352	9268
926.459	9401
926.566	9500
926.673	9336
926.779	9245
926.886	9146
926.993	9077
927.099	8971
927.206	9020
927.312	9055
927.419	9135
927.525	9055
927.631	9100
927.737	8937
927.843	8994
927.95	8842
928.056	8960
928.162	8971
928.267	9028
928.373	9591
928.479	8971
928.585	8838
928.69	8967
928.796	8986
928.901	8838
929.007	8750
929.112	8891
929.218	8804
929.323	8823
929.428	8750
929.533	8937
929.638	8746
929.743	8739
929.848	8815
929.953	8697
930.058	8693
930.163	8503
930.267	8594
930.372	8750
930.477	8480
930.581	8766
930.685	8655
930.79	8568
930.894	8522
930.998	8434
931.103	8610
931.207	8301
931.311	8176
931.415	8145
931.519	8008
931.623	7978
