Data from test_V78500241_1638.txt Node
Date: Fri Mar 25 14:45:07 CST 2022
User: usil
Spectrometer: V785-0024
Trigger mode: 0
Integration Time (sec): 4.000000E-1
Scans to average: 1
Nonlinearity correction enabled: false
Boxcar width: 0
Storing dark spectrum: false
XAxis mode: Wavelengths
Number of Pixels in Spectrum: 1024
>>>>>Begin Spectral Data<<<<<
801.071	22371
801.214	22192
801.356	21869
801.499	21861
801.641	21755
801.783	21682
801.926	21778
802.068	21667
802.211	21625
802.353	21389
802.496	21252
802.638	21138
802.78	21241
802.923	21169
803.065	21123
803.208	21066
803.35	21028
803.492	21070
803.635	21211
803.777	21024
803.919	21108
804.061	21313
804.204	21135
804.346	21005
804.488	20895
804.63	21005
804.773	21036
804.915	20925
805.057	21032
805.199	20982
805.341	21070
805.483	21093
805.626	20933
805.768	20887
805.91	21009
806.052	21009
806.194	21020
806.336	21070
806.478	20979
806.62	20819
806.762	20986
806.904	21203
807.046	21374
807.188	21195
807.33	21321
807.472	21355
807.614	21245
807.756	21279
807.898	21146
808.04	21142
808.182	21001
808.324	21036
808.465	21237
808.607	21310
808.749	21500
808.891	21344
809.033	21618
809.174	21447
809.316	21355
809.458	21511
809.6	21416
809.741	21504
809.883	21412
810.025	21572
810.166	21732
810.308	21481
810.45	21466
810.591	21485
810.733	21180
810.875	21123
811.016	21051
811.158	21058
811.299	21195
811.441	21233
811.582	21241
811.724	21268
811.865	20994
812.007	21108
812.148	21108
812.29	21173
812.431	21226
812.573	21462
812.714	21538
812.855	21682
812.997	21778
813.138	21895
813.279	21743
813.421	21610
813.562	21580
813.703	21344
813.845	21313
813.986	21058
814.127	20834
814.268	20743
814.41	20781
814.551	20648
814.692	20773
814.833	20507
814.974	20575
815.115	20659
815.256	20454
815.397	20587
815.539	20609
815.68	20336
815.821	20461
815.962	20362
816.103	20374
816.244	20225
816.385	20031
816.526	20134
816.666	19986
816.807	19841
816.948	20001
817.089	19963
817.23	19852
817.371	19776
817.512	19845
817.653	19803
817.793	19830
817.934	19784
818.075	19864
818.216	19917
818.356	19803
818.497	19715
818.638	19556
818.778	19449
818.919	19441
819.06	19605
819.2	19594
819.341	19719
819.481	19689
819.622	19753
819.762	20050
819.903	19826
820.043	19685
820.184	19708
820.324	19791
820.465	19814
820.605	19856
820.746	19795
820.886	19708
821.026	19849
821.167	19723
821.307	19795
821.447	19662
821.588	19514
821.728	19559
821.868	19362
822.008	19236
822.149	19175
822.289	19244
822.429	18981
822.569	18875
822.709	18924
822.849	18779
822.99	18578
823.13	18730
823.27	18677
823.41	18433
823.55	18456
823.69	18593
823.83	18448
823.97	18372
824.11	18247
824.25	18266
824.389	18270
824.529	18407
824.669	18311
824.809	18273
824.949	18369
825.089	18281
825.228	18311
825.368	18110
825.508	18030
825.648	18007
825.787	18015
825.927	18140
826.067	18019
826.206	17939
826.346	18076
826.485	17973
826.625	18019
826.765	18129
826.904	18064
827.044	17824
827.183	17737
827.323	17733
827.462	17760
827.601	17619
827.741	17718
827.88	17790
828.02	17680
828.159	17699
828.298	17741
828.437	17767
828.577	17710
828.716	17897
828.855	17592
828.994	17497
829.134	17425
829.273	17493
829.412	17395
829.551	17402
829.69	17387
829.829	17425
829.968	17577
830.107	17440
830.246	17558
830.385	17440
830.524	17364
830.663	17265
830.802	17185
830.941	17124
831.08	16995
831.219	17147
831.357	17159
831.496	17296
831.635	17121
831.774	17075
831.913	16949
832.051	16881
832.19	16809
832.329	16816
832.467	16713
832.606	16748
832.744	16736
832.883	16721
833.022	16752
833.16	16752
833.299	16866
833.437	16854
833.576	16702
833.714	16797
833.852	16892
833.991	16881
834.129	16843
834.267	16862
834.406	16877
834.544	16908
834.682	16763
834.821	16816
834.959	16999
835.097	16790
835.235	16938
835.373	16820
835.511	16854
835.65	16664
835.788	16755
835.926	16504
836.064	16527
836.202	16497
836.34	16702
836.478	16790
836.615	16729
836.753	16740
836.891	16862
837.029	16736
837.167	16649
837.305	16630
837.443	16596
837.58	16596
837.718	16599
837.856	16550
837.993	16440
838.131	16485
838.269	16519
838.406	16493
838.544	16485
838.681	16382
838.819	16188
838.956	16116
839.094	16071
839.231	16204
839.369	16299
839.506	16546
839.643	16413
839.781	16188
839.918	16010
840.055	16257
840.193	16158
840.33	16040
840.467	16105
840.604	16105
840.742	16344
840.879	16010
841.016	16097
841.153	16036
841.29	16185
841.427	16139
841.564	16124
841.701	16192
841.838	16044
841.975	15968
842.112	16067
842.249	15884
842.385	15831
842.522	16109
842.659	15949
842.796	15880
842.933	15915
843.069	15903
843.206	15880
843.343	15861
843.479	15945
843.616	15911
843.752	15679
843.889	15720
844.025	15880
844.162	15591
844.298	15736
844.435	15656
844.571	15667
844.708	15812
844.844	15827
844.98	15717
845.117	15728
845.253	15705
845.389	15606
845.525	15644
845.661	15633
845.798	15447
845.934	15614
846.07	15458
846.206	15576
846.342	15713
846.478	15469
846.614	15405
846.75	15310
846.886	15222
847.022	15374
847.158	15264
847.294	15264
847.429	15355
847.565	15199
847.701	15488
847.837	14944
847.972	14910
848.108	14986
848.244	15020
848.379	14861
848.515	14921
848.65	14819
848.786	14834
848.921	14842
849.057	14864
849.192	14948
849.328	14853
849.463	14876
849.598	14838
849.734	14792
849.869	14796
850.004	14705
850.14	14511
850.275	14610
850.41	14598
850.545	14556
850.68	14507
850.815	14594
850.95	14575
851.085	14678
851.22	14762
851.355	14686
851.49	14587
851.625	14556
851.76	14503
851.895	14518
852.03	14457
852.165	14530
852.299	14655
852.434	14708
852.569	14644
852.703	14602
852.838	14712
852.973	14708
853.107	14689
853.242	14571
853.376	14412
853.511	14339
853.645	14434
853.78	14564
853.914	14480
854.048	14438
854.183	14450
854.317	14454
854.451	14621
854.585	14526
854.72	14434
854.854	14526
854.988	14400
855.122	14511
855.256	14442
855.39	14549
855.524	14507
855.658	14564
855.792	14610
855.926	14545
856.06	14556
856.194	14621
856.327	14549
856.461	14434
856.595	14568
856.729	14446
856.862	14617
856.996	14533
857.13	14583
857.263	14727
857.397	14552
857.53	14590
857.664	14583
857.797	14594
857.931	14594
858.064	14533
858.197	14579
858.331	14469
858.464	14541
858.597	14450
858.731	14476
858.864	14480
858.997	14431
859.13	14621
859.263	14530
859.396	14644
859.529	14514
859.662	14499
859.795	14419
859.928	14537
860.061	14777
860.194	14735
860.327	14556
860.46	14499
860.592	14625
860.725	14781
860.858	14629
860.99	14549
861.123	14408
861.256	14415
861.388	14511
861.521	15302
861.653	14480
861.786	14248
861.918	14427
862.05	14408
862.183	14450
862.315	14537
862.447	14495
862.58	14434
862.712	14294
862.844	14221
862.976	14339
863.108	14358
863.24	14788
863.372	14172
863.504	14252
863.636	14339
863.768	14366
863.9	14309
864.032	14161
864.164	14256
864.296	14355
864.428	14381
864.559	14385
864.691	14469
864.823	14339
864.954	14301
865.086	14332
865.217	14282
865.349	14263
865.48	14320
865.612	14225
865.743	14408
865.875	14225
866.006	14210
866.137	14278
866.269	14183
866.4	14298
866.531	14240
866.662	14126
866.793	14244
866.924	14180
867.055	14267
867.186	14339
867.317	14225
867.448	14096
867.579	14180
867.71	14157
867.841	14164
867.972	14259
868.103	14290
868.233	14237
868.364	14229
868.495	14355
868.625	14461
868.756	14549
868.886	14389
869.017	14476
869.147	14610
869.278	14613
869.408	14518
869.539	14495
869.669	14571
869.799	14621
869.929	14629
870.06	14625
870.19	14861
870.32	14830
870.45	14739
870.58	14899
870.71	14952
870.84	14941
870.97	14853
871.1	14910
871.23	15119
871.36	15142
871.489	14982
871.619	15062
871.749	14994
871.879	15169
872.008	15195
872.138	15138
872.267	15066
872.397	14998
872.526	14948
872.656	15017
872.785	14880
872.915	15081
873.044	15275
873.173	15188
873.303	15218
873.432	15218
873.561	15199
873.69	15192
873.819	15135
873.948	15283
874.077	15203
874.206	15116
874.335	15203
874.464	15222
874.593	15408
874.722	15382
874.851	15416
874.979	15473
875.108	15477
875.237	15519
875.365	15310
875.494	15439
875.623	15469
875.751	15469
875.88	15526
876.008	15580
876.136	15682
876.265	15819
876.393	15998
876.521	15994
876.65	15994
876.778	15930
876.906	15899
877.034	15778
877.162	15880
877.29	15873
877.418	15861
877.546	15930
877.674	15842
877.802	15865
877.93	15850
878.058	15861
878.185	15766
878.313	15759
878.441	15876
878.568	15663
878.696	15819
878.824	15922
878.951	15888
879.079	16013
879.206	16192
879.333	16055
879.461	15987
879.588	16059
879.715	16086
879.842	16166
879.97	15911
880.097	15766
880.224	15724
880.351	15789
880.478	15694
880.605	15675
880.732	15644
880.859	15930
880.986	15732
881.112	15743
881.239	15644
881.366	15473
881.493	15389
881.619	15416
881.746	15389
881.872	15389
881.999	15458
882.125	15355
882.252	15374
882.378	15458
882.505	15534
882.631	15264
882.757	15287
882.883	15264
883.01	15207
883.136	15264
883.262	15097
883.388	15085
883.514	15256
883.64	15214
883.766	15180
883.892	15047
884.018	15108
884.143	15157
884.269	15336
884.395	15058
884.52	14880
884.646	14956
884.772	14864
884.897	14781
885.023	14952
885.148	15024
885.274	15085
885.399	15085
885.524	14971
885.65	14910
885.775	14830
885.9	14880
886.025	15047
886.15	14918
886.275	14887
886.4	14842
886.525	14963
886.65	14883
886.775	14861
886.9	14986
887.025	15119
887.149	14941
887.274	14689
887.399	14758
887.523	14731
887.648	14602
887.773	14674
887.897	14838
888.021	14689
888.146	14670
888.27	14807
888.395	14845
888.519	14777
888.643	14750
888.767	14720
888.891	14697
889.015	14488
889.139	14594
889.263	14526
889.387	14678
889.511	14788
889.635	14648
889.759	14533
889.883	14514
890.006	14590
890.13	14724
890.254	14541
890.377	14457
890.501	14347
890.624	14400
890.748	14457
890.871	14290
890.995	14225
891.118	14214
891.241	14233
891.364	14218
891.488	14385
891.611	14252
891.734	14263
891.857	14324
891.98	14248
892.103	14404
892.226	14488
892.349	14199
892.471	14161
892.594	14164
892.717	14259
892.839	14225
892.962	14282
893.085	14377
893.207	14275
893.33	14111
893.452	14225
893.575	14278
893.697	14191
893.819	14370
893.941	14450
894.064	14438
894.186	14233
894.308	14210
894.43	14313
894.552	14495
894.674	14446
894.796	14248
894.918	14267
895.04	14286
895.161	14396
895.283	14454
895.405	14263
895.526	14336
895.648	14389
895.769	14400
895.891	14454
896.012	14552
896.134	14438
896.255	14514
896.376	14374
896.498	14389
896.619	14393
896.74	14415
896.861	14465
896.982	14743
897.103	14891
897.224	14739
897.345	14701
897.466	14651
897.587	14735
897.708	14842
897.828	14743
897.949	14617
898.07	14560
898.19	14670
898.311	14815
898.431	14807
898.552	14758
898.672	14830
898.792	14830
898.913	14830
899.033	14762
899.153	14629
899.273	14503
899.393	14610
899.513	14602
899.633	14594
899.753	14792
899.873	14610
899.993	14613
900.113	14640
900.232	14716
900.352	14541
900.472	14556
900.591	14476
900.711	14552
900.83	14450
900.95	14667
901.069	14705
901.189	14484
901.308	14305
901.427	14195
901.546	14180
901.665	14294
901.784	14240
901.904	14153
902.023	13986
902.141	13830
902.26	13696
902.379	13811
902.498	13799
902.617	13689
902.735	13734
902.854	13753
902.973	13795
903.091	13533
903.21	13457
903.328	13502
903.446	13480
903.565	13331
903.683	13289
903.801	13232
903.919	13297
904.038	13236
904.156	13118
904.274	13175
904.392	13076
904.51	13141
904.627	13076
904.745	13202
904.863	13091
904.981	12886
905.098	12764
905.216	12833
905.334	12878
905.451	12806
905.569	12768
905.686	12787
905.803	12859
905.921	12673
906.038	12578
906.155	12627
906.272	12498
906.389	12532
906.506	12410
906.623	12395
906.74	12308
906.857	12327
906.974	12270
907.091	12498
907.208	12547
907.324	12426
907.441	12323
907.557	12220
907.674	12083
907.79	12030
907.907	12121
908.023	12117
908.139	12186
908.256	12159
908.372	12091
908.488	12022
908.604	11946
908.72	11885
908.836	11931
908.952	11821
909.068	11923
909.184	11912
909.3	11920
909.415	11885
909.531	11897
909.647	11691
909.762	11649
909.878	11604
909.993	11703
910.108	11729
910.224	11585
910.339	11767
910.454	11570
910.57	11471
910.685	11471
910.8	11688
910.915	11680
911.03	11516
911.145	11376
911.259	11334
911.374	11322
911.489	11288
911.604	11303
911.718	11143
911.833	11128
911.947	10896
912.062	10946
912.176	11136
912.291	11143
912.405	11060
912.519	11288
912.633	11307
912.748	11170
912.862	11143
912.976	10934
913.09	10816
913.204	10991
913.318	11037
913.431	11102
913.545	11109
913.659	11075
913.772	10938
913.886	10881
914	10900
914.113	11010
914.226	11071
914.34	10923
914.453	10793
914.566	10881
914.68	10801
914.793	10843
914.906	10630
915.019	10527
915.132	10603
915.245	10497
915.358	10653
915.47	10577
915.583	10672
915.696	10706
915.809	10725
915.921	10816
916.034	10554
916.146	10588
916.259	10569
916.371	10694
916.483	10664
916.595	10577
916.708	10504
916.82	10542
916.932	10478
917.044	10580
917.156	10455
917.268	10413
917.38	10413
917.491	10360
917.603	10432
917.715	10546
917.826	10485
917.938	10565
918.049	10352
918.161	10459
918.272	10588
918.384	10577
918.495	10474
918.606	10295
918.717	10287
918.828	10390
918.939	10390
919.05	10185
919.161	10352
919.272	10082
919.383	10219
919.494	10356
919.604	10512
919.715	10341
919.826	10234
919.936	10242
920.047	10379
920.157	10356
920.267	10474
920.378	10398
920.488	10337
920.598	10504
920.708	10725
920.818	10508
920.928	10554
921.038	10767
921.148	10641
921.258	10325
921.368	10211
921.477	10215
921.587	10196
921.697	10017
921.806	10234
921.916	10086
922.025	9991
922.134	9899
922.244	9899
922.353	9922
922.462	9663
922.571	9698
922.68	9599
922.789	9523
922.898	9599
923.007	9523
923.116	9629
923.224	9584
923.333	9511
923.442	9458
923.55	9443
923.659	9466
923.767	9538
923.876	9473
923.984	9561
924.092	9382
924.201	9507
924.309	9443
924.417	9405
924.525	9374
924.633	9386
924.741	10162
924.849	9222
924.956	9363
925.064	9253
925.172	9188
925.279	9211
925.387	9245
925.494	9218
925.602	9389
925.709	9241
925.816	9127
925.924	9169
926.031	9302
926.138	9211
926.245	9256
926.352	9195
926.459	9268
926.566	9256
926.673	9165
926.779	9036
926.886	9085
926.993	8906
927.099	8975
927.206	8842
927.312	8914
927.419	8994
927.525	8925
927.631	8960
927.737	8826
927.843	8773
927.95	8754
928.056	8792
928.162	8887
928.267	8838
928.373	9363
928.479	8849
928.585	8800
928.69	8849
928.796	8883
928.901	8769
929.007	8583
929.112	8792
929.218	8701
929.323	8659
929.428	8648
929.533	8762
929.638	8629
929.743	8693
929.848	8762
929.953	8655
930.058	8568
930.163	8495
930.267	8495
930.372	8587
930.477	8381
930.581	8602
930.685	8503
930.79	8431
930.894	8427
930.998	8389
931.103	8507
931.207	8214
931.311	8126
931.415	7986
931.519	7822
931.623	7792
