Data from test_V78500241_2248.txt Node
Date: Fri Mar 25 14:49:21 CST 2022
User: usil
Spectrometer: V785-0024
Trigger mode: 0
Integration Time (sec): 4.000000E-1
Scans to average: 1
Nonlinearity correction enabled: false
Boxcar width: 0
Storing dark spectrum: false
XAxis mode: Wavelengths
Number of Pixels in Spectrum: 1024
>>>>>Begin Spectral Data<<<<<
801.071	22086
801.214	22044
801.356	21774
801.499	21865
801.641	21485
801.783	21561
801.926	21511
802.068	21549
802.211	21462
802.353	21313
802.496	21127
802.638	21306
802.78	20933
802.923	20979
803.065	20773
803.208	20864
803.35	20902
803.492	21009
803.635	20971
803.777	20937
803.919	20895
804.061	21264
804.204	20956
804.346	20823
804.488	20785
804.63	20750
804.773	20686
804.915	20819
805.057	20883
805.199	20731
805.341	20853
805.483	20960
805.626	20899
805.768	20667
805.91	20819
806.052	20990
806.194	20716
806.336	20883
806.478	20845
806.62	20659
806.762	20918
806.904	20975
807.046	21161
807.188	21100
807.33	21051
807.472	21218
807.614	20975
807.756	21104
807.898	20967
808.04	20880
808.182	20941
808.324	20830
808.465	20845
808.607	21131
808.749	21283
808.891	21268
809.033	21268
809.174	21230
809.316	21108
809.458	21142
809.6	21195
809.741	21218
809.883	21329
810.025	21389
810.166	21435
810.308	21321
810.45	21291
810.591	21199
810.733	20994
810.875	20883
811.016	20872
811.158	20895
811.299	20967
811.441	21043
811.582	21013
811.724	20941
811.865	20868
812.007	21001
812.148	20906
812.29	20971
812.431	21119
812.573	21256
812.714	21344
812.855	21389
812.997	21526
813.138	21694
813.279	21599
813.421	21526
813.562	21367
813.703	21275
813.845	21047
813.986	20842
814.127	20724
814.268	20594
814.41	20526
814.551	20427
814.692	20473
814.833	20488
814.974	20465
815.115	20541
815.256	20301
815.397	20442
815.539	20423
815.68	20202
815.821	20187
815.962	20290
816.103	20240
816.244	20176
816.385	19982
816.526	19959
816.666	19757
816.807	19719
816.948	19776
817.089	19715
817.23	19693
817.371	19651
817.512	19609
817.653	19674
817.793	19559
817.934	19643
818.075	19491
818.216	19655
818.356	19521
818.497	19445
818.638	19362
818.778	19331
818.919	19343
819.06	19343
819.2	19449
819.341	19438
819.481	19563
819.622	19582
819.762	19818
819.903	19875
820.043	19700
820.184	19613
820.324	19567
820.465	19799
820.605	19590
820.746	19590
820.886	19449
821.026	19655
821.167	19533
821.307	19742
821.447	19586
821.588	19476
821.728	19343
821.868	19198
822.008	19103
822.149	19076
822.289	19053
822.429	18798
822.569	18646
822.709	18707
822.849	18429
822.99	18559
823.13	18525
823.27	18467
823.41	18361
823.55	18323
823.69	18323
823.83	18319
823.97	18311
824.11	18015
824.25	18003
824.389	18098
824.529	18239
824.669	18144
824.809	18197
824.949	18205
825.089	18045
825.228	17927
825.368	17821
825.508	17908
825.648	17847
825.787	17904
825.927	17889
826.067	17790
826.206	17809
826.346	17992
826.485	17783
826.625	17851
826.765	17882
826.904	17832
827.044	17570
827.183	17520
827.323	17452
827.462	17646
827.601	17490
827.741	17581
827.88	17467
828.02	17505
828.159	17547
828.298	17566
828.437	17532
828.577	17596
828.716	17672
828.855	17509
828.994	17231
829.134	17337
829.273	17322
829.412	17204
829.551	17204
829.69	17269
829.829	17322
829.968	17372
830.107	17341
830.246	17178
830.385	17200
830.524	17200
830.663	17079
830.802	16972
830.941	16946
831.08	16923
831.219	17018
831.357	17086
831.496	17083
831.635	16858
831.774	16809
831.913	16809
832.051	16672
832.19	16615
832.329	16691
832.467	16618
832.606	16512
832.744	16565
832.883	16497
833.022	16512
833.16	16535
833.299	16691
833.437	16645
833.576	16683
833.714	16580
833.852	16774
833.991	16580
834.129	16538
834.267	16672
834.406	16660
834.544	16550
834.682	16607
834.821	16599
834.959	16831
835.097	16634
835.235	16599
835.373	16710
835.511	16645
835.65	16489
835.788	16546
835.926	16428
836.064	16341
836.202	16402
836.34	16584
836.478	16634
836.615	16402
836.753	16592
836.891	16618
837.029	16554
837.167	16489
837.305	16417
837.443	16478
837.58	16375
837.718	16367
837.856	16447
837.993	16303
838.131	16413
838.269	16337
838.406	16318
838.544	16303
838.681	16029
838.819	16120
838.956	15850
839.094	15949
839.231	15979
839.369	16162
839.506	16386
839.643	16211
839.781	16063
839.918	15838
840.055	15930
840.193	15915
840.33	15888
840.467	15934
840.604	15949
840.742	16173
840.879	15812
841.016	15800
841.153	15770
841.29	15956
841.427	15876
841.564	16067
841.701	15892
841.838	15869
841.975	15812
842.112	15770
842.249	15732
842.385	15717
842.522	15918
842.659	15823
842.796	15629
842.933	15736
843.069	15660
843.206	15713
843.343	15759
843.479	15739
843.616	15781
843.752	15481
843.889	15538
844.025	15599
844.162	15500
844.298	15584
844.435	15488
844.571	15492
844.708	15515
844.844	15656
844.98	15618
845.117	15610
845.253	15450
845.389	15363
845.525	15431
845.661	15389
845.798	15237
845.934	15359
846.07	15211
846.206	15424
846.342	15435
846.478	15279
846.614	15188
846.75	15066
846.886	14979
847.022	15150
847.158	15036
847.294	15066
847.429	15165
847.565	15017
847.701	15317
847.837	14746
847.972	14762
848.108	14933
848.244	14891
848.379	14716
848.515	14651
848.65	14651
848.786	14625
848.921	14644
849.057	14716
849.192	14765
849.328	14826
849.463	14621
849.598	14606
849.734	14488
849.869	14495
850.004	14484
850.14	14492
850.275	14454
850.41	14377
850.545	14415
850.68	14476
850.815	14442
850.95	14431
851.085	14575
851.22	14526
851.355	14431
851.49	14396
851.625	14400
851.76	14366
851.895	14343
852.03	14256
852.165	14389
852.299	14431
852.434	14488
852.569	14454
852.703	14503
852.838	14522
852.973	14541
853.107	14579
853.242	14393
853.376	14434
853.511	14271
853.645	14210
853.78	14370
853.914	14396
854.048	14210
854.183	14206
854.317	14267
854.451	14408
854.585	14183
854.72	14191
854.854	14385
854.988	14199
855.122	14248
855.256	14138
855.39	14328
855.524	14400
855.658	14328
855.792	14294
855.926	14301
856.06	14301
856.194	14332
856.327	14355
856.461	14282
856.595	14145
856.729	14305
856.862	14450
856.996	14374
857.13	14336
857.263	14298
857.397	14480
857.53	14225
857.664	14431
857.797	14412
857.931	14442
858.064	14313
858.197	14393
858.331	14271
858.464	14145
858.597	14240
858.731	14313
858.864	14351
858.997	14271
859.13	14374
859.263	14358
859.396	14465
859.529	14240
859.662	14271
859.795	14275
859.928	14317
860.061	14408
860.194	14507
860.327	14263
860.46	14377
860.592	14480
860.725	14442
860.858	14381
860.99	14282
861.123	14282
861.256	14267
861.388	14324
861.521	14967
861.653	14164
861.786	14073
861.918	14233
862.05	14157
862.183	14142
862.315	14301
862.447	14419
862.58	14221
862.712	14111
862.844	13989
862.976	14126
863.108	14092
863.24	14374
863.372	14016
863.504	14031
863.636	14012
863.768	14062
863.9	14046
864.032	14020
864.164	14077
864.296	14123
864.428	14164
864.559	14206
864.691	14168
864.823	14176
864.954	14145
865.086	14084
865.217	14054
865.349	13887
865.48	14073
865.612	14084
865.743	14142
865.875	14084
866.006	14100
866.137	14111
866.269	14062
866.4	14058
866.531	14001
866.662	14008
866.793	14065
866.924	13993
867.055	14054
867.186	13940
867.317	14005
867.448	13898
867.579	13974
867.71	13925
867.841	13986
867.972	14096
868.103	14001
868.233	14077
868.364	14081
868.495	14062
868.625	14381
868.756	14336
868.886	14278
869.017	14301
869.147	14412
869.278	14450
869.408	14351
869.539	14218
869.669	14332
869.799	14355
869.929	14461
870.06	14431
870.19	14644
870.32	14522
870.45	14594
870.58	14727
870.71	14724
870.84	14746
870.97	14667
871.1	14743
871.23	14887
871.36	14952
871.489	14758
871.619	14819
871.749	14902
871.879	14891
872.008	14971
872.138	14792
872.267	14834
872.397	14735
872.526	14785
872.656	14689
872.785	14735
872.915	14910
873.044	15047
873.173	14986
873.303	15070
873.432	14956
873.561	15017
873.69	14998
873.819	14986
873.948	15119
874.077	14887
874.206	14872
874.335	14994
874.464	15161
874.593	15226
874.722	15161
874.851	15325
874.979	15176
875.108	15363
875.237	15283
875.365	15165
875.494	15298
875.623	15325
875.751	15298
875.88	15272
876.008	15367
876.136	15443
876.265	15663
876.393	15838
876.521	15717
876.65	15759
876.778	15637
876.906	15614
877.034	15622
877.162	15591
877.29	15549
877.418	15618
877.546	15656
877.674	15694
877.802	15686
877.93	15705
878.058	15523
878.185	15633
878.313	15625
878.441	15644
878.568	15424
878.696	15644
878.824	15739
878.951	15732
879.079	15911
879.206	15998
879.333	15793
879.461	15622
879.588	15728
879.715	15850
879.842	15922
879.97	15789
880.097	15530
880.224	15477
880.351	15545
880.478	15576
880.605	15545
880.732	15507
880.859	15778
880.986	15515
881.112	15504
881.239	15378
881.366	15260
881.493	15226
881.619	15138
881.746	15138
881.872	15157
881.999	15157
882.125	15089
882.252	15142
882.378	15272
882.505	15245
882.631	15070
882.757	14921
882.883	15142
883.01	14994
883.136	14925
883.262	14899
883.388	14845
883.514	15085
883.64	15127
883.766	14998
883.892	14792
884.018	14845
884.143	14845
884.269	15112
884.395	14686
884.52	14716
884.646	14705
884.772	14594
884.897	14617
885.023	14796
885.148	14727
885.274	14823
885.399	14765
885.524	14621
885.65	14804
885.775	14705
885.9	14613
886.025	14887
886.15	14743
886.275	14731
886.4	14579
886.525	14697
886.65	14583
886.775	14632
886.9	14796
887.025	14914
887.149	14731
887.274	14530
887.399	14541
887.523	14530
887.648	14442
887.773	14412
887.897	14571
888.021	14587
888.146	14461
888.27	14454
888.395	14701
888.519	14556
888.643	14598
888.767	14514
888.891	14518
889.015	14385
889.139	14518
889.263	14332
889.387	14492
889.511	14571
889.635	14606
889.759	14370
889.883	14461
890.006	14404
890.13	14488
890.254	14286
890.377	14305
890.501	14240
890.624	14199
890.748	14256
890.871	14111
890.995	14024
891.118	14001
891.241	14027
891.364	14168
891.488	14290
891.611	14031
891.734	14073
891.857	14191
891.98	14221
892.103	14092
892.226	14142
892.349	14115
892.471	13849
892.594	14103
892.717	14123
892.839	14050
892.962	14058
893.085	14119
893.207	14035
893.33	14035
893.452	14035
893.575	14157
893.697	14084
893.819	14301
893.941	14336
894.064	14206
894.186	14054
894.308	14008
894.43	14214
894.552	14256
894.674	14259
894.796	14138
894.918	14111
895.04	14229
895.161	14202
895.283	14191
895.405	14111
895.526	14123
895.648	14145
895.769	14225
895.891	14240
896.012	14347
896.134	14278
896.255	14225
896.376	14191
896.498	14309
896.619	14355
896.74	14240
896.861	14385
896.982	14594
897.103	14686
897.224	14606
897.345	14541
897.466	14503
897.587	14598
897.708	14712
897.828	14492
897.949	14465
898.07	14415
898.19	14571
898.311	14693
898.431	14560
898.552	14629
898.672	14682
898.792	14716
898.913	14716
899.033	14571
899.153	14503
899.273	14389
899.393	14499
899.513	14484
899.633	14423
899.753	14511
899.873	14431
899.993	14545
900.113	14408
900.232	14575
900.352	14358
900.472	14355
900.591	14301
900.711	14396
900.83	14259
900.95	14571
901.069	14514
901.189	14313
901.308	14012
901.427	13970
901.546	14050
901.665	14020
901.784	14062
901.904	13997
902.023	13795
902.141	13655
902.26	13556
902.379	13643
902.498	13655
902.617	13552
902.735	13662
902.854	13578
902.973	13491
903.091	13293
903.21	13301
903.328	13369
903.446	13247
903.565	13164
903.683	13160
903.801	13053
903.919	13164
904.038	13168
904.156	13008
904.274	12981
904.392	12947
904.51	12951
904.627	12989
904.745	12970
904.863	13091
904.981	12753
905.098	12658
905.216	12509
905.334	12757
905.451	12627
905.569	12604
905.686	12738
905.803	12623
905.921	12399
906.038	12570
906.155	12456
906.272	12372
906.389	12426
906.506	12205
906.623	12228
906.74	12258
906.857	12079
906.974	12159
907.091	12350
907.208	12414
907.324	12258
907.441	12182
907.557	11969
907.674	11939
907.79	11946
907.907	12041
908.023	11999
908.139	12057
908.256	12083
908.372	11874
908.488	11855
908.604	11824
908.72	11718
908.836	11779
908.952	11737
909.068	11794
909.184	11893
909.3	11710
909.415	11836
909.531	11783
909.647	11589
909.762	11543
909.878	11497
909.993	11543
910.108	11566
910.224	11532
910.339	11448
910.454	11471
910.57	11391
910.685	11265
910.8	11657
910.915	11414
911.03	11402
911.145	11216
911.259	11216
911.374	11181
911.489	11136
911.604	11105
911.718	10987
911.833	11018
911.947	10843
912.062	10797
912.176	10930
912.291	10862
912.405	10934
912.519	11121
912.633	11090
912.748	10965
912.862	11014
912.976	10805
913.09	10744
913.204	10744
913.318	10892
913.431	10919
913.545	10934
913.659	11056
913.772	10854
913.886	10714
914	10656
914.113	10911
914.226	10900
914.34	10828
914.453	10725
914.566	10809
914.68	10687
914.793	10554
914.906	10508
915.019	10417
915.132	10409
915.245	10402
915.358	10485
915.47	10519
915.583	10577
915.696	10531
915.809	10615
915.921	10634
916.034	10455
916.146	10443
916.259	10348
916.371	10596
916.483	10523
916.595	10398
916.708	10360
916.82	10440
916.932	10436
917.044	10447
917.156	10314
917.268	10227
917.38	10299
917.491	10234
917.603	10325
917.715	10402
917.826	10489
917.938	10348
918.049	10238
918.161	10280
918.272	10489
918.384	10413
918.495	10261
918.606	10196
918.717	10181
918.828	10150
918.939	10257
919.05	10071
919.161	10162
919.272	9994
919.383	10131
919.494	10219
919.604	10390
919.715	10306
919.826	10131
919.936	10219
920.047	10371
920.157	10284
920.267	10409
920.378	10276
920.488	10303
920.598	10402
920.708	10554
920.818	10413
920.928	10443
921.038	10573
921.148	10538
921.258	10280
921.368	10128
921.477	10204
921.587	10036
921.697	9964
921.806	10116
921.916	9979
922.025	9899
922.134	9804
922.244	9762
922.353	9827
922.462	9724
922.571	9671
922.68	9515
922.789	9435
922.898	9492
923.007	9469
923.116	9561
923.224	9500
923.333	9572
923.442	9428
923.55	9412
923.659	9458
923.767	9454
923.876	9370
923.984	9401
924.092	9325
924.201	9367
924.309	9389
924.417	9393
924.525	9291
924.633	9348
924.741	10227
924.849	9112
924.956	9268
925.064	9135
925.172	9097
925.279	9104
925.387	9207
925.494	9214
925.602	9302
925.709	9230
925.816	9116
925.924	9207
926.031	9245
926.138	9161
926.245	9176
926.352	9051
926.459	9256
926.566	9218
926.673	9116
926.779	8990
926.886	8998
926.993	8933
927.099	8918
927.206	8845
927.312	8788
927.419	8948
927.525	8857
927.631	8937
927.737	8842
927.843	8746
927.95	8701
928.056	8762
928.162	8785
928.267	8857
928.373	9370
928.479	8876
928.585	8689
928.69	8811
928.796	8823
928.901	8724
929.007	8579
929.112	8644
929.218	8617
929.323	8636
929.428	8617
929.533	8766
929.638	8530
929.743	8533
929.848	8651
929.953	8594
930.058	8499
930.163	8309
930.267	8366
930.372	8522
930.477	8324
930.581	8579
930.685	8457
930.79	8313
930.894	8294
930.998	8317
931.103	8412
931.207	8054
931.311	8077
931.415	7947
931.519	7811
931.623	7868
