Data from test_V78500241_111.txt Node
Date: Fri Mar 25 14:34:29 CST 2022
User: usil
Spectrometer: V785-0024
Trigger mode: 0
Integration Time (sec): 4.000000E-1
Scans to average: 1
Nonlinearity correction enabled: false
Boxcar width: 0
Storing dark spectrum: false
XAxis mode: Wavelengths
Number of Pixels in Spectrum: 1024
>>>>>Begin Spectral Data<<<<<
801.071	30578
801.214	30486
801.356	30338
801.499	30030
801.641	30106
801.783	29999
801.926	30087
802.068	30087
802.211	30034
802.353	29996
802.496	29901
802.638	29775
802.78	29786
802.923	29813
803.065	29684
803.208	29802
803.35	29859
803.492	30034
803.635	30098
803.777	29897
803.919	30087
804.061	30437
804.204	30213
804.346	30045
804.488	30197
804.63	30277
804.773	30068
804.915	30308
805.057	30292
805.199	30338
805.341	30372
805.483	30448
805.626	30513
805.768	30414
805.91	30635
806.052	30540
806.194	30547
806.336	30977
806.478	31053
806.62	30897
806.762	31209
806.904	31605
807.046	31849
807.188	31906
807.33	31982
807.472	32294
807.614	32507
807.756	33047
807.898	33538
808.04	34177
808.182	35250
808.324	36418
808.465	37795
808.607	39279
808.749	40576
808.891	41497
809.033	41726
809.174	40542
809.316	39291
809.458	37765
809.6	35942
809.741	35044
809.883	33964
810.025	33622
810.166	32925
810.308	32583
810.45	32301
810.591	31963
810.733	31723
810.875	31605
811.016	31400
811.158	31346
811.299	31236
811.441	31282
811.582	31076
811.724	30973
811.865	30981
812.007	30932
812.148	30833
812.29	30886
812.431	30878
812.573	31099
812.714	31175
812.855	31304
812.997	31225
813.138	31381
813.279	31335
813.421	31114
813.562	31012
813.703	30909
813.845	30806
813.986	30407
814.127	30311
814.268	30152
814.41	30205
814.551	30216
814.692	30266
814.833	30030
814.974	30060
815.115	30076
815.256	29996
815.397	29874
815.539	29969
815.68	29859
815.821	29805
815.962	29767
816.103	29676
816.244	29554
816.385	29516
816.526	29474
816.666	29105
816.807	28908
816.948	29136
817.089	29235
817.23	29193
817.371	29117
817.512	29109
817.653	29117
817.793	28904
817.934	29090
818.075	29010
818.216	29018
818.356	29102
818.497	28809
818.638	28675
818.778	28888
818.919	28691
819.06	28919
819.2	28862
819.341	29079
819.481	28911
819.622	29060
819.762	29398
819.903	29235
820.043	29136
820.184	29006
820.324	29033
820.465	29086
820.605	28930
820.746	29064
820.886	28660
821.026	28987
821.167	28866
821.307	28968
821.447	28820
821.588	28653
821.728	28622
821.868	28367
822.008	28246
822.149	28253
822.289	28280
822.429	28067
822.569	27865
822.709	27922
822.849	27759
822.99	27671
823.13	27720
823.27	27713
823.41	27523
823.55	27294
823.69	27427
823.83	27435
823.97	27279
824.11	27382
824.25	27344
824.389	27157
824.529	27336
824.669	27218
824.809	27363
824.949	27317
825.089	27363
825.228	27195
825.368	26887
825.508	27058
825.648	26944
825.787	27093
825.927	26956
826.067	27020
826.206	27028
826.346	27055
826.485	27028
826.625	27032
826.765	27161
826.904	27157
827.044	26868
827.183	26686
827.323	26750
827.462	26746
827.601	26727
827.741	26727
827.88	26678
828.02	26598
828.159	26571
828.298	26705
828.437	26724
828.577	26625
828.716	26613
828.855	26488
828.994	26358
829.134	26484
829.273	26286
829.412	26336
829.551	26183
829.69	26301
829.829	26351
829.968	26389
830.107	26381
830.246	26309
830.385	26271
830.524	26282
830.663	26054
830.802	26069
830.941	25887
831.08	25871
831.219	26081
831.357	26054
831.496	26031
831.635	25959
831.774	25887
831.913	25830
832.051	25795
832.19	25693
832.329	25757
832.467	25666
832.606	25594
832.744	25594
832.883	25601
833.022	25620
833.16	25696
833.299	25852
833.437	25689
833.576	25898
833.714	26039
833.852	26138
833.991	26046
834.129	26149
834.267	26176
834.406	26012
834.544	26027
834.682	25890
834.821	25860
834.959	25947
835.097	25795
835.235	25700
835.373	25693
835.511	25616
835.65	25529
835.788	25445
835.926	25392
836.064	25160
836.202	25236
836.34	25384
836.478	25495
836.615	25289
836.753	25369
836.891	25331
837.029	25312
837.167	25247
837.305	25327
837.443	25148
837.58	25183
837.718	25175
837.856	25232
837.993	25061
838.131	25034
838.269	24928
838.406	25053
838.544	24859
838.681	24909
838.819	24844
838.956	24513
839.094	24563
839.231	24604
839.369	24684
839.506	24886
839.643	24730
839.781	24445
839.918	24490
840.055	24555
840.193	24334
840.33	24334
840.467	24418
840.604	24403
840.742	24559
840.879	24182
841.016	24281
841.153	24235
841.29	24490
841.427	24296
841.564	24251
841.701	24319
841.838	24235
841.975	24273
842.112	24262
842.249	24296
842.385	24285
842.522	24285
842.659	24041
842.796	23999
842.933	24095
843.069	24068
843.206	24053
843.343	24190
843.479	24270
843.616	24190
843.752	24015
843.889	23988
844.025	24087
844.162	24034
844.298	24102
844.435	24174
844.571	24133
844.708	24395
844.844	24608
844.98	24840
845.117	24981
845.253	25369
845.389	26161
845.525	27679
845.661	30213
845.798	33325
845.934	35843
846.07	36680
846.206	36315
846.342	34375
846.478	31046
846.614	28280
846.75	26332
846.886	25343
847.022	24810
847.158	24323
847.294	23939
847.429	23878
847.565	23687
847.701	23741
847.837	23212
847.972	23136
848.108	23174
848.244	23212
848.379	22904
848.515	22816
848.65	22854
848.786	22972
848.921	22942
849.057	23022
849.192	22991
849.328	22930
849.463	22744
849.598	22835
849.734	22687
849.869	22664
850.004	22531
850.14	22531
850.275	22550
850.41	22523
850.545	22519
850.68	22440
850.815	22599
850.95	22348
851.085	22611
851.22	22603
851.355	22542
851.49	22527
851.625	22447
851.76	22580
851.895	22500
852.03	22268
852.165	22440
852.299	22428
852.434	22672
852.569	22565
852.703	22523
852.838	22645
852.973	22698
853.107	22626
853.242	22523
853.376	22314
853.511	22322
853.645	22280
853.78	22641
853.914	22440
854.048	22485
854.183	22493
854.317	22459
854.451	22721
854.585	22508
854.72	22462
854.854	22622
854.988	22363
855.122	22459
855.256	22287
855.39	22424
855.524	22402
855.658	22276
855.792	22390
855.926	22375
856.06	22485
856.194	22375
856.327	22348
856.461	22261
856.595	22238
856.729	22314
856.862	22348
856.996	22341
857.13	22360
857.263	22382
857.397	22226
857.53	22257
857.664	22333
857.797	22162
857.931	22318
858.064	22246
858.197	22276
858.331	22265
858.464	22257
858.597	22143
858.731	22070
858.864	22048
858.997	22101
859.13	22055
859.263	22097
859.396	22249
859.529	22219
859.662	22055
859.795	22204
859.928	22230
860.061	22188
860.194	22303
860.327	22128
860.46	22166
860.592	22158
860.725	22166
860.858	22211
860.99	22147
861.123	22025
861.256	22048
861.388	22162
861.521	22797
861.653	22040
861.786	22040
861.918	22006
862.05	22124
862.183	22169
862.315	22234
862.447	22284
862.58	22223
862.712	21884
862.844	21918
862.976	21915
863.108	21991
863.24	22128
863.372	21804
863.504	21903
863.636	21781
863.768	21838
863.9	21701
864.032	21739
864.164	21835
864.296	21755
864.428	21793
864.559	21713
864.691	21808
864.823	21861
864.954	21831
865.086	21804
865.217	21728
865.349	21637
865.48	21698
865.612	21637
865.743	21690
865.875	21610
866.006	21587
866.137	21690
866.269	21682
866.4	21698
866.531	21671
866.662	21629
866.793	21542
866.924	21374
867.055	21492
867.186	21622
867.317	21488
867.448	21564
867.579	21538
867.71	21363
867.841	21507
867.972	21625
868.103	21511
868.233	21561
868.364	21580
868.495	21652
868.625	21766
868.756	21888
868.886	21880
869.017	21679
869.147	21903
869.278	21941
869.408	21766
869.539	21895
869.669	21857
869.799	21701
869.929	21968
870.06	21907
870.19	22143
870.32	22097
870.45	22116
870.58	22234
870.71	22188
870.84	22363
870.97	22284
871.1	22215
871.23	22424
871.36	22481
871.489	22329
871.619	22413
871.749	22371
871.879	22599
872.008	22573
872.138	22538
872.267	22417
872.397	22371
872.526	22322
872.656	22436
872.785	22242
872.915	22519
873.044	22607
873.173	22443
873.303	22561
873.432	22584
873.561	22679
873.69	22573
873.819	22569
873.948	22698
874.077	22607
874.206	22580
874.335	22573
874.464	22801
874.593	22984
874.722	22930
874.851	23056
874.979	23003
875.108	23060
875.237	22972
875.365	22900
875.494	22942
875.623	23094
875.751	22957
875.88	23151
876.008	23200
876.136	23383
876.265	23379
876.393	23676
876.521	23604
876.65	23771
876.778	23623
876.906	23596
877.034	23653
877.162	23722
877.29	23634
877.418	23729
877.546	23661
877.674	23737
877.802	23992
877.93	23882
878.058	23973
878.185	23942
878.313	24266
878.441	24445
878.568	24353
878.696	24696
878.824	25148
878.951	25616
879.079	26488
879.206	27504
879.333	28428
879.461	29193
879.588	29638
879.715	29676
879.842	29402
879.97	28299
880.097	27252
880.224	26309
880.351	25913
880.478	25635
880.605	25301
880.732	25194
880.859	25168
880.986	24943
881.112	24962
881.239	24779
881.366	24745
881.493	24528
881.619	24380
881.746	24445
881.872	24570
881.999	24445
882.125	24357
882.252	24585
882.378	24460
882.505	24787
882.631	24445
882.757	24273
882.883	24300
883.01	24342
883.136	24205
883.262	24159
883.388	24125
883.514	24247
883.64	24201
883.766	24311
883.892	24007
884.018	24098
884.143	24201
884.269	24163
884.395	24015
884.52	23939
884.646	23923
884.772	23866
884.897	23939
885.023	23897
885.148	23954
885.274	23996
885.399	23813
885.524	23771
885.65	23699
885.775	23741
885.9	23554
886.025	23665
886.15	23554
886.275	23379
886.4	23178
886.525	23246
886.65	23136
886.775	23033
886.9	23178
887.025	23250
887.149	22980
887.274	22717
887.399	22577
887.523	22512
887.648	22550
887.773	22580
887.897	22607
888.021	22557
888.146	22371
888.27	22546
888.395	22398
888.519	22375
888.643	22390
888.767	22344
888.891	22215
889.015	22044
889.139	22261
889.263	21991
889.387	22188
889.511	22223
889.635	22048
889.759	21983
889.883	21975
890.006	21941
890.13	22017
890.254	21774
890.377	21831
890.501	21743
890.624	21705
890.748	21781
890.871	21473
890.995	21435
891.118	21359
891.241	21469
891.364	21412
891.488	21329
891.611	21393
891.734	21412
891.857	21393
891.98	21321
892.103	21408
892.226	21241
892.349	21268
892.471	21070
892.594	21142
892.717	21093
892.839	21081
892.962	21123
893.085	21207
893.207	21001
893.33	21020
893.452	21058
893.575	20982
893.697	20918
893.819	21237
893.941	21218
894.064	21081
894.186	20933
894.308	20948
894.43	20944
894.552	21043
894.674	20971
894.796	20705
894.918	20815
895.04	20826
895.161	20982
895.283	20804
895.405	20826
895.526	20800
895.648	20746
895.769	20857
895.891	20777
896.012	20781
896.134	20826
896.255	20777
896.376	20796
896.498	20731
896.619	20788
896.74	20773
896.861	20880
896.982	21104
897.103	21188
897.224	21074
897.345	20944
897.466	20971
897.587	20975
897.708	21085
897.828	20933
897.949	20842
898.07	20712
898.19	20864
898.311	20914
898.431	20883
898.552	20842
898.672	20785
898.792	20895
898.913	20857
899.033	20708
899.153	20678
899.273	20393
899.393	20469
899.513	20549
899.633	20465
899.753	20488
899.873	20370
899.993	20556
900.113	20412
900.232	20434
900.352	20404
900.472	20328
900.591	20096
900.711	20339
900.83	20271
900.95	20396
901.069	20450
901.189	20142
901.308	19978
901.427	19837
901.546	19852
901.665	19769
901.784	19776
901.904	19719
902.023	19567
902.141	19324
902.26	19339
902.379	19422
902.498	19312
902.617	19221
902.735	19335
902.854	19247
902.973	19175
903.091	19023
903.21	19000
903.328	18871
903.446	18863
903.565	18798
903.683	18875
903.801	18719
903.919	18776
904.038	18817
904.156	18547
904.274	18753
904.392	18673
904.51	18513
904.627	18559
904.745	18593
904.863	18521
904.981	18361
905.098	18144
905.216	18148
905.334	18319
905.451	18178
905.569	18106
905.686	18239
905.803	18243
905.921	18011
906.038	18098
906.155	18072
906.272	17935
906.389	17809
906.506	17756
906.623	17745
906.74	17726
906.857	17604
906.974	17604
907.091	17764
907.208	17821
907.324	17748
907.441	17634
907.557	17486
907.674	17429
907.79	17322
907.907	17303
908.023	17440
908.139	17353
908.256	17402
908.372	17318
908.488	17307
908.604	17143
908.72	17170
908.836	17098
908.952	17025
909.068	17094
909.184	17143
909.3	17010
909.415	17136
909.531	17094
909.647	16873
909.762	16771
909.878	16752
909.993	16843
910.108	16782
910.224	16626
910.339	16752
910.454	16607
910.57	16592
910.685	16573
910.8	16877
910.915	16683
911.03	16516
911.145	16398
911.259	16459
911.374	16405
911.489	16356
911.604	16238
911.718	16059
911.833	16143
911.947	16032
912.062	15972
912.176	16048
912.291	16082
912.405	15994
912.519	16246
912.633	16310
912.748	16200
912.862	16101
912.976	15892
913.09	15755
913.204	15899
913.318	15922
913.431	15956
913.545	15960
913.659	15949
913.772	15880
913.886	15762
914	15835
914.113	15876
914.226	15876
914.34	15743
914.453	15698
914.566	15755
914.68	15633
914.793	15538
914.906	15492
915.019	15332
915.132	15249
915.245	15355
915.358	15401
915.47	15370
915.583	15363
915.696	15332
915.809	15492
915.921	15519
916.034	15378
916.146	15287
916.259	15169
916.371	15367
916.483	15260
916.595	15245
916.708	15165
916.82	15169
916.932	15104
917.044	15116
917.156	15085
917.268	14979
917.38	15020
917.491	14971
917.603	15020
917.715	15085
917.826	15108
917.938	14883
918.049	14785
918.161	14956
918.272	15028
918.384	15024
918.495	14902
918.606	14716
918.717	14701
918.828	14708
918.939	14705
919.05	14564
919.161	14629
919.272	14469
919.383	14564
919.494	14750
919.604	14804
919.715	14621
919.826	14465
919.936	14530
920.047	14727
920.157	14568
920.267	14727
920.378	14583
920.488	14579
920.598	14777
920.708	14834
920.818	14765
920.928	14648
921.038	14876
921.148	14838
921.258	14495
921.368	14579
921.477	14347
921.587	14332
921.697	14218
921.806	14374
921.916	14164
922.025	14005
922.134	13993
922.244	13875
922.353	14024
922.462	13890
922.571	13757
922.68	13632
922.789	13586
922.898	13632
923.007	13464
923.116	13567
923.224	13563
923.333	13491
923.442	13483
923.55	13411
923.659	13369
923.767	13491
923.876	13327
923.984	13453
924.092	13236
924.201	13384
924.309	13384
924.417	13301
924.525	13213
924.633	13213
924.741	14107
924.849	13076
924.956	13183
925.064	12924
925.172	12909
925.279	12958
925.387	13053
925.494	12886
925.602	13122
925.709	13004
925.816	12878
925.924	12935
926.031	13008
926.138	12973
926.245	12909
926.352	12806
926.459	12951
926.566	12966
926.673	12909
926.779	12764
926.886	12681
926.993	12555
927.099	12536
927.206	12422
927.312	12490
927.419	12601
927.525	12547
927.631	12635
927.737	12441
927.843	12433
927.95	12254
928.056	12327
928.162	12403
928.267	12414
928.373	12871
928.479	12452
928.585	12201
928.69	12262
928.796	12338
928.901	12155
929.007	12110
929.112	12155
929.218	12235
929.323	12060
929.428	12015
929.533	12182
929.638	11999
929.743	12144
929.848	12060
929.953	12087
930.058	11889
930.163	11668
930.267	11847
930.372	11904
930.477	11710
930.581	11916
930.685	11745
930.79	11547
930.894	11672
930.998	11570
931.103	11665
931.207	11421
931.311	11311
931.415	11162
931.519	10949
931.623	10892
