Data from test_V78500241_2190.txt Node
Date: Fri Mar 25 14:48:57 CST 2022
User: usil
Spectrometer: V785-0024
Trigger mode: 0
Integration Time (sec): 4.000000E-1
Scans to average: 1
Nonlinearity correction enabled: false
Boxcar width: 0
Storing dark spectrum: false
XAxis mode: Wavelengths
Number of Pixels in Spectrum: 1024
>>>>>Begin Spectral Data<<<<<
801.071	22200
801.214	21975
801.356	21774
801.499	21724
801.641	21576
801.783	21599
801.926	21496
802.068	21534
802.211	21363
802.353	21218
802.496	21173
802.638	21047
802.78	20956
802.923	20979
803.065	20758
803.208	20845
803.35	20906
803.492	20963
803.635	20971
803.777	20842
803.919	20937
804.061	21294
804.204	20929
804.346	20758
804.488	20743
804.63	20921
804.773	20712
804.915	20807
805.057	20765
805.199	20727
805.341	20773
805.483	20895
805.626	20937
805.768	20807
805.91	20708
806.052	20857
806.194	20735
806.336	20876
806.478	20724
806.62	20724
806.762	20880
806.904	21028
807.046	21226
807.188	21188
807.33	21131
807.472	21165
807.614	20990
807.756	21062
807.898	20918
808.04	20849
808.182	20925
808.324	20895
808.465	20887
808.607	21195
808.749	21233
808.891	21173
809.033	21359
809.174	21275
809.316	21226
809.458	21138
809.6	21237
809.741	21355
809.883	21157
810.025	21401
810.166	21329
810.308	21306
810.45	21249
810.591	21142
810.733	20960
810.875	20914
811.016	20971
811.158	20895
811.299	20979
811.441	21074
811.582	21043
811.724	20979
811.865	20823
812.007	20895
812.148	20967
812.29	20910
812.431	21055
812.573	21184
812.714	21325
812.855	21443
812.997	21435
813.138	21686
813.279	21637
813.421	21561
813.562	21466
813.703	21291
813.845	21017
813.986	20819
814.127	20609
814.268	20648
814.41	20541
814.551	20511
814.692	20594
814.833	20412
814.974	20400
815.115	20324
815.256	20290
815.397	20332
815.539	20313
815.68	20191
815.821	20122
815.962	20271
816.103	20149
816.244	19997
816.385	19978
816.526	19906
816.666	19811
816.807	19624
816.948	19750
817.089	19780
817.23	19643
817.371	19677
817.512	19575
817.653	19582
817.793	19594
817.934	19609
818.075	19563
818.216	19670
818.356	19639
818.497	19331
818.638	19240
818.778	19362
818.919	19312
819.06	19438
819.2	19567
819.341	19426
819.481	19521
819.622	19563
819.762	19803
819.903	19693
820.043	19666
820.184	19635
820.324	19544
820.465	19761
820.605	19689
820.746	19571
820.886	19430
821.026	19495
821.167	19483
821.307	19563
821.447	19578
821.588	19460
821.728	19152
821.868	19217
822.008	19027
822.149	19160
822.289	19000
822.429	18909
822.569	18650
822.709	18642
822.849	18521
822.99	18452
823.13	18460
823.27	18471
823.41	18270
823.55	18372
823.69	18266
823.83	18372
823.97	18304
824.11	17999
824.25	18095
824.389	17984
824.529	18125
824.669	18205
824.809	18228
824.949	18213
825.089	18106
825.228	18106
825.368	17859
825.508	17988
825.648	17942
825.787	18007
825.927	17977
826.067	17840
826.206	17817
826.346	17893
826.485	17889
826.625	17836
826.765	17946
826.904	17901
827.044	17611
827.183	17699
827.323	17623
827.462	17726
827.601	17653
827.741	17623
827.88	17653
828.02	17520
828.159	17558
828.298	17562
828.437	17672
828.577	17501
828.716	17653
828.855	17509
828.994	17231
829.134	17322
829.273	17444
829.412	17288
829.551	17337
829.69	17292
829.829	17296
829.968	17429
830.107	17376
830.246	17372
830.385	17216
830.524	17193
830.663	17113
830.802	17014
830.941	16892
831.08	16850
831.219	17006
831.357	16942
831.496	17155
831.635	16820
831.774	16793
831.913	16767
832.051	16637
832.19	16668
832.329	16790
832.467	16668
832.606	16565
832.744	16622
832.883	16504
833.022	16618
833.16	16634
833.299	16717
833.437	16573
833.576	16615
833.714	16672
833.852	16698
833.991	16660
834.129	16618
834.267	16786
834.406	16717
834.544	16656
834.682	16679
834.821	16611
834.959	16877
835.097	16603
835.235	16702
835.373	16683
835.511	16596
835.65	16538
835.788	16611
835.926	16333
836.064	16356
836.202	16367
836.34	16546
836.478	16596
836.615	16459
836.753	16569
836.891	16599
837.029	16645
837.167	16462
837.305	16493
837.443	16459
837.58	16375
837.718	16485
837.856	16554
837.993	16299
838.131	16447
838.269	16329
838.406	16325
838.544	16268
838.681	16059
838.819	16074
838.956	15865
839.094	15975
839.231	16067
839.369	16078
839.506	16303
839.643	16097
839.781	15945
839.918	15926
840.055	16055
840.193	15994
840.33	15949
840.467	15987
840.604	16055
840.742	16135
840.879	15705
841.016	15888
841.153	15949
841.29	16135
841.427	16048
841.564	15960
841.701	15953
841.838	15857
841.975	15892
842.112	15888
842.249	15831
842.385	15739
842.522	15953
842.659	15797
842.796	15816
842.933	15762
843.069	15705
843.206	15694
843.343	15762
843.479	15660
843.616	15876
843.752	15519
843.889	15500
844.025	15709
844.162	15450
844.298	15660
844.435	15561
844.571	15549
844.708	15492
844.844	15713
844.98	15709
845.117	15663
845.253	15488
845.389	15412
845.525	15564
845.661	15447
845.798	15252
845.934	15294
846.07	15317
846.206	15416
846.342	15405
846.478	15344
846.614	15146
846.75	15085
846.886	14971
847.022	15165
847.158	15074
847.294	15131
847.429	15127
847.565	15142
847.701	15344
847.837	14921
847.972	14792
848.108	14956
848.244	14845
848.379	14754
848.515	14712
848.65	14678
848.786	14739
848.921	14785
849.057	14754
849.192	14754
849.328	14743
849.463	14720
849.598	14598
849.734	14686
849.869	14598
850.004	14556
850.14	14560
850.275	14423
850.41	14446
850.545	14415
850.68	14385
850.815	14571
850.95	14492
851.085	14610
851.22	14549
851.355	14442
851.49	14412
851.625	14419
851.76	14347
851.895	14446
852.03	14259
852.165	14450
852.299	14518
852.434	14492
852.569	14499
852.703	14568
852.838	14552
852.973	14575
853.107	14667
853.242	14438
853.376	14229
853.511	14195
853.645	14259
853.78	14480
853.914	14404
854.048	14347
854.183	14317
854.317	14423
854.451	14560
854.585	14374
854.72	14374
854.854	14427
854.988	14271
855.122	14332
855.256	14183
855.39	14187
855.524	14415
855.658	14377
855.792	14343
855.926	14336
856.06	14415
856.194	14408
856.327	14328
856.461	14275
856.595	14301
856.729	14294
856.862	14434
856.996	14377
857.13	14499
857.263	14476
857.397	14408
857.53	14328
857.664	14294
857.797	14442
857.931	14511
858.064	14351
858.197	14465
858.331	14282
858.464	14275
858.597	14191
858.731	14381
858.864	14244
858.997	14332
859.13	14362
859.263	14347
859.396	14415
859.529	14313
859.662	14355
859.795	14221
859.928	14412
860.061	14480
860.194	14571
860.327	14339
860.46	14355
860.592	14400
860.725	14442
860.858	14423
860.99	14244
861.123	14336
861.256	14298
861.388	14221
861.521	14906
861.653	14294
861.786	14248
861.918	14252
862.05	14343
862.183	14332
862.315	14248
862.447	14358
862.58	14313
862.712	14142
862.844	14119
862.976	14187
863.108	14138
863.24	14419
863.372	13986
863.504	14161
863.636	14123
863.768	14149
863.9	14115
864.032	14088
864.164	14001
864.296	14062
864.428	14225
864.559	14229
864.691	14195
864.823	14123
864.954	14050
865.086	14126
865.217	14035
865.349	14054
865.48	14103
865.612	14123
865.743	14195
865.875	14115
866.006	14050
866.137	14088
866.269	14130
866.4	13982
866.531	14077
866.662	14077
866.793	13974
866.924	14046
867.055	14046
867.186	14176
867.317	13963
867.448	13974
867.579	14058
867.71	13997
867.841	14005
867.972	14153
868.103	14103
868.233	13959
868.364	14008
868.495	14271
868.625	14320
868.756	14434
868.886	14252
869.017	14286
869.147	14552
869.278	14446
869.408	14400
869.539	14358
869.669	14446
869.799	14301
869.929	14412
870.06	14381
870.19	14655
870.32	14663
870.45	14663
870.58	14693
870.71	14918
870.84	14830
870.97	14708
871.1	14720
871.23	14796
871.36	14804
871.489	14853
871.619	14902
871.749	14918
871.879	15036
872.008	15055
872.138	14899
872.267	14880
872.397	14838
872.526	14781
872.656	14648
872.785	14686
872.915	14963
873.044	15104
873.173	15058
873.303	14994
873.432	14971
873.561	15024
873.69	14948
873.819	14963
873.948	15051
874.077	14887
874.206	14971
874.335	14982
874.464	15043
874.593	15374
874.722	15256
874.851	15230
874.979	15310
875.108	15412
875.237	15275
875.365	15264
875.494	15306
875.623	15355
875.751	15313
875.88	15317
876.008	15481
876.136	15530
876.265	15694
876.393	15865
876.521	15884
876.65	15804
876.778	15778
876.906	15633
877.034	15599
877.162	15732
877.29	15610
877.418	15709
877.546	15644
877.674	15713
877.802	15656
877.93	15652
878.058	15656
878.185	15648
878.313	15648
878.441	15705
878.568	15625
878.696	15584
878.824	15675
878.951	15736
879.079	15888
879.206	16120
879.333	15934
879.461	15743
879.588	15793
879.715	15895
879.842	16067
879.97	15701
880.097	15591
880.224	15561
880.351	15477
880.478	15587
880.605	15507
880.732	15492
880.859	15766
880.986	15690
881.112	15644
881.239	15348
881.366	15329
881.493	15275
881.619	15176
881.746	15245
881.872	15245
881.999	15154
882.125	15138
882.252	15226
882.378	15222
882.505	15515
882.631	15169
882.757	14975
882.883	15119
883.01	14994
883.136	14994
883.262	14956
883.388	14899
883.514	15093
883.64	15100
883.766	15047
883.892	14880
884.018	14754
884.143	14975
884.269	15135
884.395	14697
884.52	14545
884.646	14712
884.772	14632
884.897	14602
885.023	14743
885.148	14895
885.274	14849
885.399	14777
885.524	14636
885.65	14731
885.775	14754
885.9	14708
886.025	14773
886.15	14804
886.275	14705
886.4	14636
886.525	14693
886.65	14648
886.775	14682
886.9	14880
887.025	14971
887.149	14674
887.274	14530
887.399	14507
887.523	14552
887.648	14549
887.773	14393
887.897	14667
888.021	14606
888.146	14514
888.27	14648
888.395	14632
888.519	14602
888.643	14590
888.767	14568
888.891	14511
889.015	14499
889.139	14465
889.263	14434
889.387	14507
889.511	14632
889.635	14549
889.759	14351
889.883	14415
890.006	14446
890.13	14552
890.254	14320
890.377	14412
890.501	14202
890.624	14263
890.748	14317
890.871	14081
890.995	14115
891.118	14107
891.241	14153
891.364	14088
891.488	14233
891.611	14142
891.734	14043
891.857	14119
891.98	14164
892.103	14138
892.226	14115
892.349	14081
892.471	13944
892.594	14088
892.717	14172
892.839	14111
892.962	14149
893.085	14252
893.207	14123
893.33	13997
893.452	13967
893.575	14214
893.697	14138
893.819	14294
893.941	14256
894.064	14278
894.186	14183
894.308	14046
894.43	14180
894.552	14298
894.674	14336
894.796	14100
894.918	14130
895.04	14073
895.161	14183
895.283	14286
895.405	14062
895.526	14191
895.648	14240
895.769	14336
895.891	14176
896.012	14282
896.134	14164
896.255	14252
896.376	14328
896.498	14328
896.619	14381
896.74	14313
896.861	14351
896.982	14602
897.103	14849
897.224	14579
897.345	14587
897.466	14469
897.587	14514
897.708	14594
897.828	14636
897.949	14590
898.07	14454
898.19	14610
898.311	14697
898.431	14610
898.552	14682
898.672	14796
898.792	14762
898.913	14750
899.033	14549
899.153	14503
899.273	14347
899.393	14473
899.513	14556
899.633	14492
899.753	14503
899.873	14431
899.993	14480
900.113	14552
900.232	14495
900.352	14488
900.472	14358
900.591	14332
900.711	14404
900.83	14313
900.95	14522
901.069	14575
901.189	14275
901.308	14069
901.427	14050
901.546	14073
901.665	14065
901.784	14069
901.904	13917
902.023	13769
902.141	13643
902.26	13609
902.379	13613
902.498	13647
902.617	13594
902.735	13670
902.854	13620
902.973	13636
903.091	13373
903.21	13335
903.328	13392
903.446	13263
903.565	13118
903.683	13209
903.801	13126
903.919	13103
904.038	13107
904.156	13099
904.274	13027
904.392	12943
904.51	13012
904.627	13046
904.745	13080
904.863	13118
904.981	12829
905.098	12738
905.216	12722
905.334	12711
905.451	12696
905.569	12738
905.686	12749
905.803	12639
905.921	12525
906.038	12662
906.155	12559
906.272	12433
906.389	12346
906.506	12273
906.623	12277
906.74	12197
906.857	12133
906.974	12163
907.091	12475
907.208	12456
907.324	12334
907.441	12178
907.557	12079
907.674	12015
907.79	11973
907.907	11950
908.023	11996
908.139	11980
908.256	11889
908.372	11950
908.488	11912
908.604	11821
908.72	11775
908.836	11760
908.952	11668
909.068	11813
909.184	11920
909.3	11809
909.415	11786
909.531	11779
909.647	11535
909.762	11619
909.878	11436
909.993	11585
910.108	11566
910.224	11440
910.339	11589
910.454	11436
910.57	11398
910.685	11315
910.8	11493
910.915	11528
911.03	11486
911.145	11311
911.259	11159
911.374	11269
911.489	11223
911.604	11117
911.718	11006
911.833	10968
911.947	10908
912.062	10889
912.176	11014
912.291	10987
912.405	11071
912.519	11178
912.633	11174
912.748	11029
912.862	11041
912.976	10900
913.09	10816
913.204	10748
913.318	10824
913.431	11079
913.545	10877
913.659	11025
913.772	10877
913.886	10835
914	10763
914.113	10877
914.226	10854
914.34	10820
914.453	10729
914.566	10729
914.68	10668
914.793	10714
914.906	10504
915.019	10538
915.132	10341
915.245	10508
915.358	10504
915.47	10550
915.583	10592
915.696	10584
915.809	10664
915.921	10584
916.034	10493
916.146	10379
916.259	10421
916.371	10546
916.483	10493
916.595	10481
916.708	10424
916.82	10352
916.932	10409
917.044	10428
917.156	10455
917.268	10249
917.38	10284
917.491	10257
917.603	10333
917.715	10413
917.826	10451
917.938	10287
918.049	10287
918.161	10333
918.272	10462
918.384	10500
918.495	10394
918.606	10242
918.717	10207
918.828	10257
918.939	10268
919.05	10181
919.161	10215
919.272	9975
919.383	10029
919.494	10257
919.604	10436
919.715	10196
919.826	10101
919.936	10185
920.047	10287
920.157	10227
920.267	10398
920.378	10246
920.488	10276
920.598	10398
920.708	10565
920.818	10443
920.928	10417
921.038	10599
921.148	10603
921.258	10303
921.368	10139
921.477	10090
921.587	10044
921.697	10071
921.806	10131
921.916	9994
922.025	9808
922.134	9789
922.244	9690
922.353	9850
922.462	9701
922.571	9618
922.68	9507
922.789	9473
922.898	9469
923.007	9389
923.116	9523
923.224	9420
923.333	9462
923.442	9420
923.55	9336
923.659	9393
923.767	9454
923.876	9287
923.984	9466
924.092	9279
924.201	9344
924.309	9397
924.417	9370
924.525	9298
924.633	9355
924.741	10162
924.849	9112
924.956	9272
925.064	9097
925.172	9028
925.279	9051
925.387	9157
925.494	9074
925.602	9340
925.709	9157
925.816	9119
925.924	9116
926.031	9268
926.138	9146
926.245	9199
926.352	9085
926.459	9138
926.566	9192
926.673	9104
926.779	8963
926.886	8948
926.993	8826
927.099	8849
927.206	8838
927.312	8800
927.419	8853
927.525	8899
927.631	8887
927.737	8754
927.843	8739
927.95	8632
928.056	8655
928.162	8686
928.267	8815
928.373	9408
928.479	8883
928.585	8636
928.69	8708
928.796	8758
928.901	8697
929.007	8583
929.112	8667
929.218	8644
929.323	8564
929.428	8583
929.533	8705
929.638	8522
929.743	8537
929.848	8556
929.953	8587
930.058	8533
930.163	8309
930.267	8332
930.372	8423
930.477	8328
930.581	8511
930.685	8377
930.79	8313
930.894	8320
930.998	8305
931.103	8454
931.207	8157
931.311	8096
931.415	7982
931.519	7715
931.623	7799
