Data from test_V78500241_1102.txt Node
Date: Fri Mar 25 14:41:23 CST 2022
User: usil
Spectrometer: V785-0024
Trigger mode: 0
Integration Time (sec): 4.000000E-1
Scans to average: 1
Nonlinearity correction enabled: false
Boxcar width: 0
Storing dark spectrum: false
XAxis mode: Wavelengths
Number of Pixels in Spectrum: 1024
>>>>>Begin Spectral Data<<<<<
801.071	22694
801.214	22561
801.356	22424
801.499	22242
801.641	22097
801.783	22051
801.926	22021
802.068	21998
802.211	21873
802.353	21808
802.496	21656
802.638	21542
802.78	21439
802.923	21462
803.065	21389
803.208	21340
803.35	21378
803.492	21496
803.635	21424
803.777	21420
803.919	21504
804.061	21648
804.204	21473
804.346	21340
804.488	21279
804.63	21184
804.773	21283
804.915	21283
805.057	21382
805.199	21268
805.341	21420
805.483	21496
805.626	21416
805.768	21154
805.91	21157
806.052	21313
806.194	21135
806.336	21424
806.478	21348
806.62	21355
806.762	21332
806.904	21515
807.046	21861
807.188	21739
807.33	21660
807.472	21812
807.614	21781
807.756	21660
807.898	21606
808.04	21561
808.182	21553
808.324	21637
808.465	21736
808.607	21876
808.749	22044
808.891	22223
809.033	22219
809.174	22120
809.316	21968
809.458	22029
809.6	21903
809.741	21949
809.883	21892
810.025	22025
810.166	21934
810.308	21949
810.45	21823
810.591	21838
810.733	21701
810.875	21622
811.016	21397
811.158	21526
811.299	21622
811.441	21652
811.582	21576
811.724	21496
811.865	21420
812.007	21416
812.148	21515
812.29	21526
812.431	21808
812.573	21701
812.714	21956
812.855	21979
812.997	22112
813.138	22261
813.279	22196
813.421	21953
813.562	21880
813.703	21797
813.845	21595
813.986	21454
814.127	21252
814.268	21116
814.41	21127
814.551	21074
814.692	21085
814.833	20971
814.974	20979
815.115	21039
815.256	20811
815.397	20906
815.539	20944
815.68	20765
815.821	20826
815.962	20845
816.103	20788
816.244	20571
816.385	20609
816.526	20560
816.666	20431
816.807	20134
816.948	20294
817.089	20301
817.23	20275
817.371	20248
817.512	20157
817.653	20180
817.793	20138
817.934	20214
818.075	20301
818.216	20248
818.356	20244
818.497	20035
818.638	19814
818.778	19788
818.919	19864
819.06	19963
819.2	19947
819.341	20035
819.481	20069
819.622	20199
819.762	20366
819.903	20408
820.043	20294
820.184	20221
820.324	20130
820.465	20332
820.605	20183
820.746	20138
820.886	20012
821.026	20256
821.167	20062
821.307	20301
821.447	20176
821.588	19909
821.728	19921
821.868	19708
822.008	19544
822.149	19483
822.289	19449
822.429	19346
822.569	19228
822.709	19339
822.849	19080
822.99	19103
823.13	19046
823.27	19084
823.41	18897
823.55	18768
823.69	18871
823.83	18814
823.97	18802
824.11	18650
824.25	18738
824.389	18677
824.529	18760
824.669	18513
824.809	18738
824.949	18757
825.089	18764
825.228	18711
825.368	18555
825.508	18475
825.648	18620
825.787	18574
825.927	18441
826.067	18369
826.206	18422
826.346	18486
826.485	18623
826.625	18338
826.765	18597
826.904	18426
827.044	18159
827.183	18194
827.323	18159
827.462	18163
827.601	18186
827.741	18167
827.88	18133
828.02	18110
828.159	18106
828.298	18152
828.437	18171
828.577	18197
828.716	18277
828.855	18079
828.994	17851
829.134	17843
829.273	17980
829.412	17927
829.551	17851
829.69	17908
829.829	18007
829.968	18038
830.107	18019
830.246	17901
830.385	17870
830.524	17832
830.663	17726
830.802	17615
830.941	17558
831.08	17406
831.219	17410
831.357	17471
831.496	17748
831.635	17463
831.774	17402
831.913	17280
832.051	17265
832.19	17391
832.329	17398
832.467	17208
832.606	17239
832.744	17246
832.883	17220
833.022	17280
833.16	17204
833.299	17387
833.437	17296
833.576	17288
833.714	17303
833.852	17349
833.991	17284
834.129	17334
834.267	17280
834.406	17334
834.544	17216
834.682	17239
834.821	17273
834.959	17364
835.097	17189
835.235	17360
835.373	17391
835.511	17307
835.65	17200
835.788	17208
835.926	17018
836.064	16953
836.202	16942
836.34	17166
836.478	17212
836.615	17083
836.753	17102
836.891	17197
837.029	17204
837.167	17200
837.305	17079
837.443	17098
837.58	16976
837.718	17025
837.856	17086
837.993	16961
838.131	17006
838.269	16957
838.406	16999
838.544	16919
838.681	16797
838.819	16729
838.956	16481
839.094	16508
839.231	16656
839.369	16694
839.506	16881
839.643	16733
839.781	16531
839.918	16512
840.055	16519
840.193	16512
840.33	16500
840.467	16489
840.604	16588
840.742	16771
840.879	16428
841.016	16478
841.153	16474
841.29	16683
841.427	16519
841.564	16481
841.701	16459
841.838	16615
841.975	16417
842.112	16417
842.249	16386
842.385	16348
842.522	16447
842.659	16428
842.796	16291
842.933	16466
843.069	16265
843.206	16295
843.343	16413
843.479	16337
843.616	16329
843.752	16131
843.889	16032
844.025	16295
844.162	16086
844.298	16192
844.435	16071
844.571	16154
844.708	16246
844.844	16303
844.98	16299
845.117	16192
845.253	16200
845.389	16135
845.525	16238
845.661	16238
845.798	16265
845.934	16352
846.07	16379
846.206	16481
846.342	16485
846.478	16257
846.614	15945
846.75	15854
846.886	15694
847.022	15789
847.158	15652
847.294	15618
847.429	15766
847.565	15622
847.701	15838
847.837	15431
847.972	15317
848.108	15481
848.244	15561
848.379	15302
848.515	15272
848.65	15192
848.786	15275
848.921	15329
849.057	15329
849.192	15374
849.328	15370
849.463	15302
849.598	15199
849.734	15230
849.869	15104
850.004	15100
850.14	15024
850.275	14998
850.41	14960
850.545	15013
850.68	15005
850.815	15001
850.95	15032
851.085	15260
851.22	15203
851.355	15097
851.49	14933
851.625	14952
851.76	14933
851.895	15009
852.03	15024
852.165	15051
852.299	15066
852.434	15077
852.569	15070
852.703	14998
852.838	15169
852.973	15272
853.107	15154
853.242	15032
853.376	14986
853.511	14830
853.645	14899
853.78	14967
853.914	14990
854.048	14826
854.183	14876
854.317	14918
854.451	15070
854.585	14785
854.72	14906
854.854	14948
854.988	14823
855.122	14861
855.256	14735
855.39	14876
855.524	15001
855.658	14967
855.792	14929
855.926	15020
856.06	14952
856.194	15055
856.327	14891
856.461	14830
856.595	14895
856.729	14868
856.862	14941
856.996	14906
857.13	14864
857.263	15062
857.397	15074
857.53	14948
857.664	14975
857.797	14982
857.931	15100
858.064	14868
858.197	15085
858.331	14902
858.464	14887
858.597	14762
858.731	14876
858.864	14868
858.997	14807
859.13	14925
859.263	14895
859.396	14952
859.529	14811
859.662	14804
859.795	14853
859.928	14956
860.061	14929
860.194	15116
860.327	14960
860.46	14895
860.592	14948
860.725	15085
860.858	14933
860.99	14921
861.123	14785
861.256	14906
861.388	14815
861.521	15576
861.653	14834
861.786	14826
861.918	14765
862.05	14842
862.183	14823
862.315	14868
862.447	14937
862.58	14868
862.712	14674
862.844	14610
862.976	14769
863.108	14785
863.24	15135
863.372	14625
863.504	14659
863.636	14765
863.768	14651
863.9	14739
864.032	14503
864.164	14727
864.296	14720
864.428	14743
864.559	14792
864.691	14838
864.823	14765
864.954	14712
865.086	14701
865.217	14526
865.349	14606
865.48	14560
865.612	14625
865.743	14842
865.875	14781
866.006	14560
866.137	14663
866.269	14648
866.4	14670
866.531	14438
866.662	14667
866.793	14594
866.924	14537
867.055	14598
867.186	14705
867.317	14629
867.448	14488
867.579	14575
867.71	14541
867.841	14644
867.972	14621
868.103	14606
868.233	14670
868.364	14655
868.495	14705
868.625	14838
868.756	14994
868.886	14811
869.017	14899
869.147	15024
869.278	15058
869.408	14979
869.539	14887
869.669	14883
869.799	14979
869.929	14990
870.06	14902
870.19	15100
870.32	15169
870.45	15211
870.58	15245
870.71	15344
870.84	15355
870.97	15230
871.1	15237
871.23	15424
871.36	15458
871.489	15310
871.619	15378
871.749	15534
871.879	15454
872.008	15545
872.138	15393
872.267	15496
872.397	15370
872.526	15310
872.656	15428
872.785	15237
872.915	15367
873.044	15610
873.173	15500
873.303	15595
873.432	15705
873.561	15511
873.69	15549
873.819	15542
873.948	15542
874.077	15576
874.206	15538
874.335	15648
874.464	15587
874.593	15857
874.722	15797
874.851	15972
874.979	15800
875.108	15869
875.237	15785
875.365	15888
875.494	15800
875.623	16067
875.751	15736
875.88	15903
876.008	15945
876.136	16124
876.265	16276
876.393	16325
876.521	16375
876.65	16257
876.778	16261
876.906	16341
877.034	16234
877.162	16280
877.29	16246
877.418	16249
877.546	16249
877.674	16238
877.802	16310
877.93	16303
878.058	16329
878.185	16181
878.313	16188
878.441	16234
878.568	16169
878.696	16219
878.824	16371
878.951	16356
879.079	16512
879.206	16668
879.333	16577
879.461	16405
879.588	16558
879.715	16691
879.842	16683
879.97	16569
880.097	16200
880.224	16257
880.351	16272
880.478	16131
880.605	16139
880.732	16040
880.859	16352
880.986	16268
881.112	16158
881.239	15968
881.366	16006
881.493	15831
881.619	15831
881.746	15823
881.872	15869
881.999	15785
882.125	15819
882.252	15884
882.378	15926
882.505	15960
882.631	15785
882.757	15576
882.883	15660
883.01	15698
883.136	15557
883.262	15530
883.388	15504
883.514	15568
883.64	15644
883.766	15610
883.892	15435
884.018	15447
884.143	15534
884.269	15728
884.395	15378
884.52	15306
884.646	15363
884.772	15214
884.897	15192
885.023	15306
885.148	15412
885.274	15481
885.399	15469
885.524	15272
885.65	15268
885.775	15340
885.9	15321
886.025	15466
886.15	15355
886.275	15207
886.4	15188
886.525	15233
886.65	15237
886.775	15169
886.9	15405
887.025	15530
887.149	15211
887.274	15192
887.399	15024
887.523	15058
887.648	15017
887.773	15001
887.897	15180
888.021	15211
888.146	15055
888.27	15329
888.395	15233
888.519	15131
888.643	15184
888.767	15157
888.891	15036
889.015	14902
889.139	15028
889.263	15055
889.387	15047
889.511	15165
889.635	15077
889.759	14941
889.883	14819
890.006	14967
890.13	15085
890.254	14982
890.377	14925
890.501	14758
890.624	14708
890.748	14853
890.871	14769
890.995	14564
891.118	14640
891.241	14667
891.364	14693
891.488	14735
891.611	14659
891.734	14701
891.857	14712
891.98	14689
892.103	14727
892.226	14640
892.349	14682
892.471	14537
892.594	14640
892.717	14674
892.839	14636
892.962	14587
893.085	14659
893.207	14625
893.33	14503
893.452	14606
893.575	14743
893.697	14564
893.819	14872
893.941	14720
894.064	14750
894.186	14552
894.308	14579
894.43	14720
894.552	14845
894.674	14743
894.796	14682
894.918	14655
895.04	14606
895.161	14739
895.283	14735
895.405	14663
895.526	14693
895.648	14781
895.769	14800
895.891	14872
896.012	14872
896.134	14853
896.255	14712
896.376	14811
896.498	14731
896.619	14811
896.74	14792
896.861	14853
896.982	15245
897.103	15256
897.224	15104
897.345	14948
897.466	14967
897.587	15097
897.708	15211
897.828	15058
897.949	14929
898.07	14902
898.19	15062
898.311	15230
898.431	14948
898.552	15154
898.672	15199
898.792	15192
898.913	15108
899.033	15085
899.153	14971
899.273	14857
899.393	15001
899.513	14990
899.633	15020
899.753	14948
899.873	14952
899.993	14975
900.113	14918
900.232	15005
900.352	14861
900.472	14788
900.591	14849
900.711	14819
900.83	14743
900.95	14918
901.069	14963
901.189	14693
901.308	14385
901.427	14503
901.546	14480
901.665	14564
901.784	14571
901.904	14469
902.023	14374
902.141	14142
902.26	14062
902.379	14157
902.498	13963
902.617	13917
902.735	14100
902.854	13982
902.973	13959
903.091	13772
903.21	13795
903.328	13822
903.446	13784
903.565	13636
903.683	13632
903.801	13575
903.919	13590
904.038	13651
904.156	13483
904.274	13518
904.392	13388
904.51	13373
904.627	13316
904.745	13426
904.863	13548
904.981	13320
905.098	13217
905.216	13099
905.334	13137
905.451	13107
905.569	13057
905.686	13206
905.803	13175
905.921	12947
906.038	13008
906.155	12871
906.272	12776
906.389	12837
906.506	12760
906.623	12665
906.74	12646
906.857	12589
906.974	12658
907.091	12760
907.208	12757
907.324	12764
907.441	12582
907.557	12452
907.674	12429
907.79	12285
907.907	12395
908.023	12464
908.139	12395
908.256	12399
908.372	12300
908.488	12338
908.604	12201
908.72	12178
908.836	12247
908.952	12205
909.068	12213
909.184	12361
909.3	12235
909.415	12163
909.531	12266
909.647	12030
909.762	11999
909.878	11908
909.993	11996
910.108	11931
910.224	11904
910.339	11996
910.454	11897
910.57	11828
910.685	11733
910.8	12019
910.915	11996
911.03	11893
911.145	11752
911.259	11657
911.374	11676
911.489	11539
911.604	11528
911.718	11490
911.833	11436
911.947	11326
912.062	11250
912.176	11398
912.291	11433
912.405	11356
912.519	11532
912.633	11672
912.748	11433
912.862	11376
912.976	11296
913.09	11208
913.204	11280
913.318	11360
913.431	11421
913.545	11345
913.659	11406
913.772	11250
913.886	11216
914	11174
914.113	11185
914.226	11315
914.34	11235
914.453	11003
914.566	11178
914.68	11109
914.793	11037
914.906	10911
915.019	10923
915.132	10759
915.245	10866
915.358	10976
915.47	10968
915.583	10915
915.696	10927
915.809	11033
915.921	11033
916.034	10953
916.146	10805
916.259	10816
916.371	10900
916.483	10908
916.595	10824
916.708	10809
916.82	10793
916.932	10771
917.044	10740
917.156	10767
917.268	10660
917.38	10615
917.491	10634
917.603	10759
917.715	10801
917.826	10869
917.938	10668
918.049	10535
918.161	10748
918.272	10824
918.384	10835
918.495	10714
918.606	10611
918.717	10497
918.828	10554
918.939	10607
919.05	10474
919.161	10474
919.272	10341
919.383	10424
919.494	10656
919.604	10710
919.715	10637
919.826	10550
919.936	10542
920.047	10714
920.157	10588
920.267	10748
920.378	10622
920.488	10584
920.598	10763
920.708	10953
920.818	10828
920.928	10797
921.038	10949
921.148	10900
921.258	10637
921.368	10542
921.477	10531
921.587	10432
921.697	10360
921.806	10447
921.916	10318
922.025	10154
922.134	10044
922.244	10109
922.353	10207
922.462	9934
922.571	9956
922.68	9827
922.789	9797
922.898	9861
923.007	9682
923.116	9899
923.224	9751
923.333	9842
923.442	9705
923.55	9644
923.659	9705
923.767	9736
923.876	9656
923.984	9740
924.092	9675
924.201	9751
924.309	9633
924.417	9698
924.525	9557
924.633	9557
924.741	10565
924.849	9454
924.956	9625
925.064	9458
925.172	9329
925.279	9408
925.387	9454
925.494	9439
925.602	9614
925.709	9549
925.816	9405
925.924	9473
926.031	9633
926.138	9477
926.245	9496
926.352	9389
926.459	9564
926.566	9504
926.673	9348
926.779	9348
926.886	9249
926.993	9165
927.099	9157
927.206	9074
927.312	9089
927.419	9146
927.525	9123
927.631	9123
927.737	9066
927.843	9013
927.95	9001
928.056	8990
928.162	9066
928.267	9116
928.373	9675
928.479	9043
928.585	8864
928.69	9074
928.796	9043
928.901	8899
929.007	8800
929.112	8944
929.218	8880
929.323	8864
929.428	8766
929.533	8982
929.638	8838
929.743	8880
929.848	8910
929.953	8819
930.058	8701
930.163	8606
930.267	8651
930.372	8781
930.477	8583
930.581	8800
930.685	8659
930.79	8530
930.894	8533
930.998	8545
931.103	8689
931.207	8305
931.311	8259
931.415	8271
931.519	8058
931.623	8027
