Data from test_V78500241_1179.txt Node
Date: Fri Mar 25 14:41:55 CST 2022
User: usil
Spectrometer: V785-0024
Trigger mode: 0
Integration Time (sec): 4.000000E-1
Scans to average: 1
Nonlinearity correction enabled: false
Boxcar width: 0
Storing dark spectrum: false
XAxis mode: Wavelengths
Number of Pixels in Spectrum: 1024
>>>>>Begin Spectral Data<<<<<
801.071	22443
801.214	22238
801.356	22093
801.499	21987
801.641	21838
801.783	21793
801.926	21804
802.068	21812
802.211	21648
802.353	21648
802.496	21313
802.638	21351
802.78	21264
802.923	21157
803.065	21074
803.208	21142
803.35	21222
803.492	21233
803.635	21279
803.777	21184
803.919	21176
804.061	21614
804.204	21249
804.346	21123
804.488	20971
804.63	21157
804.773	21009
804.915	21165
805.057	21329
805.199	21089
805.341	21230
805.483	21192
805.626	21116
805.768	21017
805.91	21085
806.052	21135
806.194	21017
806.336	21226
806.478	21055
806.62	21043
806.762	21043
806.904	21241
807.046	21469
807.188	21439
807.33	21504
807.472	21469
807.614	21351
807.756	21268
807.898	21214
808.04	21165
808.182	21237
808.324	21173
808.465	21401
808.607	21447
808.749	21572
808.891	21652
809.033	21713
809.174	21587
809.316	21629
809.458	21526
809.6	21488
809.741	21428
809.883	21488
810.025	21591
810.166	21785
810.308	21606
810.45	21538
810.591	21424
810.733	21515
810.875	21260
811.016	21275
811.158	21192
811.299	21344
811.441	21424
811.582	21291
811.724	21321
811.865	21195
812.007	21237
812.148	21192
812.29	21367
812.431	21389
812.573	21595
812.714	21720
812.855	21774
812.997	21797
813.138	21895
813.279	21835
813.421	21778
813.562	21698
813.703	21561
813.845	21469
813.986	21138
814.127	20975
814.268	20777
814.41	20918
814.551	20815
814.692	20925
814.833	20807
814.974	20765
815.115	20769
815.256	20583
815.397	20609
815.539	20632
815.68	20499
815.821	20495
815.962	20461
816.103	20495
816.244	20400
816.385	20374
816.526	20324
816.666	20069
816.807	20027
816.948	20035
817.089	20122
817.23	20031
817.371	20092
817.512	19970
817.653	19906
817.793	19997
817.934	19925
818.075	19978
818.216	19841
818.356	19959
818.497	19807
818.638	19533
818.778	19681
818.919	19647
819.06	19681
819.2	19738
819.341	19890
819.481	19719
819.622	20039
819.762	20199
819.903	19986
820.043	20008
820.184	19940
820.324	19917
820.465	19963
820.605	19875
820.746	20016
820.886	19719
821.026	19841
821.167	19925
821.307	19887
821.447	19936
821.588	19811
821.728	19628
821.868	19544
822.008	19320
822.149	19297
822.289	19304
822.429	19164
822.569	18989
822.709	19046
822.849	18973
822.99	18894
823.13	18646
823.27	18810
823.41	18635
823.55	18563
823.69	18753
823.83	18551
823.97	18616
824.11	18517
824.25	18483
824.389	18399
824.529	18422
824.669	18346
824.809	18574
824.949	18612
825.089	18464
825.228	18437
825.368	18178
825.508	18254
825.648	18292
825.787	18285
825.927	18243
826.067	18182
826.206	18133
826.346	18205
826.485	18334
826.625	18247
826.765	18296
826.904	18361
827.044	18007
827.183	17965
827.323	17863
827.462	17923
827.601	17916
827.741	17958
827.88	17935
828.02	17821
828.159	17859
828.298	17920
828.437	18011
828.577	17935
828.716	18034
828.855	17847
828.994	17676
829.134	17600
829.273	17687
829.412	17665
829.551	17558
829.69	17623
829.829	17680
829.968	17726
830.107	17817
830.246	17741
830.385	17687
830.524	17592
830.663	17493
830.802	17414
830.941	17311
831.08	17189
831.219	17452
831.357	17220
831.496	17471
831.635	17353
831.774	17246
831.913	17223
832.051	17079
832.19	17083
832.329	17094
832.467	17064
832.606	16934
832.744	16999
832.883	16900
833.022	17003
833.16	16984
833.299	17067
833.437	16980
833.576	17098
833.714	17151
833.852	17102
833.991	17083
834.129	17060
834.267	17105
834.406	17029
834.544	17079
834.682	17006
834.821	17033
834.959	17261
835.097	17086
835.235	17132
835.373	17064
835.511	17029
835.65	16942
835.788	17037
835.926	16858
836.064	16706
836.202	16908
836.34	16961
836.478	17056
836.615	17003
836.753	16991
836.891	16953
837.029	17056
837.167	16930
837.305	16942
837.443	16850
837.58	16771
837.718	16911
837.856	16877
837.993	16778
838.131	16869
838.269	16660
838.406	16683
838.544	16641
838.681	16561
838.819	16573
838.956	16398
839.094	16409
839.231	16363
839.369	16504
839.506	16721
839.643	16569
839.781	16322
839.918	16219
840.055	16363
840.193	16394
840.33	16333
840.467	16390
840.604	16375
840.742	16637
840.879	16154
841.016	16356
841.153	16139
841.29	16531
841.427	16474
841.564	16584
841.701	16371
841.838	16348
841.975	16265
842.112	16310
842.249	16223
842.385	16154
842.522	16299
842.659	16154
842.796	16116
842.933	16150
843.069	16051
843.206	16162
843.343	16223
843.479	16226
843.616	16150
843.752	15979
843.889	15956
844.025	16082
844.162	15873
844.298	16120
844.435	16013
844.571	15983
844.708	15926
844.844	16139
844.98	16154
845.117	16078
845.253	15960
845.389	15842
845.525	15941
845.661	15983
845.798	15876
845.934	15941
846.07	15899
846.206	15998
846.342	15945
846.478	15869
846.614	15720
846.75	15580
846.886	15523
847.022	15671
847.158	15519
847.294	15526
847.429	15576
847.565	15443
847.701	15785
847.837	15252
847.972	15252
848.108	15298
848.244	15428
848.379	15154
848.515	15135
848.65	15066
848.786	15131
848.921	15138
849.057	15256
849.192	15142
849.328	15138
849.463	15146
849.598	15127
849.734	14975
849.869	14998
850.004	14933
850.14	14857
850.275	14906
850.41	14815
850.545	14834
850.68	14823
850.815	14743
850.95	14868
851.085	15013
851.22	14929
851.355	14845
851.49	14811
851.625	14777
851.76	14765
851.895	14769
852.03	14781
852.165	14819
852.299	14876
852.434	14868
852.569	14952
852.703	14842
852.838	14937
852.973	14986
853.107	15032
853.242	14773
853.376	14739
853.511	14598
853.645	14670
853.78	14887
853.914	14735
854.048	14686
854.183	14716
854.317	14735
854.451	14918
854.585	14644
854.72	14674
854.854	14781
854.988	14644
855.122	14758
855.256	14712
855.39	14648
855.524	14834
855.658	14693
855.792	14773
855.926	14727
856.06	14777
856.194	14800
856.327	14754
856.461	14667
856.595	14648
856.729	14640
856.862	14739
856.996	14785
857.13	14765
857.263	14857
857.397	14887
857.53	14678
857.664	14952
857.797	14861
857.931	14937
858.064	14705
858.197	14853
858.331	14769
858.464	14762
858.597	14625
858.731	14758
858.864	14754
858.997	14735
859.13	14720
859.263	14693
859.396	14857
859.529	14651
859.662	14739
859.795	14598
859.928	14834
860.061	14826
860.194	14982
860.327	14792
860.46	14762
860.592	14906
860.725	14819
860.858	14842
860.99	14735
861.123	14663
861.256	14686
861.388	14769
861.521	15435
861.653	14621
861.786	14598
861.918	14701
862.05	14541
862.183	14705
862.315	14636
862.447	14754
862.58	14701
862.712	14533
862.844	14511
862.976	14522
863.108	14476
863.24	14921
863.372	14415
863.504	14526
863.636	14511
863.768	14488
863.9	14621
864.032	14427
864.164	14465
864.296	14560
864.428	14644
864.559	14598
864.691	14663
864.823	14568
864.954	14571
865.086	14492
865.217	14514
865.349	14412
865.48	14617
865.612	14480
865.743	14590
865.875	14541
866.006	14533
866.137	14518
866.269	14469
866.4	14431
866.531	14484
866.662	14400
866.793	14412
866.924	14415
867.055	14450
867.186	14480
867.317	14488
867.448	14377
867.579	14404
867.71	14400
867.841	14415
867.972	14419
868.103	14454
868.233	14446
868.364	14533
868.495	14556
868.625	14739
868.756	14849
868.886	14651
869.017	14708
869.147	14861
869.278	14826
869.408	14739
869.539	14746
869.669	14819
869.799	14712
869.929	14918
870.06	14762
870.19	15135
870.32	14994
870.45	15100
870.58	15085
870.71	15275
870.84	15195
870.97	15100
871.1	15116
871.23	15306
871.36	15317
871.489	15135
871.619	15317
871.749	15298
871.879	15264
872.008	15370
872.138	15310
872.267	15332
872.397	15192
872.526	15112
872.656	15108
872.785	15203
872.915	15412
873.044	15481
873.173	15374
873.303	15374
873.432	15485
873.561	15393
873.69	15496
873.819	15256
873.948	15469
874.077	15374
874.206	15351
874.335	15325
874.464	15519
874.593	15606
874.722	15584
874.851	15709
874.979	15793
875.108	15705
875.237	15618
875.365	15663
875.494	15789
875.623	15743
875.751	15690
875.88	15762
876.008	15819
876.136	15892
876.265	16158
876.393	16230
876.521	16211
876.65	16147
876.778	16154
876.906	15987
877.034	16120
877.162	16169
877.29	16029
877.418	16185
877.546	16143
877.674	16143
877.802	16188
877.93	16112
878.058	16162
878.185	16063
878.313	16090
878.441	16211
878.568	15964
878.696	15968
878.824	16135
878.951	16131
879.079	16303
879.206	16542
879.333	16322
879.461	16215
879.588	16341
879.715	16348
879.842	16478
879.97	16268
880.097	15937
880.224	15994
880.351	16010
880.478	16021
880.605	15895
880.732	16013
880.859	16238
880.986	16010
881.112	16036
881.239	15964
881.366	15751
881.493	15682
881.619	15584
881.746	15610
881.872	15568
881.999	15599
882.125	15538
882.252	15587
882.378	15584
882.505	15732
882.631	15637
882.757	15439
882.883	15477
883.01	15492
883.136	15336
883.262	15397
883.388	15252
883.514	15405
883.64	15504
883.766	15382
883.892	15123
884.018	15332
884.143	15397
884.269	15606
884.395	15192
884.52	15097
884.646	15104
884.772	15058
884.897	14998
885.023	15222
885.148	15165
885.274	15222
885.399	15146
885.524	15161
885.65	15066
885.775	15100
885.9	15097
886.025	15188
886.15	15203
886.275	15100
886.4	15020
886.525	15005
886.65	15081
886.775	14994
886.9	15230
887.025	15416
887.149	15127
887.274	14887
887.399	14906
887.523	14967
887.648	14941
887.773	14792
887.897	15020
888.021	14982
888.146	14895
888.27	15043
888.395	14982
888.519	15043
888.643	14990
888.767	14979
888.891	14990
889.015	14667
889.139	14857
889.263	14712
889.387	14891
889.511	15009
889.635	14899
889.759	14826
889.883	14777
890.006	14853
890.13	14887
890.254	14724
890.377	14815
890.501	14606
890.624	14602
890.748	14678
890.871	14522
890.995	14442
891.118	14450
891.241	14480
891.364	14454
891.488	14606
891.611	14495
891.734	14473
891.857	14579
891.98	14492
892.103	14648
892.226	14495
892.349	14457
892.471	14408
892.594	14476
892.717	14560
892.839	14381
892.962	14370
893.085	14590
893.207	14518
893.33	14381
893.452	14381
893.575	14385
893.697	14408
893.819	14667
893.941	14606
894.064	14693
894.186	14473
894.308	14419
894.43	14621
894.552	14727
894.674	14621
894.796	14412
894.918	14556
895.04	14537
895.161	14533
895.283	14602
895.405	14571
895.526	14503
895.648	14651
895.769	14575
895.891	14697
896.012	14686
896.134	14659
896.255	14651
896.376	14674
896.498	14560
896.619	14697
896.74	14663
896.861	14648
896.982	14979
897.103	15135
897.224	15013
897.345	14849
897.466	14876
897.587	14918
897.708	14971
897.828	14914
897.949	14876
898.07	14769
898.19	14880
898.311	15047
898.431	14944
898.552	14982
898.672	15032
898.792	15085
898.913	15093
899.033	14895
899.153	14678
899.273	14826
899.393	14830
899.513	14864
899.633	14800
899.753	14746
899.873	14815
899.993	14861
900.113	14826
900.232	14811
900.352	14845
900.472	14739
900.591	14648
900.711	14735
900.83	14648
900.95	14857
901.069	14819
901.189	14587
901.308	14343
901.427	14301
901.546	14431
901.665	14404
901.784	14385
901.904	14267
902.023	14100
902.141	13898
902.26	13883
902.379	14043
902.498	13860
902.617	13860
902.735	13944
902.854	13989
902.973	13940
903.091	13677
903.21	13597
903.328	13605
903.446	13578
903.565	13540
903.683	13563
903.801	13373
903.919	13457
904.038	13449
904.156	13335
904.274	13354
904.392	13266
904.51	13168
904.627	13343
904.745	13259
904.863	13358
904.981	13053
905.098	12993
905.216	12943
905.334	13015
905.451	12947
905.569	12920
905.686	12973
905.803	12985
905.921	12844
906.038	12901
906.155	12867
906.272	12654
906.389	12688
906.506	12540
906.623	12601
906.74	12483
906.857	12475
906.974	12494
907.091	12547
907.208	12730
907.324	12620
907.441	12483
907.557	12308
907.674	12338
907.79	12262
907.907	12270
908.023	12308
908.139	12357
908.256	12292
908.372	12232
908.488	12159
908.604	12239
908.72	11999
908.836	12083
908.952	12121
909.068	12155
909.184	12197
909.3	12091
909.415	12114
909.531	12060
909.647	11866
909.762	11893
909.878	11786
909.993	11893
910.108	11885
910.224	11771
910.339	11885
910.454	11737
910.57	11672
910.685	11703
910.8	11958
910.915	11756
911.03	11726
911.145	11570
911.259	11581
911.374	11600
911.489	11433
911.604	11497
911.718	11307
911.833	11368
911.947	11277
912.062	11083
912.176	11227
912.291	11318
912.405	11307
912.519	11474
912.633	11512
912.748	11318
912.862	11318
912.976	11140
913.09	11052
913.204	11185
913.318	11140
913.431	11216
913.545	11204
913.659	11277
913.772	11136
913.886	11067
914	10968
914.113	11102
914.226	11143
914.34	11067
914.453	10934
914.566	11079
914.68	11022
914.793	10987
914.906	10805
915.019	10763
915.132	10759
915.245	10782
915.358	10835
915.47	10843
915.583	10889
915.696	10839
915.809	10889
915.921	10942
916.034	10824
916.146	10725
916.259	10649
916.371	10850
916.483	10744
916.595	10710
916.708	10812
916.82	10694
916.932	10656
917.044	10740
917.156	10645
917.268	10531
917.38	10622
917.491	10599
917.603	10607
917.715	10717
917.826	10717
917.938	10497
918.049	10455
918.161	10641
918.272	10733
918.384	10717
918.495	10626
918.606	10531
918.717	10428
918.828	10508
918.939	10489
919.05	10409
919.161	10424
919.272	10287
919.383	10318
919.494	10611
919.604	10698
919.715	10432
919.826	10382
919.936	10390
920.047	10516
920.157	10443
920.267	10717
920.378	10561
920.488	10500
920.598	10748
920.708	10793
920.818	10702
920.928	10664
921.038	10869
921.148	10850
921.258	10519
921.368	10421
921.477	10371
921.587	10363
921.697	10154
921.806	10303
921.916	10188
922.025	10025
922.134	10059
922.244	9994
922.353	10093
922.462	10055
922.571	9778
922.68	9812
922.789	9633
922.898	9736
923.007	9576
923.116	9759
923.224	9686
923.333	9671
923.442	9671
923.55	9614
923.659	9603
923.767	9701
923.876	9656
923.984	9679
924.092	9644
924.201	9667
924.309	9515
924.417	9587
924.525	9572
924.633	9549
924.741	10337
924.849	9412
924.956	9564
925.064	9336
925.172	9329
925.279	9306
925.387	9466
925.494	9329
925.602	9477
925.709	9488
925.816	9355
925.924	9367
926.031	9428
926.138	9370
926.245	9382
926.352	9298
926.459	9450
926.566	9466
926.673	9336
926.779	9283
926.886	9226
926.993	9062
927.099	9074
927.206	9089
927.312	8971
927.419	9112
927.525	9024
927.631	9116
927.737	9001
927.843	8948
927.95	8868
928.056	8956
928.162	8990
928.267	9017
928.373	9568
928.479	9085
928.585	8834
928.69	8948
928.796	8967
928.901	8861
929.007	8720
929.112	8944
929.218	8864
929.323	8762
929.428	8792
929.533	8864
929.638	8739
929.743	8682
929.848	8845
929.953	8731
930.058	8716
930.163	8545
930.267	8632
930.372	8693
930.477	8495
930.581	8731
930.685	8594
930.79	8484
930.894	8511
930.998	8507
931.103	8640
931.207	8267
931.311	8210
931.415	8157
931.519	8008
931.623	7970
