Data from test_V78500241_3295.txt Node
Date: Fri Mar 25 14:56:39 CST 2022
User: usil
Spectrometer: V785-0024
Trigger mode: 0
Integration Time (sec): 4.000000E-1
Scans to average: 1
Nonlinearity correction enabled: false
Boxcar width: 0
Storing dark spectrum: false
XAxis mode: Wavelengths
Number of Pixels in Spectrum: 1024
>>>>>Begin Spectral Data<<<<<
801.071	21907
801.214	21739
801.356	21530
801.499	21462
801.641	21458
801.783	21294
801.926	21526
802.068	21291
802.211	21173
802.353	21173
802.496	20944
802.638	20796
802.78	20861
802.923	20674
803.065	20724
803.208	20689
803.35	20686
803.492	20830
803.635	20777
803.777	20746
803.919	20727
804.061	21032
804.204	20796
804.346	20655
804.488	20590
804.63	20682
804.773	20522
804.915	20568
805.057	20629
805.199	20457
805.341	20629
805.483	20705
805.626	20636
805.768	20556
805.91	20587
806.052	20587
806.194	20514
806.336	20720
806.478	20621
806.62	20522
806.762	20602
806.904	20735
807.046	20921
807.188	20929
807.33	20781
807.472	21043
807.614	20849
807.756	20834
807.898	20701
808.04	20621
808.182	20575
808.324	20541
808.465	20659
808.607	20765
808.749	20967
808.891	21074
809.033	21036
809.174	21062
809.316	20872
809.458	20861
809.6	20876
809.741	20792
809.883	20902
810.025	21077
810.166	21009
810.308	21043
810.45	21017
810.591	20914
810.733	20906
810.875	20811
811.016	20579
811.158	20590
811.299	20758
811.441	20750
811.582	20807
811.724	20648
811.865	20644
812.007	20689
812.148	20754
812.29	20746
812.431	20921
812.573	21001
812.714	21112
812.855	21241
812.997	21325
813.138	21397
813.279	21275
813.421	21119
813.562	21096
813.703	20979
813.845	20716
813.986	20564
814.127	20476
814.268	20259
814.41	20320
814.551	20202
814.692	20229
814.833	20229
814.974	20191
815.115	20199
815.256	20157
815.397	20218
815.539	20035
815.68	19871
815.821	19868
815.962	19963
816.103	20001
816.244	19750
816.385	19708
816.526	19635
816.666	19521
816.807	19343
816.948	19354
817.089	19510
817.23	19525
817.371	19396
817.512	19297
817.653	19403
817.793	19308
817.934	19495
818.075	19259
818.216	19358
818.356	19301
818.497	19164
818.638	19141
818.778	19053
818.919	19072
819.06	19126
819.2	19179
819.341	19289
819.481	19194
819.622	19453
819.762	19464
819.903	19502
820.043	19381
820.184	19282
820.324	19358
820.465	19403
820.605	19362
820.746	19327
820.886	19202
821.026	19293
821.167	19190
821.307	19343
821.447	19266
821.588	19168
821.728	19034
821.868	18840
822.008	18688
822.149	18798
822.289	18753
822.429	18570
822.569	18433
822.709	18422
822.849	18372
822.99	18224
823.13	18182
823.27	18262
823.41	18057
823.55	18045
823.69	18057
823.83	17992
823.97	17977
824.11	17752
824.25	17779
824.389	17855
824.529	17954
824.669	17718
824.809	17840
824.949	17866
825.089	17897
825.228	17703
825.368	17589
825.508	17657
825.648	17596
825.787	17528
825.927	17581
826.067	17516
826.206	17619
826.346	17638
826.485	17642
826.625	17615
826.765	17573
826.904	17570
827.044	17490
827.183	17448
827.323	17345
827.462	17391
827.601	17311
827.741	17303
827.88	17261
828.02	17212
828.159	17326
828.298	17284
828.437	17330
828.577	17223
828.716	17474
828.855	17227
828.994	17178
829.134	16991
829.273	17056
829.412	16987
829.551	17003
829.69	17079
829.829	17079
829.968	17155
830.107	17064
830.246	16991
830.385	17029
830.524	16854
830.663	16919
830.802	16820
830.941	16771
831.08	16611
831.219	16740
831.357	16706
831.496	16904
831.635	16588
831.774	16474
831.913	16565
832.051	16379
832.19	16417
832.329	16497
832.467	16451
832.606	16322
832.744	16287
832.883	16291
833.022	16417
833.16	16447
833.299	16417
833.437	16253
833.576	16409
833.714	16428
833.852	16261
833.991	16478
834.129	16500
834.267	16371
834.406	16272
834.544	16470
834.682	16565
834.821	16409
834.959	16554
835.097	16386
835.235	16466
835.373	16432
835.511	16462
835.65	16322
835.788	16360
835.926	16226
836.064	16139
836.202	16204
836.34	16421
836.478	16394
836.615	16386
836.753	16360
836.891	16424
837.029	16379
837.167	16303
837.305	16295
837.443	16211
837.58	16181
837.718	16215
837.856	16375
837.993	16204
838.131	16230
838.269	16154
838.406	16051
838.544	16143
838.681	15991
838.819	15865
838.956	15770
839.094	15724
839.231	15800
839.369	15781
839.506	16196
839.643	16017
839.781	15751
839.918	15728
840.055	15804
840.193	15705
840.33	15728
840.467	15800
840.604	15766
840.742	16013
840.879	15591
841.016	15720
841.153	15686
841.29	15884
841.427	15804
841.564	15793
841.701	15808
841.838	15663
841.975	15743
842.112	15736
842.249	15485
842.385	15481
842.522	15804
842.659	15534
842.796	15553
842.933	15473
843.069	15549
843.206	15454
843.343	15641
843.479	15595
843.616	15553
843.752	15317
843.889	15428
844.025	15526
844.162	15313
844.298	15416
844.435	15348
844.571	15275
844.708	15329
844.844	15424
844.98	15542
845.117	15397
845.253	15283
845.389	15211
845.525	15203
845.661	15241
845.798	15039
845.934	15184
846.07	15135
846.206	15142
846.342	15268
846.478	15138
846.614	14979
846.75	14937
846.886	14895
847.022	14921
847.158	14921
847.294	14906
847.429	14910
847.565	14880
847.701	15184
847.837	14590
847.972	14610
848.108	14785
848.244	14708
848.379	14575
848.515	14423
848.65	14442
848.786	14484
848.921	14499
849.057	14560
849.192	14670
849.328	14541
849.463	14594
849.598	14507
849.734	14393
849.869	14343
850.004	14317
850.14	14336
850.275	14278
850.41	14157
850.545	14214
850.68	14240
850.815	14324
850.95	14180
851.085	14442
851.22	14366
851.355	14320
851.49	14278
851.625	14134
851.76	14244
851.895	14157
852.03	14202
852.165	14233
852.299	14282
852.434	14332
852.569	14355
852.703	14305
852.838	14366
852.973	14423
853.107	14393
853.242	14214
853.376	14168
853.511	14050
853.645	14119
853.78	14240
853.914	14206
854.048	14046
854.183	14069
854.317	14115
854.451	14389
854.585	14092
854.72	14054
854.854	14233
854.988	14096
855.122	14115
855.256	14058
855.39	14168
855.524	14153
855.658	14195
855.792	14123
855.926	14218
856.06	14271
856.194	14286
856.327	14172
856.461	14119
856.595	14096
856.729	14058
856.862	14240
856.996	14210
857.13	14237
857.263	14244
857.397	14229
857.53	14153
857.664	14054
857.797	14214
857.931	14168
858.064	14142
858.197	14206
858.331	14123
858.464	14107
858.597	14065
858.731	14164
858.864	14142
858.997	14077
859.13	14134
859.263	14202
859.396	14263
859.529	14077
859.662	14088
859.795	14084
859.928	14142
860.061	14336
860.194	14343
860.327	14161
860.46	14103
860.592	14282
860.725	14320
860.858	14183
860.99	14123
861.123	14084
861.256	14115
861.388	14138
861.521	14906
861.653	13986
861.786	13951
861.918	14073
862.05	14035
862.183	13982
862.315	13997
862.447	14088
862.58	14134
862.712	13947
862.844	13887
862.976	13967
863.108	14005
863.24	14290
863.372	13849
863.504	13852
863.636	13932
863.768	14035
863.9	13932
864.032	13879
864.164	14020
864.296	13887
864.428	13982
864.559	14001
864.691	14027
864.823	14005
864.954	13921
865.086	13902
865.217	13951
865.349	13852
865.48	13955
865.612	13928
865.743	14001
865.875	13890
866.006	13837
866.137	13940
866.269	13932
866.4	13879
866.531	13909
866.662	13894
866.793	13887
866.924	13864
867.055	13967
867.186	13860
867.317	13826
867.448	13818
867.579	13811
867.71	13868
867.841	13795
867.972	13932
868.103	13894
868.233	13875
868.364	13932
868.495	13986
868.625	14092
868.756	14248
868.886	14119
869.017	14138
869.147	14206
869.278	14298
869.408	14145
869.539	14145
869.669	14240
869.799	14172
869.929	14282
870.06	14282
870.19	14545
870.32	14355
870.45	14533
870.58	14560
870.71	14629
870.84	14640
870.97	14575
871.1	14488
871.23	14735
871.36	14651
871.489	14727
871.619	14727
871.749	14731
871.879	14876
872.008	14941
872.138	14735
872.267	14678
872.397	14602
872.526	14575
872.656	14632
872.785	14587
872.915	14769
873.044	14823
873.173	14861
873.303	14842
873.432	14944
873.561	14883
873.69	14811
873.819	14758
873.948	14921
874.077	14876
874.206	14796
874.335	14880
874.464	15005
874.593	15013
874.722	15085
874.851	15146
874.979	15154
875.108	15173
875.237	15028
875.365	15020
875.494	15093
875.623	15294
875.751	15154
875.88	15180
876.008	15313
876.136	15317
876.265	15500
876.393	15720
876.521	15694
876.65	15705
876.778	15648
876.906	15416
877.034	15439
877.162	15576
877.29	15443
877.418	15469
877.546	15515
877.674	15557
877.802	15504
877.93	15618
878.058	15473
878.185	15485
878.313	15519
878.441	15663
878.568	15386
878.696	15481
878.824	15591
878.951	15557
879.079	15713
879.206	15857
879.333	15747
879.461	15610
879.588	15637
879.715	15755
879.842	15937
879.97	15549
880.097	15473
880.224	15378
880.351	15336
880.478	15405
880.605	15447
880.732	15348
880.859	15675
880.986	15355
881.112	15515
881.239	15264
881.366	15169
881.493	15077
881.619	15001
881.746	15074
881.872	14982
881.999	15055
882.125	15017
882.252	15043
882.378	15074
882.505	15146
882.631	14952
882.757	14891
882.883	14899
883.01	14914
883.136	14819
883.262	14788
883.388	14735
883.514	14937
883.64	14899
883.766	14693
883.892	14712
884.018	14712
884.143	14849
884.269	14914
884.395	14552
884.52	14606
884.646	14606
884.772	14549
884.897	14537
885.023	14594
885.148	14731
885.274	14773
885.399	14686
885.524	14617
885.65	14602
885.775	14659
885.9	14514
886.025	14796
886.15	14667
886.275	14530
886.4	14537
886.525	14651
886.65	14514
886.775	14526
886.9	14674
887.025	14830
887.149	14621
887.274	14446
887.399	14336
887.523	14343
887.648	14286
887.773	14294
887.897	14446
888.021	14438
888.146	14412
888.27	14495
888.395	14564
888.519	14518
888.643	14461
888.767	14469
888.891	14370
889.015	14275
889.139	14343
889.263	14237
889.387	14317
889.511	14545
889.635	14461
889.759	14374
889.883	14294
890.006	14336
890.13	14339
890.254	14107
890.377	14339
890.501	14024
890.624	14119
890.748	14157
890.871	14054
890.995	13974
891.118	13902
891.241	13928
891.364	13947
891.488	14084
891.611	14035
891.734	13909
891.857	14043
891.98	13982
892.103	14046
892.226	14031
892.349	13951
892.471	13864
892.594	13909
892.717	13978
892.839	13967
892.962	13955
893.085	14111
893.207	13967
893.33	13883
893.452	13959
893.575	13959
893.697	13928
893.819	14214
893.941	14225
894.064	14058
894.186	13978
894.308	14016
894.43	14065
894.552	14145
894.674	14092
894.796	14031
894.918	14005
895.04	14065
895.161	14092
895.283	14001
895.405	13967
895.526	14092
895.648	14111
895.769	14119
895.891	14168
896.012	14313
896.134	14180
896.255	14214
896.376	14176
896.498	14065
896.619	14187
896.74	14164
896.861	14252
896.982	14522
897.103	14667
897.224	14454
897.345	14454
897.466	14339
897.587	14358
897.708	14507
897.828	14564
897.949	14336
898.07	14191
898.19	14290
898.311	14594
898.431	14476
898.552	14442
898.672	14590
898.792	14636
898.913	14511
899.033	14541
899.153	14256
899.273	14278
899.393	14305
899.513	14431
899.633	14301
899.753	14355
899.873	14385
899.993	14434
900.113	14309
900.232	14427
900.352	14305
900.472	14225
900.591	14191
900.711	14199
900.83	14229
900.95	14355
901.069	14317
901.189	14176
901.308	14020
901.427	13928
901.546	13906
901.665	13932
901.784	13807
901.904	13814
902.023	13696
902.141	13533
902.26	13457
902.379	13567
902.498	13464
902.617	13464
902.735	13499
902.854	13403
902.973	13460
903.091	13183
903.21	13266
903.328	13209
903.446	13149
903.565	13118
903.683	13019
903.801	12970
903.919	13008
904.038	13061
904.156	12867
904.274	12901
904.392	12817
904.51	12837
904.627	12848
904.745	12913
904.863	12890
904.981	12707
905.098	12532
905.216	12460
905.334	12646
905.451	12475
905.569	12456
905.686	12601
905.803	12604
905.921	12388
906.038	12490
906.155	12365
906.272	12323
906.389	12239
906.506	12140
906.623	12175
906.74	12159
906.857	12011
906.974	12102
907.091	12228
907.208	12270
907.324	12201
907.441	12129
907.557	11977
907.674	11946
907.79	11836
907.907	11855
908.023	11893
908.139	11893
908.256	11779
908.372	11874
908.488	11775
908.604	11722
908.72	11554
908.836	11657
908.952	11581
909.068	11707
909.184	11859
909.3	11604
909.415	11729
909.531	11695
909.647	11417
909.762	11497
909.878	11433
909.993	11455
910.108	11455
910.224	11406
910.339	11391
910.454	11360
910.57	11235
910.685	11258
910.8	11570
910.915	11478
911.03	11330
911.145	11090
911.259	11128
911.374	11105
911.489	11006
911.604	10968
911.718	10915
911.833	10915
911.947	10854
912.062	10717
912.176	10881
912.291	10869
912.405	10892
912.519	11075
912.633	11064
912.748	10946
912.862	10953
912.976	10687
913.09	10607
913.204	10729
913.318	10702
913.431	10866
913.545	10919
913.659	10911
913.772	10786
913.886	10626
914	10698
914.113	10721
914.226	10835
914.34	10820
914.453	10603
914.566	10687
914.68	10618
914.793	10599
914.906	10424
915.019	10280
915.132	10329
915.245	10367
915.358	10360
915.47	10409
915.583	10489
915.696	10512
915.809	10523
915.921	10542
916.034	10443
916.146	10299
916.259	10405
916.371	10421
916.483	10344
916.595	10325
916.708	10413
916.82	10356
916.932	10329
917.044	10261
917.156	10287
917.268	10128
917.38	10246
917.491	10185
917.603	10295
917.715	10306
917.826	10360
917.938	10204
918.049	10101
918.161	10219
918.272	10341
918.384	10329
918.495	10306
918.606	10086
918.717	10025
918.828	10032
918.939	10109
919.05	9991
919.161	10071
919.272	9861
919.383	10040
919.494	10112
919.604	10367
919.715	10139
919.826	10071
919.936	10059
920.047	10166
920.157	10101
920.267	10386
920.378	10188
920.488	10128
920.598	10310
920.708	10481
920.818	10348
920.928	10306
921.038	10455
921.148	10363
921.258	10223
921.368	10166
921.477	9972
921.587	10021
921.697	9907
921.806	10032
921.916	9895
922.025	9728
922.134	9641
922.244	9648
922.353	9797
922.462	9584
922.571	9561
922.68	9481
922.789	9408
922.898	9382
923.007	9226
923.116	9428
923.224	9386
923.333	9370
923.442	9344
923.55	9340
923.659	9291
923.767	9321
923.876	9241
923.984	9298
924.092	9218
924.201	9230
924.309	9253
924.417	9222
924.525	9233
924.633	9279
924.741	10166
924.849	9097
924.956	9165
925.064	9077
925.172	8952
925.279	8994
925.387	9028
925.494	9089
925.602	9207
925.709	9146
925.816	9020
925.924	9043
926.031	9161
926.138	9077
926.245	9127
926.352	8975
926.459	9123
926.566	9169
926.673	9017
926.779	8887
926.886	8826
926.993	8777
927.099	8769
927.206	8735
927.312	8750
927.419	8804
927.525	8788
927.631	8815
927.737	8754
927.843	8739
927.95	8549
928.056	8663
928.162	8636
928.267	8697
928.373	9260
928.479	8762
928.585	8560
928.69	8651
928.796	8705
928.901	8503
929.007	8442
929.112	8613
929.218	8514
929.323	8571
929.428	8484
929.533	8674
929.638	8480
929.743	8533
929.848	8545
929.953	8484
930.058	8282
930.163	8263
930.267	8290
930.372	8415
930.477	8225
930.581	8465
930.685	8282
930.79	8142
930.894	8252
930.998	8130
931.103	8358
931.207	8020
931.311	7902
931.415	7875
931.519	7700
931.623	7712
