Data from test_V78500241_1056.txt Node
Date: Fri Mar 25 14:41:04 CST 2022
User: usil
Spectrometer: V785-0024
Trigger mode: 0
Integration Time (sec): 4.000000E-1
Scans to average: 1
Nonlinearity correction enabled: false
Boxcar width: 0
Storing dark spectrum: false
XAxis mode: Wavelengths
Number of Pixels in Spectrum: 1024
>>>>>Begin Spectral Data<<<<<
801.071	22816
801.214	22656
801.356	22512
801.499	22421
801.641	22276
801.783	22147
801.926	22360
802.068	22192
802.211	22021
802.353	22013
802.496	21884
802.638	21728
802.78	21690
802.923	21507
803.065	21561
803.208	21561
803.35	21568
803.492	21709
803.635	21637
803.777	21572
803.919	21572
804.061	21865
804.204	21648
804.346	21667
804.488	21538
804.63	21545
804.773	21458
804.915	21408
805.057	21705
805.199	21523
805.341	21428
805.483	21549
805.626	21519
805.768	21389
805.91	21485
806.052	21500
806.194	21420
806.336	21739
806.478	21507
806.62	21466
806.762	21625
806.904	21739
807.046	21899
807.188	21854
807.33	21873
807.472	21956
807.614	21861
807.756	21857
807.898	21835
808.04	21755
808.182	21751
808.324	21949
808.465	22048
808.607	22344
808.749	22542
808.891	22713
809.033	22698
809.174	22500
809.316	22443
809.458	22394
809.6	22291
809.741	22207
809.883	22116
810.025	22276
810.166	22162
810.308	22234
810.45	22162
810.591	22074
810.733	21953
810.875	21724
811.016	21686
811.158	21599
811.299	21739
811.441	21835
811.582	21717
811.724	21713
811.865	21663
812.007	21732
812.148	21743
812.29	21816
812.431	22040
812.573	22017
812.714	22158
812.855	22249
812.997	22322
813.138	22489
813.279	22253
813.421	22192
813.562	22173
813.703	22048
813.845	21941
813.986	21656
814.127	21519
814.268	21325
814.41	21340
814.551	21237
814.692	21283
814.833	21100
814.974	21359
815.115	21283
815.256	21127
815.397	21119
815.539	20994
815.68	21032
815.821	21032
815.962	21024
816.103	20956
816.244	20769
816.385	20750
816.526	20765
816.666	20613
816.807	20385
816.948	20587
817.089	20469
817.23	20514
817.371	20374
817.512	20514
817.653	20339
817.793	20278
817.934	20484
818.075	20328
818.216	20613
818.356	20412
818.497	20267
818.638	20126
818.778	20149
818.919	20164
819.06	20103
819.2	20286
819.341	20301
819.481	20214
819.622	20431
819.762	20632
819.903	20541
820.043	20461
820.184	20400
820.324	20415
820.465	20404
820.605	20438
820.746	20396
820.886	20233
821.026	20301
821.167	20385
821.307	20370
821.447	20332
821.588	20202
821.728	20115
821.868	20088
822.008	19791
822.149	19833
822.289	19746
822.429	19670
822.569	19426
822.709	19529
822.849	19251
822.99	19194
823.13	19198
823.27	19160
823.41	19156
823.55	18973
823.69	19019
823.83	19031
823.97	18878
824.11	18859
824.25	18776
824.389	18924
824.529	18973
824.669	18814
824.809	18920
824.949	18985
825.089	18947
825.228	18833
825.368	18726
825.508	18669
825.648	18608
825.787	18700
825.927	18692
826.067	18563
826.206	18608
826.346	18623
826.485	18623
826.625	18601
826.765	18741
826.904	18623
827.044	18475
827.183	18350
827.323	18429
827.462	18407
827.601	18281
827.741	18285
827.88	18289
828.02	18159
828.159	18346
828.298	18281
828.437	18369
828.577	18323
828.716	18448
828.855	18323
828.994	18163
829.134	18155
829.273	18167
829.412	18114
829.551	18129
829.69	18022
829.829	18095
829.968	18239
830.107	18064
830.246	18098
830.385	17984
830.524	18007
830.663	17939
830.802	17680
830.941	17684
831.08	17657
831.219	17714
831.357	17676
831.496	17855
831.635	17684
831.774	17665
831.913	17532
832.051	17516
832.19	17402
832.329	17524
832.467	17429
832.606	17299
832.744	17307
832.883	17273
833.022	17334
833.16	17376
833.299	17467
833.437	17307
833.576	17471
833.714	17425
833.852	17478
833.991	17638
834.129	17512
834.267	17482
834.406	17425
834.544	17551
834.682	17383
834.821	17387
834.959	17596
835.097	17387
835.235	17516
835.373	17615
835.511	17459
835.65	17239
835.788	17322
835.926	17227
836.064	17105
836.202	17113
836.34	17315
836.478	17463
836.615	17303
836.753	17318
836.891	17414
837.029	17364
837.167	17246
837.305	17227
837.443	17197
837.58	17166
837.718	17280
837.856	17181
837.993	17178
838.131	17162
838.269	17056
838.406	17086
838.544	17102
838.681	16885
838.819	16965
838.956	16713
839.094	16740
839.231	16790
839.369	16927
839.506	17166
839.643	17037
839.781	16744
839.918	16702
840.055	16873
840.193	16740
840.33	16653
840.467	16721
840.604	16717
840.742	16984
840.879	16588
841.016	16577
841.153	16698
841.29	16820
841.427	16748
841.564	16797
841.701	16611
841.838	16577
841.975	16596
842.112	16573
842.249	16531
842.385	16455
842.522	16630
842.659	16500
842.796	16478
842.933	16519
843.069	16417
843.206	16489
843.343	16580
843.479	16436
843.616	16485
843.752	16272
843.889	16287
844.025	16432
844.162	16246
844.298	16489
844.435	16238
844.571	16322
844.708	16390
844.844	16519
844.98	16538
845.117	16474
845.253	16314
845.389	16379
845.525	16417
845.661	16519
845.798	16580
845.934	16786
846.07	16774
846.206	16919
846.342	16896
846.478	16459
846.614	16204
846.75	15991
846.886	15926
847.022	15987
847.158	15945
847.294	15899
847.429	15842
847.565	15842
847.701	16101
847.837	15629
847.972	15641
848.108	15656
848.244	15629
848.379	15462
848.515	15485
848.65	15393
848.786	15370
848.921	15386
849.057	15393
849.192	15587
849.328	15580
849.463	15458
849.598	15325
849.734	15317
849.869	15329
850.004	15245
850.14	15161
850.275	15260
850.41	15104
850.545	15173
850.68	15135
850.815	15275
850.95	15245
851.085	15428
851.22	15344
851.355	15233
851.49	15184
851.625	15188
851.76	15074
851.895	15100
852.03	15028
852.165	15108
852.299	15245
852.434	15287
852.569	15127
852.703	15260
852.838	15351
852.973	15332
853.107	15256
853.242	15203
853.376	15089
853.511	15043
853.645	15180
853.78	15089
853.914	15085
854.048	15055
854.183	14986
854.317	15066
854.451	15180
854.585	15123
854.72	15005
854.854	15112
854.988	15028
855.122	15001
855.256	14895
855.39	15032
855.524	15157
855.658	15024
855.792	15058
855.926	15127
856.06	15112
856.194	15024
856.327	15036
856.461	14952
856.595	15039
856.729	15055
856.862	15180
856.996	15135
857.13	15062
857.263	15184
857.397	15146
857.53	15070
857.664	15077
857.797	15119
857.931	15176
858.064	15081
858.197	15249
858.331	15051
858.464	14975
858.597	14963
858.731	15028
858.864	15055
858.997	15017
859.13	15047
859.263	15028
859.396	15093
859.529	14971
859.662	15039
859.795	15005
859.928	15024
860.061	15188
860.194	15207
860.327	14994
860.46	15081
860.592	15233
860.725	15222
860.858	15135
860.99	14967
861.123	14941
861.256	14948
861.388	15043
861.521	15690
861.653	14906
861.786	14876
861.918	14937
862.05	14952
862.183	15017
862.315	15097
862.447	15047
862.58	14952
862.712	14773
862.844	14708
862.976	14861
863.108	14944
863.24	15264
863.372	14739
863.504	14864
863.636	14853
863.768	14800
863.9	14804
864.032	14758
864.164	14868
864.296	14868
864.428	14986
864.559	14971
864.691	14937
864.823	14811
864.954	14864
865.086	14861
865.217	14777
865.349	14769
865.48	14777
865.612	14838
865.743	14982
865.875	14834
866.006	14617
866.137	14781
866.269	14636
866.4	14750
866.531	14895
866.662	14727
866.793	14868
866.924	14861
867.055	14781
867.186	14815
867.317	14815
867.448	14670
867.579	14602
867.71	14697
867.841	14587
867.972	14842
868.103	14712
868.233	14826
868.364	14842
868.495	14849
868.625	14971
868.756	15097
868.886	14944
869.017	14971
869.147	15138
869.278	15176
869.408	15047
869.539	14952
869.669	15154
869.799	15116
869.929	15161
870.06	15157
870.19	15378
870.32	15283
870.45	15397
870.58	15485
870.71	15492
870.84	15557
870.97	15382
871.1	15386
871.23	15568
871.36	15545
871.489	15485
871.619	15663
871.749	15736
871.879	15587
872.008	15698
872.138	15663
872.267	15557
872.397	15511
872.526	15447
872.656	15473
872.785	15454
872.915	15717
873.044	15648
873.173	15603
873.303	15682
873.432	15724
873.561	15789
873.69	15705
873.819	15614
873.948	15800
874.077	15644
874.206	15606
874.335	15648
874.464	15827
874.593	15960
874.722	15895
874.851	16002
874.979	15987
875.108	16029
875.237	16040
875.365	15937
875.494	16051
875.623	16036
875.751	15876
875.88	16040
876.008	16128
876.136	16249
876.265	16424
876.393	16504
876.521	16504
876.65	16428
876.778	16500
876.906	16432
877.034	16306
877.162	16424
877.29	16322
877.418	16405
877.546	16443
877.674	16405
877.802	16382
877.93	16508
878.058	16398
878.185	16386
878.313	16417
878.441	16394
878.568	16310
878.696	16447
878.824	16554
878.951	16698
879.079	16755
879.206	16854
879.333	16786
879.461	16767
879.588	16843
879.715	16923
879.842	17010
879.97	16717
880.097	16527
880.224	16379
880.351	16360
880.478	16348
880.605	16379
880.732	16424
880.859	16527
880.986	16299
881.112	16375
881.239	16215
881.366	16071
881.493	16048
881.619	15998
881.746	16051
881.872	15949
881.999	15968
882.125	15968
882.252	16093
882.378	16048
882.505	16192
882.631	16010
882.757	15747
882.883	15846
883.01	15793
883.136	15823
883.262	15679
883.388	15701
883.514	15797
883.64	15884
883.766	15812
883.892	15622
884.018	15652
884.143	15762
884.269	15774
884.395	15488
884.52	15523
884.646	15542
884.772	15492
884.897	15435
885.023	15435
885.148	15534
885.274	15576
885.399	15637
885.524	15542
885.65	15443
885.775	15488
885.9	15504
886.025	15572
886.15	15564
886.275	15447
886.4	15329
886.525	15348
886.65	15424
886.775	15447
886.9	15526
887.025	15705
887.149	15447
887.274	15291
887.399	15245
887.523	15279
887.648	15089
887.773	15154
887.897	15401
888.021	15344
888.146	15157
888.27	15359
888.395	15302
888.519	15325
888.643	15386
888.767	15268
888.891	15165
889.015	15119
889.139	15233
889.263	15039
889.387	15127
889.511	15298
889.635	15237
889.759	15195
889.883	15184
890.006	15108
890.13	15176
890.254	14979
890.377	15039
890.501	14910
890.624	14918
890.748	15043
890.871	14857
890.995	14712
891.118	14667
891.241	14800
891.364	14750
891.488	14910
891.611	14777
891.734	14823
891.857	14811
891.98	14838
892.103	14887
892.226	14800
892.349	14701
892.471	14693
892.594	14712
892.717	14746
892.839	14796
892.962	14792
893.085	14781
893.207	14750
893.33	14682
893.452	14613
893.575	14823
893.697	14727
893.819	14876
893.941	15009
894.064	14838
894.186	14769
894.308	14758
894.43	14933
894.552	14876
894.674	14857
894.796	14758
894.918	14746
895.04	14754
895.161	14845
895.283	14857
895.405	14826
895.526	14800
895.648	14826
895.769	14933
895.891	14849
896.012	14899
896.134	15013
896.255	14819
896.376	14823
896.498	14838
896.619	14944
896.74	14838
896.861	15032
896.982	15256
897.103	15458
897.224	15214
897.345	15203
897.466	15108
897.587	15203
897.708	15317
897.828	15268
897.949	15116
898.07	15013
898.19	15085
898.311	15355
898.431	15142
898.552	15287
898.672	15310
898.792	15279
898.913	15306
899.033	15100
899.153	15051
899.273	15028
899.393	15032
899.513	14979
899.633	15123
899.753	15112
899.873	15028
899.993	15214
900.113	15032
900.232	15097
900.352	15055
900.472	15051
900.591	14933
900.711	14868
900.83	14834
900.95	15020
901.069	15058
901.189	14914
901.308	14712
901.427	14670
901.546	14575
901.665	14625
901.784	14629
901.904	14473
902.023	14423
902.141	14176
902.26	14210
902.379	14286
902.498	14123
902.617	14111
902.735	14214
902.854	14214
902.973	14161
903.091	13849
903.21	13860
903.328	13894
903.446	13795
903.565	13708
903.683	13750
903.801	13571
903.919	13620
904.038	13719
904.156	13559
904.274	13567
904.392	13502
904.51	13468
904.627	13575
904.745	13662
904.863	13559
904.981	13388
905.098	13255
905.216	13217
905.334	13259
905.451	13304
905.569	13236
905.686	13225
905.803	13137
905.921	13038
906.038	13164
906.155	13095
906.272	12905
906.389	12913
906.506	12821
906.623	12871
906.74	12783
906.857	12597
906.974	12650
907.091	12814
907.208	12882
907.324	12764
907.441	12707
907.557	12642
907.674	12604
907.79	12445
907.907	12513
908.023	12582
908.139	12532
908.256	12452
908.372	12437
908.488	12414
908.604	12315
908.72	12262
908.836	12353
908.952	12243
909.068	12281
909.184	12388
909.3	12285
909.415	12433
909.531	12315
909.647	12106
909.762	12079
909.878	12064
909.993	12125
910.108	12053
910.224	11996
910.339	12034
910.454	11969
910.57	11931
910.685	11870
910.8	12190
910.915	12064
911.03	11965
911.145	11764
911.259	11703
911.374	11802
911.489	11649
911.604	11653
911.718	11524
911.833	11558
911.947	11444
912.062	11368
912.176	11463
912.291	11551
912.405	11467
912.519	11665
912.633	11707
912.748	11608
912.862	11474
912.976	11421
913.09	11265
913.204	11372
913.318	11410
913.431	11414
913.545	11452
913.659	11482
913.772	11303
913.886	11315
914	11261
914.113	11322
914.226	11277
914.34	11398
914.453	11181
914.566	11387
914.68	11124
914.793	11258
914.906	10991
915.019	10946
915.132	10828
915.245	10930
915.358	10984
915.47	10965
915.583	10995
915.696	11041
915.809	11140
915.921	11105
916.034	10930
916.146	10900
916.259	10839
916.371	10949
916.483	10987
916.595	10877
916.708	10850
916.82	10889
916.932	10858
917.044	10866
917.156	10862
917.268	10816
917.38	10839
917.491	10736
917.603	10797
917.715	10835
917.826	10877
917.938	10752
918.049	10649
918.161	10786
918.272	10828
918.384	10915
918.495	10786
918.606	10611
918.717	10630
918.828	10664
918.939	10653
919.05	10577
919.161	10702
919.272	10428
919.383	10538
919.494	10634
919.604	10873
919.715	10725
919.826	10569
919.936	10622
920.047	10729
920.157	10679
920.267	10915
920.378	10710
920.488	10645
920.598	10847
920.708	10976
920.818	10900
920.928	10835
921.038	10965
921.148	11060
921.258	10649
921.368	10615
921.477	10535
921.587	10508
921.697	10348
921.806	10489
921.916	10443
922.025	10265
922.134	10230
922.244	10139
922.353	10188
922.462	10082
922.571	10059
922.68	9869
922.789	9846
922.898	9907
923.007	9793
923.116	9941
923.224	9937
923.333	9915
923.442	9800
923.55	9781
923.659	9793
923.767	9823
923.876	9682
923.984	9827
924.092	9667
924.201	9793
924.309	9755
924.417	9800
924.525	9614
924.633	9724
924.741	10668
924.849	9507
924.956	9705
925.064	9507
925.172	9454
925.279	9454
925.387	9511
925.494	9488
925.602	9667
925.709	9622
925.816	9428
925.924	9523
926.031	9595
926.138	9549
926.245	9603
926.352	9431
926.459	9523
926.566	9637
926.673	9405
926.779	9386
926.886	9351
926.993	9184
927.099	9264
927.206	9207
927.312	9180
927.419	9226
927.525	9199
927.631	9253
927.737	9085
927.843	9112
927.95	9039
928.056	9074
928.162	9097
928.267	9104
928.373	9819
928.479	9150
928.585	8963
928.69	9085
928.796	9116
928.901	8986
929.007	8921
929.112	9001
929.218	8929
929.323	8914
929.428	8807
929.533	9055
929.638	8895
929.743	8902
929.848	8891
929.953	8823
930.058	8792
930.163	8640
930.267	8651
930.372	8891
930.477	8724
930.581	8899
930.685	8727
930.79	8632
930.894	8625
930.998	8602
931.103	8838
931.207	8355
931.311	8324
931.415	8256
931.519	8142
931.623	8096
