Data from test_V78500241_3373.txt Node
Date: Fri Mar 25 14:57:12 CST 2022
User: usil
Spectrometer: V785-0024
Trigger mode: 0
Integration Time (sec): 4.000000E-1
Scans to average: 1
Nonlinearity correction enabled: false
Boxcar width: 0
Storing dark spectrum: false
XAxis mode: Wavelengths
Number of Pixels in Spectrum: 1024
>>>>>Begin Spectral Data<<<<<
801.071	21930
801.214	21827
801.356	21393
801.499	21351
801.641	21386
801.783	21416
801.926	21241
802.068	21252
802.211	21184
802.353	21047
802.496	20788
802.638	20785
802.78	20727
802.923	20670
803.065	20476
803.208	20663
803.35	20712
803.492	20651
803.635	20758
803.777	20621
803.919	20659
804.061	20982
804.204	20686
804.346	20526
804.488	20465
804.63	20606
804.773	20423
804.915	20526
805.057	20609
805.199	20511
805.341	20522
805.483	20708
805.626	20590
805.768	20484
805.91	20526
806.052	20461
806.194	20438
806.336	20743
806.478	20434
806.62	20332
806.762	20636
806.904	20746
807.046	20853
807.188	20773
807.33	20731
807.472	20891
807.614	20701
807.756	20887
807.898	20590
808.04	20530
808.182	20541
808.324	20590
808.465	20663
808.607	20842
808.749	20800
808.891	20899
809.033	21093
809.174	20925
809.316	20868
809.458	20834
809.6	20788
809.741	20990
809.883	20910
810.025	20887
810.166	21017
810.308	20960
810.45	20963
810.591	20853
810.733	20857
810.875	20686
811.016	20541
811.158	20469
811.299	20590
811.441	20735
811.582	20842
811.724	20590
811.865	20492
812.007	20590
812.148	20530
812.29	20644
812.431	20967
812.573	20990
812.714	21062
812.855	21150
812.997	21165
813.138	21367
813.279	21142
813.421	21131
813.562	21017
813.703	20864
813.845	20750
813.986	20533
814.127	20408
814.268	20164
814.41	20271
814.551	20130
814.692	20240
814.833	20103
814.974	20043
815.115	20183
815.256	20012
815.397	20024
815.539	20001
815.68	19951
815.821	19940
815.962	19917
816.103	19875
816.244	19674
816.385	19578
816.526	19662
816.666	19362
816.807	19259
816.948	19449
817.089	19468
817.23	19228
817.371	19343
817.512	19327
817.653	19388
817.793	19270
817.934	19266
818.075	19384
818.216	19301
818.356	19053
818.497	19080
818.638	18913
818.778	19038
818.919	18954
819.06	18996
819.2	19110
819.341	19088
819.481	19160
819.622	19308
819.762	19476
819.903	19377
820.043	19301
820.184	19335
820.324	19247
820.465	19377
820.605	19327
820.746	19339
820.886	19099
821.026	19225
821.167	19247
821.307	19419
821.447	19327
821.588	19137
821.728	19031
821.868	18848
822.008	18646
822.149	18741
822.289	18711
822.429	18384
822.569	18369
822.709	18376
822.849	18247
822.99	18136
823.13	18167
823.27	18201
823.41	18117
823.55	17935
823.69	17980
823.83	17950
823.97	17870
824.11	17745
824.25	17722
824.389	17802
824.529	17824
824.669	17745
824.809	17863
824.949	17885
825.089	17847
825.228	17802
825.368	17627
825.508	17551
825.648	17539
825.787	17676
825.927	17646
826.067	17520
826.206	17596
826.346	17585
826.485	17493
826.625	17611
826.765	17566
826.904	17585
827.044	17406
827.183	17303
827.323	17159
827.462	17258
827.601	17318
827.741	17292
827.88	17273
828.02	17151
828.159	17216
828.298	17284
828.437	17239
828.577	17117
828.716	17379
828.855	17075
828.994	16961
829.134	17052
829.273	16980
829.412	17041
829.551	17003
829.69	16881
829.829	17025
829.968	17079
830.107	17037
830.246	17090
830.385	16976
830.524	16923
830.663	16835
830.802	16683
830.941	16558
831.08	16611
831.219	16748
831.357	16630
831.496	16900
831.635	16603
831.774	16538
831.913	16493
832.051	16405
832.19	16428
832.329	16508
832.467	16432
832.606	16268
832.744	16303
832.883	16360
833.022	16246
833.16	16249
833.299	16371
833.437	16371
833.576	16432
833.714	16375
833.852	16428
833.991	16451
834.129	16459
834.267	16337
834.406	16341
834.544	16413
834.682	16356
834.821	16360
834.959	16546
835.097	16424
835.235	16573
835.373	16474
835.511	16443
835.65	16253
835.788	16272
835.926	16185
836.064	16177
836.202	16086
836.34	16249
836.478	16322
836.615	16234
836.753	16306
836.891	16440
837.029	16348
837.167	16188
837.305	16173
837.443	16131
837.58	16112
837.718	16185
837.856	16249
837.993	16063
838.131	16215
838.269	16090
838.406	16158
838.544	15968
838.681	15934
838.819	15922
838.956	15728
839.094	15709
839.231	15789
839.369	15941
839.506	16166
839.643	16071
839.781	15743
839.918	15713
840.055	15713
840.193	15724
840.33	15701
840.467	15564
840.604	15789
840.742	15972
840.879	15682
841.016	15580
841.153	15637
841.29	15972
841.427	15713
841.564	15728
841.701	15675
841.838	15698
841.975	15671
842.112	15701
842.249	15485
842.385	15412
842.522	15682
842.659	15564
842.796	15435
842.933	15519
843.069	15568
843.206	15553
843.343	15717
843.479	15553
843.616	15507
843.752	15359
843.889	15279
844.025	15443
844.162	15218
844.298	15306
844.435	15370
844.571	15123
844.708	15256
844.844	15416
844.98	15435
845.117	15431
845.253	15275
845.389	15176
845.525	15169
845.661	15188
845.798	15047
845.934	15176
846.07	15017
846.206	15173
846.342	15199
846.478	15116
846.614	15024
846.75	14883
846.886	14861
847.022	14975
847.158	14792
847.294	14876
847.429	14952
847.565	14876
847.701	15017
847.837	14571
847.972	14636
848.108	14739
848.244	14689
848.379	14564
848.515	14537
848.65	14465
848.786	14507
848.921	14552
849.057	14598
849.192	14583
849.328	14537
849.463	14613
849.598	14488
849.734	14400
849.869	14347
850.004	14259
850.14	14317
850.275	14233
850.41	14145
850.545	14218
850.68	14214
850.815	14126
850.95	14225
851.085	14465
851.22	14309
851.355	14278
851.49	14164
851.625	14229
851.76	14233
851.895	14183
852.03	14138
852.165	14221
852.299	14195
852.434	14259
852.569	14237
852.703	14313
852.838	14400
852.973	14347
853.107	14385
853.242	14149
853.376	14077
853.511	13932
853.645	14088
853.78	14248
853.914	14058
854.048	14081
854.183	14005
854.317	14081
854.451	14290
854.585	14164
854.72	14073
854.854	14172
854.988	14035
855.122	14115
855.256	13944
855.39	14172
855.524	14218
855.658	14187
855.792	14176
855.926	14183
856.06	14077
856.194	14210
856.327	14142
856.461	14008
856.595	14092
856.729	14092
856.862	14259
856.996	14180
857.13	14267
857.263	14183
857.397	14240
857.53	14062
857.664	14107
857.797	14263
857.931	14259
858.064	14229
858.197	14161
858.331	14062
858.464	14096
858.597	13963
858.731	14073
858.864	14073
858.997	14096
859.13	14130
859.263	14138
859.396	14065
859.529	14062
859.662	14035
859.795	14126
859.928	14096
860.061	14248
860.194	14343
860.327	14214
860.46	14081
860.592	14225
860.725	14248
860.858	14237
860.99	14134
861.123	14073
861.256	14054
861.388	14103
861.521	14963
861.653	14024
861.786	14031
861.918	13982
862.05	14050
862.183	14103
862.315	14088
862.447	14062
862.58	14008
862.712	13944
862.844	13814
862.976	13917
863.108	13879
863.24	14450
863.372	13860
863.504	13906
863.636	13894
863.768	13947
863.9	13993
864.032	13932
864.164	13913
864.296	13970
864.428	13978
864.559	14031
864.691	13936
864.823	13959
864.954	13947
865.086	13917
865.217	13871
865.349	13818
865.48	13883
865.612	13837
865.743	13959
865.875	13860
866.006	13811
866.137	13887
866.269	13913
866.4	13951
866.531	13932
866.662	13814
866.793	13913
866.924	13837
867.055	13978
867.186	13982
867.317	13822
867.448	13803
867.579	13833
867.71	13830
867.841	13845
867.972	13875
868.103	13845
868.233	13928
868.364	13951
868.495	13974
868.625	14107
868.756	14130
868.886	13989
869.017	14058
869.147	14282
869.278	14187
869.408	14237
869.539	14187
869.669	14233
869.799	14130
869.929	14225
870.06	14183
870.19	14393
870.32	14427
870.45	14503
870.58	14617
870.71	14686
870.84	14686
870.97	14484
871.1	14522
871.23	14716
871.36	14663
871.489	14610
871.619	14670
871.749	14750
871.879	14773
872.008	14838
872.138	14777
872.267	14705
872.397	14670
872.526	14568
872.656	14530
872.785	14606
872.915	14842
873.044	14838
873.173	14811
873.303	14765
873.432	14876
873.561	14937
873.69	14815
873.819	14781
873.948	14872
874.077	14868
874.206	14796
874.335	14777
874.464	14887
874.593	15032
874.722	15062
874.851	15203
874.979	15135
875.108	15089
875.237	15017
875.365	15116
875.494	15093
875.623	15195
875.751	15100
875.88	15112
876.008	15218
876.136	15370
876.265	15523
876.393	15789
876.521	15637
876.65	15576
876.778	15682
876.906	15568
877.034	15424
877.162	15576
877.29	15416
877.418	15545
877.546	15545
877.674	15496
877.802	15534
877.93	15549
878.058	15389
878.185	15462
878.313	15576
878.441	15599
878.568	15313
878.696	15591
878.824	15614
878.951	15622
879.079	15701
879.206	15778
879.333	15800
879.461	15622
879.588	15675
879.715	15759
879.842	15816
879.97	15644
880.097	15351
880.224	15420
880.351	15450
880.478	15454
880.605	15420
880.732	15428
880.859	15641
880.986	15378
881.112	15538
881.239	15363
881.366	15245
881.493	15135
881.619	14998
881.746	15051
881.872	15005
881.999	15173
882.125	15066
882.252	15116
882.378	15085
882.505	15264
882.631	14944
882.757	14887
882.883	15001
883.01	14891
883.136	14819
883.262	14735
883.388	14769
883.514	14933
883.64	14998
883.766	14838
883.892	14655
884.018	14773
884.143	14960
884.269	15020
884.395	14697
884.52	14663
884.646	14629
884.772	14571
884.897	14522
885.023	14583
885.148	14670
885.274	14804
885.399	14777
885.524	14579
885.65	14621
885.775	14674
885.9	14602
886.025	14781
886.15	14651
886.275	14556
886.4	14526
886.525	14613
886.65	14556
886.775	14541
886.9	14750
887.025	14800
887.149	14606
887.274	14442
887.399	14404
887.523	14484
887.648	14309
887.773	14278
887.897	14495
888.021	14518
888.146	14374
888.27	14473
888.395	14575
888.519	14431
888.643	14442
888.767	14488
888.891	14362
889.015	14275
889.139	14282
889.263	14263
889.387	14347
889.511	14541
889.635	14381
889.759	14259
889.883	14286
890.006	14305
890.13	14438
890.254	14214
890.377	14324
890.501	14142
890.624	13982
890.748	14149
890.871	14046
890.995	13986
891.118	13955
891.241	13997
891.364	14031
891.488	14168
891.611	14073
891.734	14046
891.857	14062
891.98	14024
892.103	14084
892.226	13970
892.349	14046
892.471	13871
892.594	13951
892.717	13932
892.839	13955
892.962	13940
893.085	14092
893.207	13974
893.33	13849
893.452	13902
893.575	14020
893.697	13940
893.819	14142
893.941	14157
894.064	14119
894.186	13993
894.308	14001
894.43	14058
894.552	14195
894.674	14134
894.796	14069
894.918	13970
895.04	14012
895.161	14123
895.283	14202
895.405	14050
895.526	14050
895.648	14050
895.769	14096
895.891	14183
896.012	14256
896.134	14271
896.255	14168
896.376	14058
896.498	14199
896.619	14202
896.74	14263
896.861	14282
896.982	14450
897.103	14697
897.224	14442
897.345	14419
897.466	14351
897.587	14495
897.708	14636
897.828	14438
897.949	14389
898.07	14355
898.19	14419
898.311	14484
898.431	14465
898.552	14511
898.672	14613
898.792	14564
898.913	14454
899.033	14423
899.153	14427
899.273	14248
899.393	14290
899.513	14366
899.633	14484
899.753	14385
899.873	14362
899.993	14457
900.113	14389
900.232	14438
900.352	14400
900.472	14252
900.591	14176
900.711	14237
900.83	14183
900.95	14355
901.069	14396
901.189	14180
901.308	13928
901.427	13860
901.546	13909
901.665	13883
901.784	13909
901.904	13940
902.023	13822
902.141	13616
902.26	13502
902.379	13556
902.498	13556
902.617	13525
902.735	13502
902.854	13445
902.973	13362
903.091	13175
903.21	13225
903.328	13202
903.446	13126
903.565	13107
903.683	13107
903.801	12924
903.919	13057
904.038	13027
904.156	12924
904.274	13031
904.392	12882
904.51	12810
904.627	12852
904.745	12890
904.863	12939
904.981	12612
905.098	12589
905.216	12582
905.334	12612
905.451	12582
905.569	12502
905.686	12677
905.803	12582
905.921	12437
906.038	12646
906.155	12429
906.272	12319
906.389	12323
906.506	12213
906.623	12178
906.74	12110
906.857	12034
906.974	12068
907.091	12270
907.208	12338
907.324	12327
907.441	12019
907.557	11950
907.674	11920
907.79	11916
907.907	11874
908.023	11942
908.139	11912
908.256	11935
908.372	11832
908.488	11863
908.604	11707
908.72	11577
908.836	11684
908.952	11718
909.068	11760
909.184	11783
909.3	11634
909.415	11737
909.531	11657
909.647	11551
909.762	11493
909.878	11463
909.993	11566
910.108	11414
910.224	11444
910.339	11471
910.454	11315
910.57	11307
910.685	11292
910.8	11440
910.915	11524
911.03	11307
911.145	11208
911.259	11250
911.374	11132
911.489	11113
911.604	11064
911.718	10862
911.833	10877
911.947	10778
912.062	10706
912.176	10900
912.291	10934
912.405	10873
912.519	11102
912.633	11140
912.748	11029
912.862	10938
912.976	10824
913.09	10714
913.204	10736
913.318	10866
913.431	10892
913.545	10797
913.659	10904
913.772	10877
913.886	10706
914	10615
914.113	10816
914.226	10805
914.34	10736
914.453	10565
914.566	10656
914.68	10660
914.793	10603
914.906	10405
915.019	10398
915.132	10398
915.245	10402
915.358	10481
915.47	10459
915.583	10474
915.696	10474
915.809	10569
915.921	10599
916.034	10436
916.146	10329
916.259	10303
916.371	10424
916.483	10402
916.595	10325
916.708	10398
916.82	10314
916.932	10322
917.044	10382
917.156	10371
917.268	10200
917.38	10337
917.491	10242
917.603	10291
917.715	10337
917.826	10386
917.938	10131
918.049	10177
918.161	10299
918.272	10417
918.384	10367
918.495	10299
918.606	10131
918.717	10097
918.828	10101
918.939	10135
919.05	10109
919.161	10139
919.272	9907
919.383	9975
919.494	10196
919.604	10371
919.715	10173
919.826	10055
919.936	10185
920.047	10227
920.157	10166
920.267	10360
920.378	10166
920.488	10124
920.598	10322
920.708	10531
920.818	10287
920.928	10322
921.038	10535
921.148	10481
921.258	10276
921.368	10162
921.477	10071
921.587	10059
921.697	9911
921.806	10071
921.916	9880
922.025	9804
922.134	9705
922.244	9690
922.353	9717
922.462	9534
922.571	9614
922.68	9386
922.789	9363
922.898	9355
923.007	9325
923.116	9443
923.224	9374
923.333	9405
923.442	9351
923.55	9310
923.659	9321
923.767	9355
923.876	9264
923.984	9317
924.092	9260
924.201	9241
924.309	9260
924.417	9245
924.525	9260
924.633	9344
924.741	10051
924.849	9039
924.956	9188
925.064	9116
925.172	8963
925.279	9036
925.387	9043
925.494	9066
925.602	9230
925.709	9127
925.816	9032
925.924	9142
926.031	9131
926.138	9032
926.245	9119
926.352	9013
926.459	9173
926.566	9142
926.673	9055
926.779	8956
926.886	8921
926.993	8762
927.099	8777
927.206	8705
927.312	8712
927.419	8754
927.525	8762
927.631	8731
927.737	8682
927.843	8617
927.95	8575
928.056	8682
928.162	8651
928.267	8705
928.373	9412
928.479	8796
928.585	8530
928.69	8621
928.796	8689
928.901	8606
929.007	8488
929.112	8568
929.218	8621
929.323	8533
929.428	8476
929.533	8674
929.638	8499
929.743	8396
929.848	8541
929.953	8480
930.058	8351
930.163	8324
930.267	8279
930.372	8438
930.477	8244
930.581	8503
930.685	8377
930.79	8218
930.894	8225
930.998	8164
931.103	8324
931.207	8001
931.311	7986
931.415	7917
931.519	7734
931.623	7708
