Data from test_V78500241_846.txt Node
Date: Fri Mar 25 14:39:36 CST 2022
User: usil
Spectrometer: V785-0024
Trigger mode: 0
Integration Time (sec): 4.000000E-1
Scans to average: 1
Nonlinearity correction enabled: false
Boxcar width: 0
Storing dark spectrum: false
XAxis mode: Wavelengths
Number of Pixels in Spectrum: 1024
>>>>>Begin Spectral Data<<<<<
801.071	25928
801.214	25909
801.356	25635
801.499	25472
801.641	25308
801.783	25297
801.926	25365
802.068	25274
802.211	25107
802.353	25069
802.496	24875
802.638	24810
802.78	24783
802.923	24764
803.065	24726
803.208	24738
803.35	24783
803.492	24776
803.635	24817
803.777	24802
803.919	24916
804.061	25103
804.204	24867
804.346	24810
804.488	24719
804.63	24783
804.773	24772
804.915	24920
805.057	24958
805.199	24909
805.341	25103
805.483	25046
805.626	25202
805.768	25015
805.91	25053
806.052	25137
806.194	25304
806.336	25639
806.478	25537
806.62	25632
806.762	25963
806.904	26058
807.046	26431
807.188	26590
807.33	26872
807.472	27207
807.614	27526
807.756	28074
807.898	28554
808.04	29471
808.182	30661
808.324	31944
808.465	33789
808.607	35554
808.749	37183
808.891	38077
809.033	38229
809.174	37285
809.316	35642
809.458	33800
809.6	31807
809.741	30311
809.883	29265
810.025	28519
810.166	27831
810.308	27393
810.45	26979
810.591	26667
810.733	26202
810.875	26130
811.016	25966
811.158	25811
811.299	25887
811.441	25868
811.582	25799
811.724	25449
811.865	25289
812.007	25487
812.148	25304
812.29	25415
812.431	25464
812.573	25556
812.714	25643
812.855	25655
812.997	25818
813.138	25917
813.279	25833
813.421	25567
813.562	25544
813.703	25403
813.845	25183
813.986	24791
814.127	24734
814.268	24601
814.41	24578
814.551	24521
814.692	24589
814.833	24471
814.974	24445
815.115	24471
815.256	24433
815.397	24171
815.539	24289
815.68	24091
815.821	24178
815.962	24114
816.103	24018
816.244	23984
816.385	23843
816.526	23889
816.666	23684
816.807	23425
816.948	23608
817.089	23459
817.23	23585
817.371	23444
817.512	23452
817.653	23436
817.793	23414
817.934	23372
818.075	23417
818.216	23410
818.356	23402
818.497	23353
818.638	23052
818.778	23079
818.919	23052
819.06	23079
819.2	23250
819.341	23284
819.481	23402
819.622	23554
819.762	23596
819.903	23486
820.043	23467
820.184	23376
820.324	23360
820.465	23383
820.605	23258
820.746	23189
820.886	23174
821.026	23288
821.167	23277
821.307	23364
821.447	23250
821.588	23098
821.728	22991
821.868	22782
822.008	22592
822.149	22611
822.289	22481
822.429	22268
822.569	22242
822.709	22219
822.849	22177
822.99	22017
823.13	22029
823.27	21968
823.41	21903
823.55	21831
823.69	21846
823.83	21838
823.97	21663
824.11	21743
824.25	21667
824.389	21557
824.529	21625
824.669	21705
824.809	21690
824.949	21682
825.089	21759
825.228	21644
825.368	21431
825.508	21447
825.648	21431
825.787	21447
825.927	21428
826.067	21454
826.206	21450
826.346	21469
826.485	21363
826.625	21325
826.765	21424
826.904	21363
827.044	21176
827.183	21104
827.323	20956
827.462	21089
827.601	21154
827.741	21043
827.88	21157
828.02	21001
828.159	21005
828.298	21028
828.437	21085
828.577	20872
828.716	21112
828.855	20998
828.994	20773
829.134	20689
829.273	20804
829.412	20575
829.551	20609
829.69	20674
829.829	20667
829.968	20769
830.107	20819
830.246	20708
830.385	20682
830.524	20556
830.663	20541
830.802	20393
830.941	20374
831.08	20396
831.219	20351
831.357	20332
831.496	20446
831.635	20358
831.774	20191
831.913	20233
832.051	20191
832.19	20062
832.329	20214
832.467	20069
832.606	20107
832.744	20092
832.883	20107
833.022	20199
833.16	20229
833.299	20343
833.437	20320
833.576	20495
833.714	20488
833.852	20571
833.991	20712
834.129	20739
834.267	20705
834.406	20663
834.544	20708
834.682	20530
834.821	20473
834.959	20552
835.097	20374
835.235	20305
835.373	20355
835.511	20191
835.65	20088
835.788	19906
835.926	19898
836.064	19708
836.202	19769
836.34	19963
836.478	20111
836.615	19791
836.753	19830
836.891	19940
837.029	19917
837.167	19795
837.305	19704
837.443	19860
837.58	19662
837.718	19776
837.856	19658
837.993	19575
838.131	19597
838.269	19624
838.406	19670
838.544	19563
838.681	19331
838.819	19240
838.956	19240
839.094	19118
839.231	19148
839.369	19327
839.506	19373
839.643	19419
839.781	19148
839.918	19103
840.055	19232
840.193	19076
840.33	19080
840.467	19069
840.604	19126
840.742	19316
840.879	19061
841.016	19126
841.153	19061
841.29	19240
841.427	19206
841.564	19095
841.701	19069
841.838	19042
841.975	18966
842.112	19053
842.249	18916
842.385	18966
842.522	19031
842.659	18970
842.796	18825
842.933	18901
843.069	18863
843.206	18821
843.343	19023
843.479	18977
843.616	19019
843.752	18711
843.889	18806
844.025	18973
844.162	18848
844.298	19133
844.435	19110
844.571	19095
844.708	19285
844.844	19662
844.98	19841
845.117	20035
845.253	20473
845.389	21431
845.525	23452
845.661	26374
845.798	30011
845.934	33081
846.07	34177
846.206	33751
846.342	31438
846.478	27583
846.614	24197
846.75	21876
846.886	20613
847.022	19898
847.158	19312
847.294	19099
847.429	18802
847.565	18589
847.701	18806
847.837	18220
847.972	18178
848.108	18224
848.244	18091
848.379	17984
848.515	17878
848.65	17828
848.786	17821
848.921	17809
849.057	17897
849.192	17790
849.328	17904
849.463	17828
849.598	17733
849.734	17737
849.869	17657
850.004	17505
850.14	17676
850.275	17642
850.41	17486
850.545	17471
850.68	17532
850.815	17608
850.95	17581
851.085	17615
851.22	17524
851.355	17448
851.49	17516
851.625	17398
851.76	17478
851.895	17364
852.03	17414
852.165	17372
852.299	17543
852.434	17512
852.569	17520
852.703	17532
852.838	17562
852.973	17684
853.107	17634
853.242	17547
853.376	17452
853.511	17349
853.645	17417
853.78	17604
853.914	17516
854.048	17452
854.183	17448
854.317	17570
854.451	17665
854.585	17516
854.72	17493
854.854	17566
854.988	17505
855.122	17547
855.256	17345
855.39	17478
855.524	17459
855.658	17543
855.792	17429
855.926	17478
856.06	17429
856.194	17391
856.327	17398
856.461	17353
856.595	17250
856.729	17258
856.862	17429
856.996	17364
857.13	17398
857.263	17410
857.397	17345
857.53	17307
857.664	17448
857.797	17356
857.931	17353
858.064	17330
858.197	17387
858.331	17250
858.464	17204
858.597	17105
858.731	17159
858.864	17166
858.997	17239
859.13	17311
859.263	17379
859.396	17391
859.529	17318
859.662	17200
859.795	17121
859.928	17231
860.061	17284
860.194	17349
860.327	17193
860.46	17109
860.592	17395
860.725	17429
860.858	17288
860.99	17151
861.123	17220
861.256	17064
861.388	17296
861.521	17878
861.653	17060
861.786	16991
861.918	17117
862.05	17208
862.183	17102
862.315	17223
862.447	17269
862.58	17280
862.712	17086
862.844	16957
862.976	17041
863.108	17041
863.24	17402
863.372	16900
863.504	17075
863.636	17006
863.768	16934
863.9	17064
864.032	16927
864.164	17010
864.296	16961
864.428	17041
864.559	17010
864.691	17079
864.823	17052
864.954	16946
865.086	16991
865.217	16946
865.349	16900
865.48	17029
865.612	16968
865.743	16995
865.875	16881
866.006	16976
866.137	16976
866.269	16938
866.4	16957
866.531	16908
866.662	16793
866.793	16771
866.924	16866
867.055	16755
867.186	16885
867.317	16828
867.448	16771
867.579	16774
867.71	16793
867.841	16797
867.972	16854
868.103	16915
868.233	16949
868.364	16972
868.495	16991
868.625	16995
868.756	17216
868.886	16927
869.017	17235
869.147	17220
869.278	17231
869.408	17162
869.539	17178
869.669	17208
869.799	17143
869.929	17220
870.06	17185
870.19	17497
870.32	17482
870.45	17554
870.58	17570
870.71	17710
870.84	17646
870.97	17592
871.1	17573
871.23	17596
871.36	17859
871.489	17623
871.619	17741
871.749	17779
871.879	17851
872.008	17908
872.138	17771
872.267	17745
872.397	17634
872.526	17611
872.656	17630
872.785	17668
872.915	17843
873.044	17969
873.173	17961
873.303	17961
873.432	17961
873.561	18038
873.69	17999
873.819	17999
873.948	17965
874.077	18053
874.206	18026
874.335	18057
874.464	18129
874.593	18372
874.722	18323
874.851	18410
874.979	18448
875.108	18361
875.237	18304
875.365	18380
875.494	18414
875.623	18467
875.751	18498
875.88	18528
876.008	18703
876.136	18825
876.265	18958
876.393	19225
876.521	19168
876.65	19156
876.778	19209
876.906	19069
877.034	19179
877.162	19244
877.29	19129
877.418	19308
877.546	19392
877.674	19445
877.802	19487
877.93	19510
878.058	19571
878.185	19609
878.313	19807
878.441	20138
878.568	20130
878.696	20530
878.824	21020
878.951	21587
879.079	22580
879.206	23714
879.333	24878
879.461	25894
879.588	26423
879.715	26583
879.842	26134
879.97	24890
880.097	23653
880.224	22611
880.351	22025
880.478	21553
880.605	21146
880.732	20872
880.859	21157
880.986	20811
881.112	20659
881.239	20537
881.366	20511
881.493	20218
881.619	20256
881.746	20370
881.872	20385
881.999	20278
882.125	20237
882.252	20377
882.378	20438
882.505	20533
882.631	20336
882.757	20180
882.883	20240
883.01	20145
883.136	20180
883.262	20012
883.388	20100
883.514	20142
883.64	20278
883.766	20142
883.892	19925
884.018	20084
884.143	20084
884.269	20286
884.395	19997
884.52	19959
884.646	19951
884.772	19791
884.897	19761
885.023	19883
885.148	19814
885.274	20077
885.399	19902
885.524	19712
885.65	19670
885.775	19616
885.9	19635
886.025	19643
886.15	19400
886.275	19217
886.4	19156
886.525	19164
886.65	19061
886.775	19000
886.9	19042
887.025	19194
887.149	18875
887.274	18684
887.399	18612
887.523	18547
887.648	18418
887.773	18380
887.897	18490
888.021	18372
888.146	18319
888.27	18319
888.395	18372
888.519	18380
888.643	18300
888.767	18281
888.891	18144
889.015	17958
889.139	18148
889.263	17939
889.387	18087
889.511	18163
889.635	17893
889.759	17893
889.883	17946
890.006	17904
890.13	17973
890.254	17775
890.377	17691
890.501	17604
890.624	17528
890.748	17570
890.871	17516
890.995	17280
891.118	17345
891.241	17360
891.364	17345
891.488	17452
891.611	17261
891.734	17189
891.857	17299
891.98	17269
892.103	17372
892.226	17292
892.349	17239
892.471	17086
892.594	17227
892.717	17200
892.839	16999
892.962	17178
893.085	17128
893.207	17056
893.33	16972
893.452	16949
893.575	17025
893.697	17067
893.819	17216
893.941	17162
894.064	17143
894.186	16968
894.308	16862
894.43	16999
894.552	17136
894.674	17132
894.796	16881
894.918	16972
895.04	16831
895.161	17018
895.283	16927
895.405	16850
895.526	16889
895.648	16869
895.769	16862
895.891	16911
896.012	17090
896.134	16934
896.255	16934
896.376	16942
896.498	16885
896.619	16923
896.74	16961
896.861	16984
896.982	17261
897.103	17349
897.224	17178
897.345	17216
897.466	16987
897.587	17121
897.708	17193
897.828	17166
897.949	17094
898.07	17064
898.19	17086
898.311	17170
898.431	17117
898.552	17200
898.672	17231
898.792	17277
898.913	17079
899.033	17140
899.153	17143
899.273	16877
899.393	17006
899.513	16953
899.633	16991
899.753	17098
899.873	16930
899.993	17029
900.113	16892
900.232	16889
900.352	16900
900.472	16816
900.591	16843
900.711	16786
900.83	16805
900.95	16889
901.069	16957
901.189	16713
901.308	16531
901.427	16405
901.546	16394
901.665	16405
901.784	16451
901.904	16291
902.023	16261
902.141	16002
902.26	15934
902.379	15953
902.498	15922
902.617	15842
902.735	15937
902.854	15873
902.973	15865
903.091	15622
903.21	15633
903.328	15542
903.446	15454
903.565	15359
903.683	15435
903.801	15275
903.919	15374
904.038	15313
904.156	15165
904.274	15279
904.392	15074
904.51	15161
904.627	15211
904.745	15108
904.863	15233
904.981	14899
905.098	14853
905.216	14811
905.334	14861
905.451	14880
905.569	14769
905.686	14849
905.803	14705
905.921	14606
906.038	14842
906.155	14606
906.272	14480
906.389	14457
906.506	14259
906.623	14290
906.74	14240
906.857	14172
906.974	14214
907.091	14374
907.208	14488
907.324	14408
907.441	14187
907.557	14084
907.674	14073
907.79	13993
907.907	14012
908.023	14031
908.139	14054
908.256	13932
908.372	13986
908.488	13826
908.604	13799
908.72	13795
908.836	13700
908.952	13753
909.068	13803
909.184	13871
909.3	13719
909.415	13788
909.531	13780
909.647	13514
909.762	13556
909.878	13502
909.993	13529
910.108	13438
910.224	13460
910.339	13525
910.454	13438
910.57	13304
910.685	13251
910.8	13495
910.915	13521
911.03	13400
911.145	13221
911.259	13107
911.374	13225
911.489	13103
911.604	13053
911.718	12852
911.833	12867
911.947	12798
912.062	12616
912.176	12817
912.291	12753
912.405	12814
912.519	13099
912.633	13080
912.748	12958
912.862	12901
912.976	12764
913.09	12627
913.204	12688
913.318	12783
913.431	12791
913.545	12886
913.659	12856
913.772	12764
913.886	12608
914	12593
914.113	12601
914.226	12707
914.34	12623
914.453	12536
914.566	12620
914.68	12612
914.793	12460
914.906	12323
915.019	12350
915.132	12163
915.245	12311
915.358	12311
915.47	12319
915.583	12376
915.696	12380
915.809	12437
915.921	12490
916.034	12330
916.146	12292
916.259	12167
916.371	12372
916.483	12273
916.595	12209
916.708	12205
916.82	12277
916.932	12182
917.044	12190
917.156	12129
917.268	12011
917.38	12129
917.491	12003
917.603	12083
917.715	12106
917.826	12159
917.938	12003
918.049	12026
918.161	12064
918.272	12106
918.384	12194
918.495	12114
918.606	11901
918.717	11897
918.828	11961
918.939	11935
919.05	11760
919.161	11840
919.272	11710
919.383	11718
919.494	11973
919.604	12011
919.715	11863
919.826	11832
919.936	11802
920.047	11939
920.157	11821
920.267	12060
920.378	11836
920.488	11851
920.598	12007
920.708	12148
920.818	12060
920.928	12011
921.038	12178
921.148	12083
921.258	11824
921.368	11703
921.477	11676
921.587	11665
921.697	11516
921.806	11684
921.916	11623
922.025	11364
922.134	11345
922.244	11288
922.353	11318
922.462	11250
922.571	11162
922.68	11056
922.789	10930
922.898	11056
923.007	10858
923.116	11056
923.224	10934
923.333	11010
923.442	10915
923.55	10816
923.659	10843
923.767	10976
923.876	10881
923.984	10812
924.092	10744
924.201	10839
924.309	10782
924.417	10889
924.525	10729
924.633	10687
924.741	11665
924.849	10561
924.956	10759
925.064	10527
925.172	10531
925.279	10573
925.387	10577
925.494	10550
925.602	10710
925.709	10641
925.816	10474
925.924	10493
926.031	10577
926.138	10546
926.245	10561
926.352	10447
926.459	10634
926.566	10618
926.673	10569
926.779	10390
926.886	10405
926.993	10306
927.099	10238
927.206	10181
927.312	10173
927.419	10306
927.525	10120
927.631	10253
927.737	10082
927.843	10036
927.95	10032
928.056	10063
928.162	10078
928.267	10109
928.373	10740
928.479	10147
928.585	9979
928.69	10131
928.796	10128
928.901	10017
929.007	9869
929.112	10055
929.218	9972
929.323	9945
929.428	9895
929.533	10074
929.638	9873
929.743	9831
929.848	9899
929.953	9850
930.058	9812
930.163	9591
930.267	9656
930.372	9751
930.477	9618
930.581	9827
930.685	9720
930.79	9618
930.894	9656
930.998	9511
931.103	9686
931.207	9374
931.311	9264
931.415	9256
931.519	9020
931.623	8990
