Data from test_V78500241_1576.txt Node
Date: Fri Mar 25 14:44:41 CST 2022
User: usil
Spectrometer: V785-0024
Trigger mode: 0
Integration Time (sec): 4.000000E-1
Scans to average: 1
Nonlinearity correction enabled: false
Boxcar width: 0
Storing dark spectrum: false
XAxis mode: Wavelengths
Number of Pixels in Spectrum: 1024
>>>>>Begin Spectral Data<<<<<
801.071	22428
801.214	22276
801.356	22078
801.499	21968
801.641	21781
801.783	21675
801.926	21682
802.068	21720
802.211	21724
802.353	21553
802.496	21386
802.638	21298
802.78	21157
802.923	21207
803.065	21028
803.208	21024
803.35	21066
803.492	21100
803.635	21211
803.777	21009
803.919	21154
804.061	21477
804.204	21051
804.346	20979
804.488	21032
804.63	21055
804.773	20941
804.915	21070
805.057	21051
805.199	21013
805.341	20921
805.483	21104
805.626	21081
805.768	21028
805.91	21009
806.052	21055
806.194	20937
806.336	21249
806.478	20952
806.62	21074
806.762	21066
806.904	21195
807.046	21428
807.188	21401
807.33	21275
807.472	21405
807.614	21355
807.756	21272
807.898	21169
808.04	21161
808.182	21237
808.324	21176
808.465	21218
808.607	21401
808.749	21660
808.891	21637
809.033	21660
809.174	21587
809.316	21507
809.458	21431
809.6	21511
809.741	21458
809.883	21496
810.025	21690
810.166	21610
810.308	21618
810.45	21614
810.591	21401
810.733	21241
810.875	21252
811.016	21112
811.158	20979
811.299	21256
811.441	21332
811.582	21138
811.724	21222
811.865	21116
812.007	21226
812.148	21138
812.29	21302
812.431	21408
812.573	21530
812.714	21534
812.855	21610
812.997	21682
813.138	21850
813.279	21720
813.421	21743
813.562	21671
813.703	21443
813.845	21412
813.986	21077
814.127	21024
814.268	20769
814.41	20804
814.551	20800
814.692	20876
814.833	20655
814.974	20663
815.115	20686
815.256	20621
815.397	20549
815.539	20552
815.68	20465
815.821	20450
815.962	20564
816.103	20564
816.244	20328
816.385	20237
816.526	20278
816.666	20054
816.807	19890
816.948	19883
817.089	20027
817.23	19898
817.371	19875
817.512	19944
817.653	19932
817.793	19761
817.934	19864
818.075	19856
818.216	19871
818.356	19822
818.497	19742
818.638	19613
818.778	19647
818.919	19628
819.06	19609
819.2	19655
819.341	19769
819.481	19693
819.622	19830
819.762	20027
819.903	20054
820.043	20012
820.184	19936
820.324	19780
820.465	20027
820.605	19951
820.746	19811
820.886	19651
821.026	19894
821.167	19769
821.307	19841
821.447	19738
821.588	19643
821.728	19578
821.868	19419
822.008	19247
822.149	19244
822.289	19156
822.429	19065
822.569	18958
822.709	18966
822.849	18760
822.99	18684
823.13	18707
823.27	18673
823.41	18574
823.55	18547
823.69	18502
823.83	18722
823.97	18418
824.11	18334
824.25	18163
824.389	18365
824.529	18429
824.669	18319
824.809	18270
824.949	18376
825.089	18445
825.228	18353
825.368	18209
825.508	18140
825.648	18076
825.787	18114
825.927	18186
826.067	18098
826.206	18019
826.346	18174
826.485	18053
826.625	18083
826.765	18270
826.904	18129
827.044	17870
827.183	17828
827.323	17798
827.462	17821
827.601	17859
827.741	17809
827.88	17794
828.02	17760
828.159	17718
828.298	17866
828.437	17767
828.577	17680
828.716	17946
828.855	17771
828.994	17524
829.134	17471
829.273	17600
829.412	17425
829.551	17471
829.69	17551
829.829	17520
829.968	17611
830.107	17524
830.246	17535
830.385	17558
830.524	17406
830.663	17326
830.802	17246
830.941	17189
831.08	17227
831.219	17189
831.357	17124
831.496	17341
831.635	17094
831.774	17048
831.913	17033
832.051	16923
832.19	16896
832.329	17033
832.467	16835
832.606	16847
832.744	16828
832.883	16809
833.022	16801
833.16	16904
833.299	16889
833.437	16809
833.576	16904
833.714	16953
833.852	16930
833.991	16877
834.129	16972
834.267	16896
834.406	16858
834.544	16885
834.682	16919
834.821	16793
834.959	17052
835.097	16877
835.235	16869
835.373	16877
835.511	16972
835.65	16771
835.788	16778
835.926	16687
836.064	16618
836.202	16717
836.34	16869
836.478	16889
836.615	16729
836.753	16812
836.891	16904
837.029	16820
837.167	16828
837.305	16805
837.443	16691
837.58	16641
837.718	16733
837.856	16691
837.993	16626
838.131	16588
838.269	16573
838.406	16626
838.544	16474
838.681	16371
838.819	16303
838.956	16207
839.094	16177
839.231	16230
839.369	16421
839.506	16577
839.643	16440
839.781	16230
839.918	16147
840.055	16211
840.193	16158
840.33	16249
840.467	16109
840.604	16219
840.742	16485
840.879	16040
841.016	16078
841.153	16093
841.29	16367
841.427	16207
841.564	16249
841.701	16226
841.838	16207
841.975	16040
842.112	16067
842.249	16055
842.385	15956
842.522	16048
842.659	15991
842.796	16048
842.933	15983
843.069	15888
843.206	15907
843.343	16036
843.479	15991
843.616	15972
843.752	15857
843.889	15679
844.025	15945
844.162	15778
844.298	15972
844.435	15705
844.571	15713
844.708	15876
844.844	15892
844.98	15892
845.117	15895
845.253	15686
845.389	15728
845.525	15709
845.661	15576
845.798	15682
845.934	15618
846.07	15656
846.206	15789
846.342	15747
846.478	15720
846.614	15488
846.75	15397
846.886	15237
847.022	15374
847.158	15325
847.294	15408
847.429	15321
847.565	15389
847.701	15515
847.837	15043
847.972	15024
848.108	15237
848.244	15070
848.379	14921
848.515	14902
848.65	14918
848.786	14952
848.921	14982
849.057	14925
849.192	15039
849.328	14937
849.463	14937
849.598	14956
849.734	14849
849.869	14765
850.004	14746
850.14	14773
850.275	14762
850.41	14625
850.545	14693
850.68	14686
850.815	14632
850.95	14640
851.085	14899
851.22	14830
851.355	14602
851.49	14701
851.625	14625
851.76	14648
851.895	14507
852.03	14602
852.165	14564
852.299	14655
852.434	14712
852.569	14712
852.703	14686
852.838	14823
852.973	14826
853.107	14826
853.242	14606
853.376	14560
853.511	14438
853.645	14507
853.78	14659
853.914	14610
854.048	14484
854.183	14568
854.317	14587
854.451	14735
854.585	14503
854.72	14484
854.854	14587
854.988	14545
855.122	14579
855.256	14465
855.39	14564
855.524	14568
855.658	14659
855.792	14583
855.926	14571
856.06	14575
856.194	14613
856.327	14610
856.461	14499
856.595	14518
856.729	14522
856.862	14712
856.996	14579
857.13	14651
857.263	14621
857.397	14701
857.53	14583
857.664	14598
857.797	14655
857.931	14705
858.064	14587
858.197	14640
858.331	14533
858.464	14412
858.597	14423
858.731	14461
858.864	14526
858.997	14533
859.13	14606
859.263	14533
859.396	14705
859.529	14526
859.662	14476
859.795	14537
859.928	14575
860.061	14640
860.194	14651
860.327	14526
860.46	14552
860.592	14606
860.725	14731
860.858	14655
860.99	14507
861.123	14495
861.256	14495
861.388	14575
861.521	15237
861.653	14423
861.786	14362
861.918	14442
862.05	14400
862.183	14442
862.315	14503
862.447	14667
862.58	14511
862.712	14282
862.844	14221
862.976	14415
863.108	14347
863.24	14720
863.372	14263
863.504	14259
863.636	14259
863.768	14385
863.9	14366
864.032	14240
864.164	14225
864.296	14389
864.428	14332
864.559	14290
864.691	14473
864.823	14518
864.954	14385
865.086	14370
865.217	14370
865.349	14248
865.48	14347
865.612	14332
865.743	14499
865.875	14454
866.006	14282
866.137	14309
866.269	14278
866.4	14271
866.531	14233
866.662	14233
866.793	14244
866.924	14256
867.055	14237
867.186	14317
867.317	14301
867.448	14305
867.579	14161
867.71	14237
867.841	14248
867.972	14290
868.103	14294
868.233	14301
868.364	14351
868.495	14328
868.625	14648
868.756	14613
868.886	14385
869.017	14511
869.147	14663
869.278	14625
869.408	14610
869.539	14575
869.669	14648
869.799	14579
869.929	14598
870.06	14667
870.19	14876
870.32	14762
870.45	14857
870.58	14925
870.71	15233
870.84	15009
870.97	14861
871.1	14872
871.23	15138
871.36	14994
871.489	15032
871.619	15051
871.749	15104
871.879	15207
872.008	15344
872.138	15051
872.267	15123
872.397	14990
872.526	14952
872.656	15024
872.785	14979
872.915	15192
873.044	15150
873.173	15138
873.303	15241
873.432	15294
873.561	15329
873.69	15157
873.819	15127
873.948	15302
874.077	15272
874.206	15146
874.335	15169
874.464	15382
874.593	15564
874.722	15401
874.851	15568
874.979	15454
875.108	15511
875.237	15481
875.365	15378
875.494	15439
875.623	15530
875.751	15504
875.88	15580
876.008	15675
876.136	15682
876.265	15941
876.393	15949
876.521	16059
876.65	15998
876.778	15915
876.906	15895
877.034	15880
877.162	15918
877.29	15911
877.418	15918
877.546	16032
877.674	15808
877.802	15888
877.93	15911
878.058	15842
878.185	15816
878.313	15907
878.441	15972
878.568	15660
878.696	15854
878.824	15960
878.951	15987
879.079	16093
879.206	16295
879.333	16257
879.461	16048
879.588	16044
879.715	16139
879.842	16211
879.97	16063
880.097	15800
880.224	15713
880.351	15835
880.478	15770
880.605	15682
880.732	15774
880.859	16036
880.986	15865
881.112	15823
881.239	15705
881.366	15523
881.493	15466
881.619	15416
881.746	15504
881.872	15405
881.999	15344
882.125	15412
882.252	15466
882.378	15405
882.505	15599
882.631	15351
882.757	15199
882.883	15237
883.01	15264
883.136	15214
883.262	15146
883.388	15081
883.514	15321
883.64	15195
883.766	15180
883.892	15081
884.018	15150
884.143	15233
884.269	15351
884.395	15020
884.52	14899
884.646	14929
884.772	14975
884.897	14883
885.023	14952
885.148	15119
885.274	15085
885.399	15093
885.524	14906
885.65	14914
885.775	14990
885.9	15013
886.025	15005
886.15	14941
886.275	14937
886.4	14842
886.525	14914
886.65	14785
886.775	14887
886.9	15024
887.025	15119
887.149	14921
887.274	14777
887.399	14708
887.523	14712
887.648	14724
887.773	14785
887.897	14804
888.021	14804
888.146	14720
888.27	14929
888.395	14868
888.519	14895
888.643	14625
888.767	14861
888.891	14686
889.015	14545
889.139	14693
889.263	14575
889.387	14720
889.511	14925
889.635	14750
889.759	14640
889.883	14537
890.006	14712
890.13	14804
890.254	14514
890.377	14541
890.501	14427
890.624	14465
890.748	14495
890.871	14389
890.995	14313
891.118	14240
891.241	14355
891.364	14366
891.488	14495
891.611	14404
891.734	14332
891.857	14358
891.98	14385
892.103	14423
892.226	14320
892.349	14240
892.471	14278
892.594	14256
892.717	14282
892.839	14343
892.962	14347
893.085	14267
893.207	14267
893.33	14145
893.452	14252
893.575	14404
893.697	14381
893.819	14476
893.941	14545
894.064	14488
894.186	14286
894.308	14309
894.43	14454
894.552	14552
894.674	14469
894.796	14301
894.918	14328
895.04	14328
895.161	14374
895.283	14431
895.405	14438
895.526	14332
895.648	14381
895.769	14446
895.891	14450
896.012	14613
896.134	14564
896.255	14469
896.376	14427
896.498	14419
896.619	14575
896.74	14507
896.861	14503
896.982	14845
897.103	15070
897.224	14838
897.345	14765
897.466	14602
897.587	14724
897.708	14899
897.828	14689
897.949	14693
898.07	14590
898.19	14712
898.311	14883
898.431	14724
898.552	14838
898.672	14929
898.792	14902
898.913	14838
899.033	14868
899.153	14663
899.273	14659
899.393	14686
899.513	14693
899.633	14697
899.753	14712
899.873	14575
899.993	14754
900.113	14682
900.232	14651
900.352	14632
900.472	14560
900.591	14469
900.711	14606
900.83	14541
900.95	14667
901.069	14659
901.189	14469
901.308	14229
901.427	14267
901.546	14221
901.665	14229
901.784	14237
901.904	14069
902.023	14043
902.141	13890
902.26	13750
902.379	13826
902.498	13875
902.617	13712
902.735	13883
902.854	13761
902.973	13674
903.091	13552
903.21	13567
903.328	13514
903.446	13441
903.565	13327
903.683	13365
903.801	13373
903.919	13415
904.038	13400
904.156	13046
904.274	13304
904.392	13206
904.51	13110
904.627	13187
904.745	13221
904.863	13240
904.981	12977
905.098	12856
905.216	12859
905.334	12939
905.451	12882
905.569	12779
905.686	12867
905.803	12772
905.921	12650
906.038	12757
906.155	12646
906.272	12593
906.389	12559
906.506	12445
906.623	12437
906.74	12452
906.857	12300
906.974	12380
907.091	12574
907.208	12578
907.324	12391
907.441	12258
907.557	12194
907.674	12209
907.79	12110
907.907	12243
908.023	12277
908.139	12148
908.256	12098
908.372	12117
908.488	12026
908.604	11901
908.72	11901
908.836	11912
908.952	11889
909.068	11878
909.184	12011
909.3	11927
909.415	11889
909.531	12030
909.647	11729
909.762	11699
909.878	11615
909.993	11756
910.108	11676
910.224	11707
910.339	11718
910.454	11562
910.57	11573
910.685	11474
910.8	11783
910.915	11741
911.03	11501
911.145	11417
911.259	11330
911.374	11414
911.489	11277
911.604	11296
911.718	11102
911.833	11143
911.947	11025
912.062	11018
912.176	11216
912.291	11178
912.405	11197
912.519	11395
912.633	11334
912.748	11292
912.862	11136
912.976	10991
913.09	10896
913.204	10999
913.318	11037
913.431	11151
913.545	11159
913.659	11071
913.772	11052
913.886	10934
914	10961
914.113	11018
914.226	11064
914.34	11010
914.453	10786
914.566	10953
914.68	10847
914.793	10824
914.906	10580
915.019	10672
915.132	10519
915.245	10660
915.358	10698
915.47	10637
915.583	10630
915.696	10706
915.809	10691
915.921	10812
916.034	10634
916.146	10550
916.259	10538
916.371	10691
916.483	10649
916.595	10546
916.708	10618
916.82	10615
916.932	10565
917.044	10531
917.156	10478
917.268	10382
917.38	10440
917.491	10451
917.603	10558
917.715	10637
917.826	10523
917.938	10474
918.049	10360
918.161	10542
918.272	10615
918.384	10634
918.495	10447
918.606	10337
918.717	10344
918.828	10421
918.939	10436
919.05	10303
919.161	10394
919.272	10162
919.383	10257
919.494	10462
919.604	10565
919.715	10276
919.826	10246
919.936	10284
920.047	10440
920.157	10382
920.267	10584
920.378	10417
920.488	10333
920.598	10497
920.708	10656
920.818	10618
920.928	10588
921.038	10729
921.148	10664
921.258	10455
921.368	10375
921.477	10185
921.587	10230
921.697	10078
921.806	10299
921.916	10120
922.025	10036
922.134	9926
922.244	9854
922.353	9903
922.462	9785
922.571	9778
922.68	9667
922.789	9568
922.898	9622
923.007	9466
923.116	9648
923.224	9549
923.333	9656
923.442	9469
923.55	9473
923.659	9428
923.767	9618
923.876	9435
923.984	9542
924.092	9412
924.201	9511
924.309	9443
924.417	9447
924.525	9321
924.633	9378
924.741	10348
924.849	9264
924.956	9393
925.064	9249
925.172	9051
925.279	9233
925.387	9237
925.494	9325
925.602	9469
925.709	9363
925.816	9176
925.924	9245
926.031	9336
926.138	9321
926.245	9260
926.352	9108
926.459	9306
926.566	9473
926.673	9192
926.779	9135
926.886	9081
926.993	8982
927.099	9020
927.206	8868
927.312	8910
927.419	8975
927.525	9005
927.631	9058
927.737	8906
927.843	8788
927.95	8773
928.056	8853
928.162	8868
928.267	8883
928.373	9473
928.479	8887
928.585	8708
928.69	8857
928.796	8918
928.901	8762
929.007	8621
929.112	8781
929.218	8743
929.323	8708
929.428	8712
929.533	8777
929.638	8644
929.743	8621
929.848	8674
929.953	8667
930.058	8636
930.163	8404
930.267	8473
930.372	8564
930.477	8347
930.581	8629
930.685	8461
930.79	8374
930.894	8423
930.998	8400
931.103	8469
931.207	8088
931.311	8031
931.415	8062
931.519	7890
931.623	7902
