Data from test_V78500241_2915.txt Node
Date: Fri Mar 25 14:54:00 CST 2022
User: usil
Spectrometer: V785-0024
Trigger mode: 0
Integration Time (sec): 4.000000E-1
Scans to average: 1
Nonlinearity correction enabled: false
Boxcar width: 0
Storing dark spectrum: false
XAxis mode: Wavelengths
Number of Pixels in Spectrum: 1024
>>>>>Begin Spectral Data<<<<<
801.071	22181
801.214	22029
801.356	21759
801.499	21732
801.641	21469
801.783	21469
801.926	21507
802.068	21336
802.211	21397
802.353	21359
802.496	20914
802.638	21096
802.78	20880
802.923	20895
803.065	20765
803.208	20773
803.35	20781
803.492	20902
803.635	20910
803.777	20819
803.919	20804
804.061	21135
804.204	20819
804.346	20701
804.488	20750
804.63	20845
804.773	20621
804.915	20708
805.057	20857
805.199	20629
805.341	20750
805.483	20758
805.626	20746
805.768	20697
805.91	20708
806.052	20735
806.194	20632
806.336	20861
806.478	20579
806.62	20564
806.762	20746
806.904	20880
807.046	21036
807.188	20982
807.33	21051
807.472	21173
807.614	20914
807.756	20952
807.898	20906
808.04	20750
808.182	20788
808.324	20735
808.465	20838
808.607	20948
808.749	21108
808.891	21169
809.033	21222
809.174	21214
809.316	21108
809.458	21081
809.6	21051
809.741	21062
809.883	21260
810.025	21157
810.166	21264
810.308	21222
810.45	21203
810.591	21142
810.733	20941
810.875	20804
811.016	20804
811.158	20724
811.299	20868
811.441	20937
811.582	20902
811.724	20815
811.865	20788
812.007	20815
812.148	20792
812.29	20876
812.431	21047
812.573	21123
812.714	21176
812.855	21367
812.997	21500
813.138	21553
813.279	21492
813.421	21412
813.562	21230
813.703	21024
813.845	21020
813.986	20644
814.127	20488
814.268	20511
814.41	20450
814.551	20347
814.692	20556
814.833	20351
814.974	20355
815.115	20294
815.256	20244
815.397	20271
815.539	20210
815.68	20191
815.821	20058
815.962	20081
816.103	20183
816.244	19928
816.385	19845
816.526	19879
816.666	19616
816.807	19403
816.948	19533
817.089	19628
817.23	19578
817.371	19533
817.512	19544
817.653	19601
817.793	19601
817.934	19434
818.075	19483
818.216	19594
818.356	19441
818.497	19285
818.638	19114
818.778	19171
818.919	19202
819.06	19213
819.2	19324
819.341	19445
819.481	19373
819.622	19518
819.762	19632
819.903	19651
820.043	19556
820.184	19487
820.324	19487
820.465	19525
820.605	19616
820.746	19449
820.886	19320
821.026	19521
821.167	19407
821.307	19567
821.447	19304
821.588	19312
821.728	19080
821.868	19088
822.008	19057
822.149	18726
822.289	18882
822.429	18677
822.569	18547
822.709	18612
822.849	18433
822.99	18467
823.13	18426
823.27	18376
823.41	18190
823.55	18083
823.69	18281
823.83	18129
823.97	18155
824.11	17954
824.25	17855
824.389	17874
824.529	17992
824.669	17984
824.809	18011
824.949	17961
825.089	18087
825.228	17973
825.368	17714
825.508	17695
825.648	17779
825.787	17805
825.927	17855
826.067	17573
826.206	17714
826.346	17726
826.485	17847
826.625	17722
826.765	17836
826.904	17809
827.044	17474
827.183	17604
827.323	17376
827.462	17452
827.601	17474
827.741	17429
827.88	17406
828.02	17277
828.159	17391
828.298	17372
828.437	17387
828.577	17345
828.716	17482
828.855	17376
828.994	17102
829.134	17170
829.273	17189
829.412	17136
829.551	17037
829.69	17170
829.829	17109
829.968	17334
830.107	17223
830.246	17200
830.385	17121
830.524	17094
830.663	16866
830.802	16869
830.941	16713
831.08	16668
831.219	16858
831.357	16812
831.496	17006
831.635	16793
831.774	16649
831.913	16611
832.051	16554
832.19	16504
832.329	16645
832.467	16466
832.606	16402
832.744	16432
832.883	16402
833.022	16470
833.16	16455
833.299	16504
833.437	16455
833.576	16470
833.714	16504
833.852	16455
833.991	16634
834.129	16558
834.267	16535
834.406	16554
834.544	16615
834.682	16592
834.821	16558
834.959	16668
835.097	16466
835.235	16588
835.373	16523
835.511	16565
835.65	16405
835.788	16413
835.926	16268
836.064	16295
836.202	16246
836.34	16424
836.478	16584
836.615	16318
836.753	16500
836.891	16466
837.029	16417
837.167	16447
837.305	16333
837.443	16363
837.58	16249
837.718	16424
837.856	16284
837.993	16272
838.131	16284
838.269	16124
838.406	16090
838.544	16223
838.681	16006
838.819	15972
838.956	15854
839.094	15880
839.231	15835
839.369	16036
839.506	16204
839.643	16101
839.781	15835
839.918	15850
840.055	15850
840.193	15827
840.33	15842
840.467	15774
840.604	15865
840.742	16150
840.879	15694
841.016	15644
841.153	15686
841.29	15972
841.427	15785
841.564	15823
841.701	15857
841.838	15728
841.975	15774
842.112	15736
842.249	15572
842.385	15599
842.522	15728
842.659	15709
842.796	15584
842.933	15739
843.069	15599
843.206	15599
843.343	15603
843.479	15694
843.616	15701
843.752	15462
843.889	15519
844.025	15523
844.162	15370
844.298	15447
844.435	15355
844.571	15389
844.708	15408
844.844	15614
844.98	15515
845.117	15382
845.253	15344
845.389	15302
845.525	15264
845.661	15264
845.798	15138
845.934	15249
846.07	15081
846.206	15321
846.342	15173
846.478	15142
846.614	15093
846.75	14906
846.886	14906
847.022	15108
847.158	14883
847.294	15017
847.429	14986
847.565	14979
847.701	15195
847.837	14781
847.972	14724
848.108	14762
848.244	14842
848.379	14621
848.515	14575
848.65	14571
848.786	14659
848.921	14590
849.057	14861
849.192	14682
849.328	14552
849.463	14625
849.598	14579
849.734	14514
849.869	14370
850.004	14351
850.14	14343
850.275	14328
850.41	14271
850.545	14206
850.68	14305
850.815	14282
850.95	14259
851.085	14568
851.22	14396
851.355	14351
851.49	14370
851.625	14294
851.76	14343
851.895	14237
852.03	14256
852.165	14256
852.299	14351
852.434	14355
852.569	14347
852.703	14343
852.838	14423
852.973	14454
853.107	14461
853.242	14385
853.376	14195
853.511	14130
853.645	14149
853.78	14328
853.914	14145
854.048	14096
854.183	14199
854.317	14145
854.451	14339
854.585	14282
854.72	14149
854.854	14157
854.988	14210
855.122	14161
855.256	13989
855.39	14145
855.524	14267
855.658	14187
855.792	14161
855.926	14191
856.06	14267
856.194	14324
856.327	14195
856.461	14142
856.595	14126
856.729	14183
856.862	14282
856.996	14202
857.13	14225
857.263	14381
857.397	14400
857.53	14202
857.664	14351
857.797	14298
857.931	14412
858.064	14221
858.197	14317
858.331	14123
858.464	14195
858.597	14157
858.731	14252
858.864	14164
858.997	14218
859.13	14218
859.263	14206
859.396	14309
859.529	14149
859.662	14107
859.795	14065
859.928	14161
860.061	14332
860.194	14404
860.327	14267
860.46	14195
860.592	14256
860.725	14362
860.858	14366
860.99	14195
861.123	14161
861.256	14183
861.388	14123
861.521	14861
861.653	14081
861.786	14043
861.918	14046
862.05	14054
862.183	14161
862.315	14206
862.447	14142
862.58	14183
862.712	13947
862.844	13902
862.976	14008
863.108	14024
863.24	14305
863.372	13849
863.504	14031
863.636	13932
863.768	14005
863.9	13894
864.032	13898
864.164	13921
864.296	13963
864.428	14123
864.559	14187
864.691	14058
864.823	14100
864.954	13997
865.086	14058
865.217	13970
865.349	13814
865.48	13906
865.612	13951
865.743	14138
865.875	14054
866.006	13997
866.137	14027
866.269	13982
866.4	13963
866.531	13928
866.662	13894
866.793	13921
866.924	13906
867.055	13913
867.186	13913
867.317	13906
867.448	13727
867.579	13841
867.71	13818
867.841	13898
867.972	13928
868.103	13902
868.233	13970
868.364	13940
868.495	14024
868.625	14218
868.756	14362
868.886	14149
869.017	14115
869.147	14355
869.278	14339
869.408	14214
869.539	14259
869.669	14240
869.799	14263
869.929	14240
870.06	14271
870.19	14495
870.32	14450
870.45	14716
870.58	14663
870.71	14750
870.84	14610
870.97	14484
871.1	14629
871.23	14739
871.36	14918
871.489	14765
871.619	14743
871.749	14815
871.879	14834
872.008	14956
872.138	14788
872.267	14781
872.397	14659
872.526	14568
872.656	14552
872.785	14796
872.915	14750
873.044	14937
873.173	14929
873.303	14925
873.432	14944
873.561	14933
873.69	14811
873.819	14876
873.948	14975
874.077	14811
874.206	14845
874.335	14864
874.464	14971
874.593	15093
874.722	15165
874.851	15199
874.979	15127
875.108	15138
875.237	15135
875.365	15066
875.494	15199
875.623	15332
875.751	15157
875.88	15233
876.008	15264
876.136	15279
876.265	15561
876.393	15675
876.521	15648
876.65	15694
876.778	15705
876.906	15542
877.034	15595
877.162	15587
877.29	15523
877.418	15603
877.546	15515
877.674	15622
877.802	15614
877.93	15561
878.058	15553
878.185	15526
878.313	15450
878.441	15523
878.568	15462
878.696	15420
878.824	15572
878.951	15660
879.079	15709
879.206	15911
879.333	15717
879.461	15637
879.588	15603
879.715	15751
879.842	15915
879.97	15682
880.097	15481
880.224	15401
880.351	15439
880.478	15519
880.605	15454
880.732	15564
880.859	15671
880.986	15454
881.112	15447
881.239	15336
881.366	15138
881.493	15062
881.619	15093
881.746	15161
881.872	15135
881.999	15001
882.125	15070
882.252	15230
882.378	15123
882.505	15287
882.631	15146
882.757	14971
882.883	14967
883.01	14910
883.136	14804
883.262	14823
883.388	14682
883.514	14830
883.64	14906
883.766	14746
883.892	14712
884.018	14807
884.143	14948
884.269	14982
884.395	14712
884.52	14503
884.646	14754
884.772	14610
884.897	14556
885.023	14716
885.148	14743
885.274	14781
885.399	14731
885.524	14568
885.65	14667
885.775	14686
885.9	14693
886.025	14781
886.15	14735
886.275	14640
886.4	14511
886.525	14560
886.65	14587
886.775	14434
886.9	14826
887.025	14861
887.149	14621
887.274	14488
887.399	14438
887.523	14423
887.648	14450
887.773	14442
887.897	14564
888.021	14492
888.146	14355
888.27	14442
888.395	14636
888.519	14484
888.643	14537
888.767	14450
888.891	14473
889.015	14339
889.139	14351
889.263	14176
889.387	14503
889.511	14602
889.635	14499
889.759	14355
889.883	14438
890.006	14396
890.13	14393
890.254	14263
890.377	14202
890.501	14092
890.624	14092
890.748	14149
890.871	14054
890.995	13970
891.118	13993
891.241	14073
891.364	13974
891.488	14145
891.611	13963
891.734	13986
891.857	14100
891.98	14100
892.103	14134
892.226	14050
892.349	14016
892.471	13879
892.594	14001
892.717	13993
892.839	13967
892.962	14077
893.085	14100
893.207	14031
893.33	13967
893.452	14016
893.575	14123
893.697	14012
893.819	14142
893.941	14256
894.064	14176
894.186	14020
894.308	14043
894.43	14126
894.552	14221
894.674	14187
894.796	13967
894.918	14157
895.04	14069
895.161	14172
895.283	14142
895.405	14081
895.526	14138
895.648	14069
895.769	14259
895.891	14180
896.012	14278
896.134	14145
896.255	14123
896.376	14195
896.498	14195
896.619	14161
896.74	14275
896.861	14187
896.982	14499
897.103	14746
897.224	14476
897.345	14438
897.466	14377
897.587	14526
897.708	14530
897.828	14511
897.949	14427
898.07	14370
898.19	14396
898.311	14659
898.431	14533
898.552	14587
898.672	14720
898.792	14701
898.913	14560
899.033	14423
899.153	14385
899.273	14347
899.393	14427
899.513	14366
899.633	14336
899.753	14442
899.873	14366
899.993	14389
900.113	14374
900.232	14438
900.352	14461
900.472	14259
900.591	14206
900.711	14324
900.83	14202
900.95	14419
901.069	14377
901.189	14142
901.308	14001
901.427	13936
901.546	13944
901.665	14012
901.784	13986
901.904	13826
902.023	13681
902.141	13578
902.26	13601
902.379	13540
902.498	13533
902.617	13518
902.735	13567
902.854	13457
902.973	13373
903.091	13236
903.21	13164
903.328	13316
903.446	13190
903.565	13126
903.683	13114
903.801	13008
903.919	13080
904.038	13122
904.156	13031
904.274	13004
904.392	12901
904.51	12920
904.627	12871
904.745	12966
904.863	12989
904.981	12715
905.098	12696
905.216	12627
905.334	12608
905.451	12494
905.569	12646
905.686	12642
905.803	12555
905.921	12414
906.038	12494
906.155	12410
906.272	12361
906.389	12342
906.506	12224
906.623	12243
906.74	12167
906.857	11958
906.974	12152
907.091	12292
907.208	12372
907.324	12209
907.441	12091
907.557	11969
907.674	12011
907.79	11866
907.907	11935
908.023	11912
908.139	11897
908.256	11984
908.372	11851
908.488	11874
908.604	11623
908.72	11767
908.836	11691
908.952	11604
909.068	11703
909.184	11824
909.3	11684
909.415	11737
909.531	11710
909.647	11429
909.762	11486
909.878	11478
909.993	11547
910.108	11463
910.224	11334
910.339	11551
910.454	11296
910.57	11261
910.685	11296
910.8	11524
910.915	11436
911.03	11349
911.145	11162
911.259	11185
911.374	11242
911.489	11056
911.604	11083
911.718	10938
911.833	10972
911.947	10892
912.062	10755
912.176	10927
912.291	10953
912.405	10934
912.519	11098
912.633	11079
912.748	11056
912.862	10965
912.976	10847
913.09	10679
913.204	10752
913.318	10824
913.431	10881
913.545	10896
913.659	10934
913.772	10778
913.886	10660
914	10573
914.113	10873
914.226	10850
914.34	10698
914.453	10626
914.566	10717
914.68	10634
914.793	10561
914.906	10402
915.019	10428
915.132	10333
915.245	10478
915.358	10474
915.47	10451
915.583	10481
915.696	10390
915.809	10611
915.921	10535
916.034	10428
916.146	10421
916.259	10284
916.371	10440
916.483	10436
916.595	10348
916.708	10379
916.82	10375
916.932	10356
917.044	10318
917.156	10379
917.268	10291
917.38	10215
917.491	10169
917.603	10219
917.715	10329
917.826	10398
917.938	10280
918.049	10147
918.161	10253
918.272	10337
918.384	10455
918.495	10344
918.606	10120
918.717	10139
918.828	10192
918.939	10154
919.05	10124
919.161	10124
919.272	9911
919.383	10059
919.494	10223
919.604	10398
919.715	10185
919.826	10154
919.936	10124
920.047	10272
920.157	10166
920.267	10440
920.378	10192
920.488	10196
920.598	10341
920.708	10554
920.818	10344
920.928	10341
921.038	10546
921.148	10466
921.258	10268
921.368	10211
921.477	10116
921.587	10029
921.697	9926
921.806	10029
921.916	9949
922.025	9766
922.134	9838
922.244	9671
922.353	9759
922.462	9690
922.571	9637
922.68	9424
922.789	9454
922.898	9500
923.007	9416
923.116	9526
923.224	9466
923.333	9420
923.442	9412
923.55	9336
923.659	9378
923.767	9393
923.876	9332
923.984	9397
924.092	9226
924.201	9329
924.309	9382
924.417	9298
924.525	9207
924.633	9298
924.741	10150
924.849	9093
924.956	9268
925.064	9097
925.172	8998
925.279	9142
925.387	9146
925.494	9127
925.602	9230
925.709	9199
925.816	9009
925.924	9142
926.031	9104
926.138	9093
926.245	9165
926.352	9066
926.459	9116
926.566	9192
926.673	9097
926.779	8933
926.886	9017
926.993	8773
927.099	8899
927.206	8792
927.312	8792
927.419	8887
927.525	8758
927.631	8785
927.737	8754
927.843	8708
927.95	8613
928.056	8697
928.162	8689
928.267	8788
928.373	9291
928.479	8735
928.585	8568
928.69	8758
928.796	8746
928.901	8640
929.007	8457
929.112	8674
929.218	8632
929.323	8587
929.428	8568
929.533	8667
929.638	8518
929.743	8537
929.848	8640
929.953	8514
930.058	8412
930.163	8305
930.267	8328
930.372	8473
930.477	8248
930.581	8511
930.685	8434
930.79	8267
930.894	8237
930.998	8256
931.103	8343
931.207	8043
931.311	7978
931.415	7955
931.519	7734
931.623	7761
