Data from test_V78500241_302.txt Node
Date: Fri Mar 25 14:35:49 CST 2022
User: usil
Spectrometer: V785-0024
Trigger mode: 0
Integration Time (sec): 4.000000E-1
Scans to average: 1
Nonlinearity correction enabled: false
Boxcar width: 0
Storing dark spectrum: false
XAxis mode: Wavelengths
Number of Pixels in Spectrum: 1024
>>>>>Begin Spectral Data<<<<<
801.071	27077
801.214	27028
801.356	26727
801.499	26868
801.641	26621
801.783	26568
801.926	26625
802.068	26488
802.211	26484
802.353	26339
802.496	26427
802.638	26142
802.78	26096
802.923	26176
803.065	26039
803.208	26100
803.35	26084
803.492	26206
803.635	26336
803.777	26210
803.919	26298
804.061	26317
804.204	26142
804.346	26043
804.488	26039
804.63	26058
804.773	25982
804.915	26054
805.057	26202
805.199	26081
805.341	26164
805.483	26214
805.626	26130
805.768	26069
805.91	26176
806.052	26252
806.194	26024
806.336	26317
806.478	26244
806.62	26016
806.762	26229
806.904	26343
807.046	26670
807.188	26431
807.33	26617
807.472	26450
807.614	26393
807.756	26400
807.898	26313
808.04	26317
808.182	26374
808.324	26362
808.465	26522
808.607	26606
808.749	26644
808.891	26800
809.033	26921
809.174	26902
809.316	26667
809.458	26769
809.6	26651
809.741	26659
809.883	26724
810.025	26982
810.166	26944
810.308	26838
810.45	26918
810.591	26743
810.733	26689
810.875	26579
811.016	26499
811.158	26503
811.299	26659
811.441	26545
811.582	26735
811.724	26492
811.865	26461
812.007	26541
812.148	26442
812.29	26480
812.431	26556
812.573	26849
812.714	26834
812.855	26971
812.997	27108
813.138	27256
813.279	27100
813.421	27154
813.562	26921
813.703	26823
813.845	26670
813.986	26400
814.127	26313
814.268	26046
814.41	26119
814.551	25974
814.692	26176
814.833	26062
814.974	26103
815.115	26065
815.256	26005
815.397	25921
815.539	25871
815.68	25925
815.821	25712
815.962	25791
816.103	25845
816.244	25567
816.385	25479
816.526	25483
816.666	25445
816.807	25217
816.948	25270
817.089	25259
817.23	25270
817.371	25152
817.512	25145
817.653	25164
817.793	25038
817.934	25152
818.075	25228
818.216	25225
818.356	25156
818.497	25046
818.638	24852
818.778	24825
818.919	24920
819.06	25012
819.2	25050
819.341	24996
819.481	25137
819.622	25301
819.762	25472
819.903	25438
820.043	25304
820.184	25171
820.324	25198
820.465	25171
820.605	25232
820.746	25187
820.886	24932
821.026	25107
821.167	25038
821.307	25213
821.447	25110
821.588	24920
821.728	24810
821.868	24612
822.008	24498
822.149	24509
822.289	24517
822.429	24251
822.569	24285
822.709	24247
822.849	24015
822.99	23950
823.13	23908
823.27	23973
823.41	23790
823.55	23737
823.69	23794
823.83	23718
823.97	23737
824.11	23524
824.25	23539
824.389	23570
824.529	23608
824.669	23577
824.809	23535
824.949	23562
825.089	23653
825.228	23570
825.368	23391
825.508	23284
825.648	23235
825.787	23402
825.927	23452
826.067	23296
826.206	23269
826.346	23273
826.485	23398
826.625	23265
826.765	23410
826.904	23349
827.044	23079
827.183	23041
827.323	23079
827.462	23159
827.601	22987
827.741	23060
827.88	23083
828.02	22949
828.159	22911
828.298	22957
828.437	23052
828.577	22961
828.716	23071
828.855	23060
828.994	22645
829.134	22710
829.273	22706
829.412	22645
829.551	22523
829.69	22710
829.829	22580
829.968	22660
830.107	22778
830.246	22736
830.385	22565
830.524	22588
830.663	22561
830.802	22382
830.941	22318
831.08	22341
831.219	22295
831.357	22287
831.496	22409
831.635	22272
831.774	22166
831.913	22211
832.051	21972
832.19	21983
832.329	22124
832.467	21949
832.606	21755
832.744	21831
832.883	21915
833.022	21926
833.16	21994
833.299	21934
833.437	21899
833.576	21907
833.714	21797
833.852	21915
833.991	21850
834.129	22013
834.267	21895
834.406	22006
834.544	21915
834.682	21888
834.821	21869
834.959	22097
835.097	21816
835.235	21968
835.373	21831
835.511	21873
835.65	21751
835.788	21747
835.926	21545
836.064	21595
836.202	21641
836.34	21732
836.478	21873
836.615	21762
836.753	21823
836.891	21846
837.029	21759
837.167	21686
837.305	21561
837.443	21686
837.58	21507
837.718	21538
837.856	21542
837.993	21561
838.131	21534
838.269	21435
838.406	21488
838.544	21325
838.681	21249
838.819	21249
838.956	20975
839.094	21100
839.231	21154
839.369	21203
839.506	21412
839.643	21214
839.781	20979
839.918	20914
840.055	21013
840.193	20906
840.33	20960
840.467	20849
840.604	20979
840.742	21157
840.879	20705
841.016	20830
841.153	20693
841.29	21028
841.427	20998
841.564	20941
841.701	20948
841.838	20891
841.975	20819
842.112	20826
842.249	20674
842.385	20678
842.522	20792
842.659	20785
842.796	20682
842.933	20583
843.069	20541
843.206	20552
843.343	20606
843.479	20602
843.616	20678
843.752	20408
843.889	20408
844.025	20507
844.162	20404
844.298	20423
844.435	20438
844.571	20362
844.708	20560
844.844	20495
844.98	20549
845.117	20396
845.253	20347
845.389	20313
845.525	20256
845.661	20309
845.798	20176
845.934	20259
846.07	20180
846.206	20404
846.342	20434
846.478	20157
846.614	20054
846.75	19978
846.886	19940
847.022	20001
847.158	19875
847.294	19909
847.429	19913
847.565	19833
847.701	20092
847.837	19594
847.972	19605
848.108	19689
848.244	19719
848.379	19521
848.515	19415
848.65	19476
848.786	19407
848.921	19392
849.057	19480
849.192	19476
849.328	19362
849.463	19487
849.598	19426
849.734	19304
849.869	19312
850.004	19152
850.14	19168
850.275	19164
850.41	19072
850.545	19129
850.68	19088
850.815	19202
850.95	19171
851.085	19255
851.22	19304
851.355	19168
851.49	19209
851.625	19187
851.76	18966
851.895	19015
852.03	18913
852.165	19175
852.299	19240
852.434	19179
852.569	19126
852.703	19179
852.838	19221
852.973	19343
853.107	19324
853.242	18989
853.376	19034
853.511	18833
853.645	18966
853.78	19019
853.914	19072
854.048	18928
854.183	19084
854.317	18951
854.451	19190
854.585	18932
854.72	18939
854.854	19034
854.988	18977
855.122	18878
855.256	18856
855.39	18920
855.524	19031
855.658	18951
855.792	18909
855.926	18981
856.06	18954
856.194	19027
856.327	18920
856.461	18787
856.595	18897
856.729	18882
856.862	19129
856.996	18924
857.13	19023
857.263	18962
857.397	18981
857.53	18859
857.664	18985
857.797	18989
857.931	19008
858.064	19000
858.197	19000
858.331	18890
858.464	18909
858.597	18764
858.731	18894
858.864	18878
858.997	18878
859.13	18817
859.263	18905
859.396	19038
859.529	18905
859.662	18802
859.795	18738
859.928	18817
860.061	19080
860.194	18973
860.327	18882
860.46	18817
860.592	18924
860.725	19012
860.858	19099
860.99	18890
861.123	18688
861.256	18768
861.388	18859
861.521	19510
861.653	18738
861.786	18760
861.918	18772
862.05	18764
862.183	18913
862.315	18932
862.447	19031
862.58	18806
862.712	18700
862.844	18547
862.976	18707
863.108	18741
863.24	18924
863.372	18620
863.504	18502
863.636	18608
863.768	18627
863.9	18608
864.032	18597
864.164	18563
864.296	18483
864.428	18635
864.559	18661
864.691	18715
864.823	18601
864.954	18646
865.086	18502
865.217	18509
865.349	18426
865.48	18551
865.612	18547
865.743	18700
865.875	18563
866.006	18418
866.137	18521
866.269	18490
866.4	18528
866.531	18521
866.662	18471
866.793	18437
866.924	18460
867.055	18441
867.186	18528
867.317	18464
867.448	18308
867.579	18448
867.71	18380
867.841	18372
867.972	18517
868.103	18479
868.233	18483
868.364	18502
868.495	18642
868.625	18627
868.756	18795
868.886	18536
869.017	18612
869.147	18734
869.278	18764
869.408	18692
869.539	18646
869.669	18726
869.799	18745
869.929	18726
870.06	18875
870.19	19038
870.32	18928
870.45	18973
870.58	18993
870.71	19156
870.84	19095
870.97	19122
871.1	19076
871.23	19297
871.36	19137
871.489	19168
871.619	19304
871.749	19320
871.879	19293
872.008	19301
872.138	19274
872.267	19270
872.397	19213
872.526	19122
872.656	19126
872.785	19183
872.915	19202
873.044	19419
873.173	19285
873.303	19278
873.432	19464
873.561	19316
873.69	19266
873.819	19244
873.948	19274
874.077	19289
874.206	19320
874.335	19316
874.464	19377
874.593	19571
874.722	19472
874.851	19624
874.979	19647
875.108	19643
875.237	19533
875.365	19510
875.494	19491
875.623	19620
875.751	19537
875.88	19632
876.008	19613
876.136	19811
876.265	20050
876.393	20138
876.521	20073
876.65	20069
876.778	20046
876.906	19883
877.034	19967
877.162	19982
877.29	19879
877.418	20012
877.546	19921
877.674	19887
877.802	20062
877.93	19902
878.058	19932
878.185	19856
878.313	19917
878.441	19944
878.568	19833
878.696	19928
878.824	20077
878.951	20073
879.079	20195
879.206	20263
879.333	20225
879.461	20103
879.588	20084
879.715	20282
879.842	20339
879.97	20115
880.097	19879
880.224	19868
880.351	19913
880.478	19791
880.605	19845
880.732	19807
880.859	20081
880.986	19894
881.112	19833
881.239	19795
881.366	19567
881.493	19563
881.619	19422
881.746	19480
881.872	19377
881.999	19453
882.125	19392
882.252	19476
882.378	19514
882.505	19582
882.631	19411
882.757	19240
882.883	19365
883.01	19209
883.136	19228
883.262	19084
883.388	19065
883.514	19168
883.64	19225
883.766	19164
883.892	18989
884.018	19027
884.143	19152
884.269	19266
884.395	19053
884.52	18875
884.646	18848
884.772	18837
884.897	18673
885.023	18886
885.148	19046
885.274	19012
885.399	19027
885.524	18867
885.65	18981
885.775	18840
885.9	18856
886.025	18977
886.15	18875
886.275	18783
886.4	18707
886.525	18852
886.65	18722
886.775	18810
886.9	18886
887.025	18993
887.149	18795
887.274	18726
887.399	18677
887.523	18722
887.648	18528
887.773	18566
887.897	18730
888.021	18612
888.146	18601
888.27	18681
888.395	18749
888.519	18715
888.643	18646
888.767	18711
888.891	18551
889.015	18414
889.139	18601
889.263	18441
889.387	18559
889.511	18498
889.635	18517
889.759	18410
889.883	18372
890.006	18323
890.13	18544
890.254	18346
890.377	18292
890.501	18209
890.624	18174
890.748	18182
890.871	18159
890.995	18007
891.118	17950
891.241	17897
891.364	18076
891.488	18072
891.611	18125
891.734	18019
891.857	18045
891.98	18121
892.103	18030
892.226	18034
892.349	17965
892.471	17821
892.594	17939
892.717	18057
892.839	17904
892.962	18011
893.085	18007
893.207	17999
893.33	17767
893.452	17912
893.575	18091
893.697	17904
893.819	18148
893.941	18224
894.064	18083
894.186	17992
894.308	18019
894.43	17980
894.552	18163
894.674	18026
894.796	17954
894.918	17893
895.04	17942
895.161	17965
895.283	18095
895.405	17973
895.526	17942
895.648	17999
895.769	18049
895.891	17950
896.012	18064
896.134	18091
896.255	18072
896.376	18049
896.498	18110
896.619	17980
896.74	18129
896.861	18213
896.982	18395
897.103	18616
897.224	18247
897.345	18254
897.466	18155
897.587	18330
897.708	18456
897.828	18399
897.949	18334
898.07	18167
898.19	18167
898.311	18350
898.431	18319
898.552	18289
898.672	18376
898.792	18327
898.913	18388
899.033	18095
899.153	18174
899.273	18038
899.393	17950
899.513	18098
899.633	18049
899.753	18114
899.873	18057
899.993	17988
900.113	17969
900.232	18159
900.352	17984
900.472	18022
900.591	17836
900.711	17912
900.83	17889
900.95	18034
901.069	17999
901.189	17737
901.308	17668
901.427	17608
901.546	17505
901.665	17623
901.784	17482
901.904	17349
902.023	17181
902.141	17109
902.26	17079
902.379	17246
902.498	16987
902.617	16965
902.735	16995
902.854	17010
902.973	16843
903.091	16752
903.21	16653
903.328	16763
903.446	16615
903.565	16596
903.683	16519
903.801	16402
903.919	16474
904.038	16421
904.156	16379
904.274	16367
904.392	16249
904.51	16268
904.627	16318
904.745	16276
904.863	16276
904.981	16078
905.098	15949
905.216	15968
905.334	16044
905.451	15911
905.569	15842
905.686	15903
905.803	15964
905.921	15838
906.038	15892
906.155	15804
906.272	15660
906.389	15785
906.506	15523
906.623	15428
906.74	15500
906.857	15355
906.974	15408
907.091	15458
907.208	15614
907.324	15492
907.441	15340
907.557	15233
907.674	15245
907.79	15135
907.907	15127
908.023	15211
908.139	15123
908.256	15100
908.372	15081
908.488	14960
908.604	14948
908.72	14895
908.836	14986
908.952	14823
909.068	14868
909.184	14956
909.3	14883
909.415	14941
909.531	14956
909.647	14712
909.762	14625
909.878	14598
909.993	14667
910.108	14583
910.224	14564
910.339	14621
910.454	14438
910.57	14427
910.685	14339
910.8	14693
910.915	14549
911.03	14438
911.145	14298
911.259	14202
911.374	14290
911.489	14145
911.604	14123
911.718	13955
911.833	13967
911.947	13898
912.062	13811
912.176	13932
912.291	13970
912.405	14024
912.519	14096
912.633	14180
912.748	14092
912.862	13932
912.976	13887
913.09	13677
913.204	13772
913.318	13765
913.431	13799
913.545	13864
913.659	13879
913.772	13788
913.886	13696
914	13563
914.113	13715
914.226	13841
914.34	13719
914.453	13556
914.566	13704
914.68	13540
914.793	13544
914.906	13331
915.019	13266
915.132	13263
915.245	13247
915.358	13438
915.47	13316
915.583	13365
915.696	13369
915.809	13415
915.921	13407
916.034	13320
916.146	13164
916.259	13118
916.371	13285
916.483	13251
916.595	13175
916.708	13175
916.82	13110
916.932	13209
917.044	13133
917.156	13133
917.268	13000
917.38	13034
917.491	12943
917.603	13080
917.715	13084
917.826	12989
917.938	12966
918.049	12947
918.161	13008
918.272	13114
918.384	13034
918.495	12996
918.606	12871
918.717	12795
918.828	12875
918.939	12856
919.05	12734
919.161	12848
919.272	12612
919.383	12639
919.494	12856
919.604	12962
919.715	12753
919.826	12707
919.936	12696
920.047	12848
920.157	12787
920.267	12890
920.378	12795
920.488	12711
920.598	12947
920.708	13095
920.818	12863
920.928	12954
921.038	13046
921.148	12985
921.258	12715
921.368	12612
921.477	12555
921.587	12547
921.697	12418
921.806	12585
921.916	12395
922.025	12243
922.134	12281
922.244	12133
922.353	12254
922.462	12057
922.571	11961
922.68	11882
922.789	11847
922.898	11904
923.007	11809
923.116	11874
923.224	11878
923.333	11737
923.442	11748
923.55	11577
923.659	11802
923.767	11756
923.876	11672
923.984	11786
924.092	11570
924.201	11634
924.309	11642
924.417	11630
924.525	11600
924.633	11611
924.741	12502
924.849	11444
924.956	11585
925.064	11421
925.172	11318
925.279	11440
925.387	11315
925.494	11376
925.602	11528
925.709	11433
925.816	11277
925.924	11353
926.031	11467
926.138	11345
926.245	11368
926.352	11155
926.459	11345
926.566	11368
926.673	11337
926.779	11223
926.886	11181
926.993	10949
927.099	11025
927.206	10942
927.312	10900
927.419	11060
927.525	10984
927.631	11003
927.737	10812
927.843	10809
927.95	10771
928.056	10801
928.162	10835
928.267	10869
928.373	11406
928.479	10908
928.585	10611
928.69	10816
928.796	10953
928.901	10733
929.007	10653
929.112	10698
929.218	10687
929.323	10679
929.428	10569
929.533	10672
929.638	10592
929.743	10603
929.848	10641
929.953	10455
930.058	10432
930.163	10306
930.267	10325
930.372	10466
930.477	10310
930.581	10424
930.685	10314
930.79	10253
930.894	10246
930.998	10158
931.103	10242
931.207	9941
931.311	9854
931.415	9823
931.519	9663
931.623	9603
