Data from test_V78500241_3493.txt Node
Date: Fri Mar 25 14:58:02 CST 2022
User: usil
Spectrometer: V785-0024
Trigger mode: 0
Integration Time (sec): 4.000000E-1
Scans to average: 1
Nonlinearity correction enabled: false
Boxcar width: 0
Storing dark spectrum: false
XAxis mode: Wavelengths
Number of Pixels in Spectrum: 1024
>>>>>Begin Spectral Data<<<<<
801.071	21895
801.214	21854
801.356	21534
801.499	21511
801.641	21431
801.783	21275
801.926	21355
802.068	21344
802.211	21112
802.353	21058
802.496	21009
802.638	20777
802.78	20739
802.923	20674
803.065	20663
803.208	20568
803.35	20674
803.492	20842
803.635	20773
803.777	20571
803.919	20629
804.061	20952
804.204	20594
804.346	20655
804.488	20587
804.63	20583
804.773	20450
804.915	20480
805.057	20594
805.199	20549
805.341	20648
805.483	20632
805.626	20636
805.768	20476
805.91	20564
806.052	20625
806.194	20480
806.336	20693
806.478	20492
806.62	20488
806.762	20644
806.904	20750
807.046	20998
807.188	20861
807.33	20777
807.472	20944
807.614	20655
807.756	20845
807.898	20724
808.04	20537
808.182	20575
808.324	20640
808.465	20659
808.607	20826
808.749	20838
808.891	20910
809.033	21074
809.174	20929
809.316	20792
809.458	20948
809.6	20883
809.741	20899
809.883	20872
810.025	20891
810.166	21058
810.308	21077
810.45	20967
810.591	20876
810.733	20807
810.875	20629
811.016	20636
811.158	20522
811.299	20587
811.441	20807
811.582	20804
811.724	20667
811.865	20606
812.007	20655
812.148	20625
812.29	20632
812.431	20811
812.573	20891
812.714	20948
812.855	21184
812.997	21294
813.138	21408
813.279	21214
813.421	21211
813.562	20963
813.703	20895
813.845	20773
813.986	20571
814.127	20355
814.268	20229
814.41	20210
814.551	20248
814.692	20256
814.833	20187
814.974	20103
815.115	20134
815.256	20043
815.397	20088
815.539	20039
815.68	19982
815.821	19913
815.962	19902
816.103	19856
816.244	19632
816.385	19696
816.526	19533
816.666	19472
816.807	19236
816.948	19381
817.089	19396
817.23	19396
817.371	19324
817.512	19346
817.653	19346
817.793	19308
817.934	19217
818.075	19266
818.216	19339
818.356	19308
818.497	19236
818.638	19000
818.778	18943
818.919	19015
819.06	19103
819.2	19221
819.341	19156
819.481	19126
819.622	19339
819.762	19533
819.903	19487
820.043	19453
820.184	19335
820.324	19335
820.465	19346
820.605	19263
820.746	19217
820.886	19099
821.026	19285
821.167	19217
821.307	19282
821.447	19232
821.588	19084
821.728	18954
821.868	18779
822.008	18688
822.149	18730
822.289	18650
822.429	18422
822.569	18391
822.709	18437
822.849	18129
822.99	18190
823.13	18174
823.27	18197
823.41	17958
823.55	17863
823.69	18007
823.83	18106
823.97	17885
824.11	17737
824.25	17729
824.389	17798
824.529	17798
824.669	17817
824.809	17889
824.949	17798
825.089	17840
825.228	17718
825.368	17520
825.508	17585
825.648	17638
825.787	17627
825.927	17596
826.067	17615
826.206	17554
826.346	17474
826.485	17570
826.625	17570
826.765	17783
826.904	17619
827.044	17277
827.183	17246
827.323	17307
827.462	17349
827.601	17280
827.741	17216
827.88	17288
828.02	17098
828.159	17242
828.298	17318
828.437	17181
828.577	17143
828.716	17372
828.855	17223
828.994	17098
829.134	17079
829.273	17067
829.412	16904
829.551	16995
829.69	16946
829.829	17029
829.968	17200
830.107	17018
830.246	17151
830.385	16942
830.524	16968
830.663	16850
830.802	16801
830.941	16588
831.08	16550
831.219	16668
831.357	16660
831.496	16869
831.635	16675
831.774	16512
831.913	16523
832.051	16409
832.19	16443
832.329	16440
832.467	16291
832.606	16322
832.744	16318
832.883	16280
833.022	16272
833.16	16234
833.299	16417
833.437	16318
833.576	16394
833.714	16402
833.852	16295
833.991	16432
834.129	16394
834.267	16325
834.406	16299
834.544	16470
834.682	16436
834.821	16371
834.959	16573
835.097	16417
835.235	16481
835.373	16512
835.511	16440
835.65	16443
835.788	16337
835.926	16173
836.064	16120
836.202	16169
836.34	16398
836.478	16462
836.615	16268
836.753	16360
836.891	16440
837.029	16421
837.167	16306
837.305	16348
837.443	16207
837.58	16101
837.718	16204
837.856	16188
837.993	16143
838.131	16109
838.269	16082
838.406	16177
838.544	16067
838.681	15869
838.819	15926
838.956	15842
839.094	15736
839.231	15789
839.369	15903
839.506	16086
839.643	15975
839.781	15808
839.918	15728
840.055	15759
840.193	15751
840.33	15629
840.467	15667
840.604	15713
840.742	16021
840.879	15644
841.016	15641
841.153	15656
841.29	15846
841.427	15789
841.564	15732
841.701	15755
841.838	15629
841.975	15732
842.112	15629
842.249	15507
842.385	15549
842.522	15728
842.659	15549
842.796	15542
842.933	15572
843.069	15523
843.206	15504
843.343	15599
843.479	15553
843.616	15515
843.752	15447
843.889	15416
844.025	15545
844.162	15275
844.298	15450
844.435	15306
844.571	15256
844.708	15450
844.844	15507
844.98	15466
845.117	15496
845.253	15325
845.389	15165
845.525	15203
845.661	15245
845.798	15211
845.934	15218
846.07	15112
846.206	15093
846.342	15173
846.478	15127
846.614	14967
846.75	14849
846.886	14807
847.022	14944
847.158	14937
847.294	14948
847.429	14925
847.565	14883
847.701	15138
847.837	14693
847.972	14686
848.108	14796
848.244	14705
848.379	14549
848.515	14537
848.65	14556
848.786	14457
848.921	14533
849.057	14526
849.192	14629
849.328	14545
849.463	14560
849.598	14415
849.734	14446
849.869	14374
850.004	14309
850.14	14275
850.275	14317
850.41	14183
850.545	14206
850.68	14218
850.815	14233
850.95	14256
851.085	14423
851.22	14275
851.355	14332
851.49	14244
851.625	14210
851.76	14248
851.895	14157
852.03	14172
852.165	14244
852.299	14282
852.434	14320
852.569	14286
852.703	14202
852.838	14336
852.973	14473
853.107	14412
853.242	14225
853.376	14149
853.511	14027
853.645	14161
853.78	14168
853.914	14096
854.048	14024
854.183	14069
854.317	14180
854.451	14294
854.585	14126
854.72	14092
854.854	14244
854.988	14077
855.122	14100
855.256	13959
855.39	14062
855.524	14301
855.658	14187
855.792	14172
855.926	14191
856.06	14142
856.194	14259
856.327	14130
856.461	14031
856.595	14035
856.729	14008
856.862	14187
856.996	14111
857.13	14202
857.263	14199
857.397	14301
857.53	14157
857.664	14214
857.797	14256
857.931	14221
858.064	14180
858.197	14202
858.331	14096
858.464	14103
858.597	14126
858.731	14073
858.864	14191
858.997	14107
859.13	14130
859.263	14142
859.396	14290
859.529	14065
859.662	14221
859.795	13967
859.928	14202
860.061	14202
860.194	14244
860.327	14176
860.46	14138
860.592	14252
860.725	14252
860.858	14317
860.99	14176
861.123	14084
861.256	13986
861.388	14123
861.521	14849
861.653	14050
861.786	13921
861.918	13963
862.05	14001
862.183	13989
862.315	14157
862.447	14130
862.58	14008
862.712	13913
862.844	13833
862.976	13902
863.108	14001
863.24	14290
863.372	13845
863.504	13936
863.636	13864
863.768	14031
863.9	13849
864.032	13864
864.164	13944
864.296	13894
864.428	14005
864.559	14020
864.691	14134
864.823	14065
864.954	13970
865.086	13967
865.217	13776
865.349	13837
865.48	13883
865.612	13951
865.743	14077
865.875	13959
866.006	13890
866.137	13856
866.269	13963
866.4	13772
866.531	13833
866.662	13811
866.793	13925
866.924	13883
867.055	13833
867.186	13925
867.317	13940
867.448	13864
867.579	13849
867.71	13845
867.841	13856
867.972	13947
868.103	13875
868.233	13868
868.364	13852
868.495	14084
868.625	14115
868.756	14358
868.886	14024
869.017	14062
869.147	14256
869.278	14286
869.408	14164
869.539	14119
869.669	14214
869.799	14187
869.929	14259
870.06	14252
870.19	14499
870.32	14450
870.45	14450
870.58	14522
870.71	14705
870.84	14613
870.97	14480
871.1	14530
871.23	14708
871.36	14773
871.489	14598
871.619	14731
871.749	14765
871.879	14762
872.008	14971
872.138	14750
872.267	14758
872.397	14659
872.526	14579
872.656	14568
872.785	14590
872.915	14785
873.044	14853
873.173	14796
873.303	14807
873.432	14857
873.561	14845
873.69	14902
873.819	14708
873.948	14845
874.077	14792
874.206	14785
874.335	14777
874.464	14986
874.593	15157
874.722	15036
874.851	15150
874.979	15028
875.108	15233
875.237	15070
875.365	15051
875.494	15104
875.623	15184
875.751	15108
875.88	15157
876.008	15351
876.136	15363
876.265	15504
876.393	15591
876.521	15675
876.65	15614
876.778	15595
876.906	15435
877.034	15416
877.162	15500
877.29	15473
877.418	15443
877.546	15507
877.674	15553
877.802	15431
877.93	15492
878.058	15443
878.185	15397
878.313	15469
878.441	15462
878.568	15420
878.696	15523
878.824	15485
878.951	15549
879.079	15701
879.206	15895
879.333	15610
879.461	15572
879.588	15671
879.715	15717
879.842	15808
879.97	15538
880.097	15389
880.224	15355
880.351	15481
880.478	15359
880.605	15325
880.732	15397
880.859	15610
880.986	15336
881.112	15386
881.239	15306
881.366	15157
881.493	15028
881.619	14960
881.746	15051
881.872	15020
881.999	15039
882.125	14979
882.252	15116
882.378	15017
882.505	15237
882.631	14887
882.757	14872
882.883	14914
883.01	14895
883.136	14788
883.262	14746
883.388	14693
883.514	14880
883.64	14933
883.766	14693
883.892	14762
884.018	14686
884.143	14819
884.269	14921
884.395	14689
884.52	14488
884.646	14533
884.772	14511
884.897	14533
885.023	14667
885.148	14712
885.274	14739
885.399	14644
885.524	14598
885.65	14507
885.775	14545
885.9	14564
886.025	14674
886.15	14636
886.275	14503
886.4	14408
886.525	14503
886.65	14560
886.775	14434
886.9	14724
887.025	14819
887.149	14473
887.274	14499
887.399	14377
887.523	14381
887.648	14336
887.773	14256
887.897	14434
888.021	14431
888.146	14400
888.27	14473
888.395	14625
888.519	14473
888.643	14419
888.767	14507
888.891	14301
889.015	14187
889.139	14240
889.263	14317
889.387	14309
889.511	14492
889.635	14324
889.759	14244
889.883	14298
890.006	14393
890.13	14404
890.254	14240
890.377	14149
890.501	14084
890.624	14024
890.748	14115
890.871	13906
890.995	13993
891.118	13879
891.241	13982
891.364	13947
891.488	14084
891.611	13955
891.734	13959
891.857	14065
891.98	13955
892.103	14046
892.226	13947
892.349	13936
892.471	13814
892.594	13989
892.717	13974
892.839	13982
892.962	13967
893.085	13951
893.207	13997
893.33	13864
893.452	13989
893.575	13967
893.697	13871
893.819	14134
893.941	14103
894.064	14111
894.186	13928
894.308	13928
894.43	14062
894.552	14206
894.674	14107
894.796	13921
894.918	14126
895.04	13967
895.161	14073
895.283	14111
895.405	14027
895.526	14081
895.648	14073
895.769	14058
895.891	14191
896.012	14294
896.134	14229
896.255	14115
896.376	14024
896.498	13986
896.619	14031
896.74	14172
896.861	14161
896.982	14438
897.103	14587
897.224	14450
897.345	14309
897.466	14339
897.587	14298
897.708	14385
897.828	14492
897.949	14355
898.07	14305
898.19	14511
898.311	14488
898.431	14495
898.552	14488
898.672	14556
898.792	14549
898.913	14537
899.033	14511
899.153	14339
899.273	14328
899.393	14282
899.513	14366
899.633	14324
899.753	14259
899.873	14271
899.993	14412
900.113	14313
900.232	14259
900.352	14275
900.472	14202
900.591	14206
900.711	14218
900.83	14142
900.95	14275
901.069	14294
901.189	14210
901.308	13936
901.427	13841
901.546	13898
901.665	13887
901.784	13887
901.904	13822
902.023	13727
902.141	13506
902.26	13422
902.379	13510
902.498	13415
902.617	13335
902.735	13533
902.854	13434
902.973	13316
903.091	13160
903.21	13103
903.328	13266
903.446	13099
903.565	13038
903.683	13145
903.801	13034
903.919	13057
904.038	12985
904.156	12833
904.274	12943
904.392	12783
904.51	12856
904.627	12825
904.745	12932
904.863	12947
904.981	12738
905.098	12582
905.216	12528
905.334	12506
905.451	12555
905.569	12601
905.686	12475
905.803	12490
905.921	12372
906.038	12460
906.155	12410
906.272	12285
906.389	12334
906.506	12201
906.623	12148
906.74	12087
906.857	11969
906.974	12015
907.091	12216
907.208	12254
907.324	12110
907.441	11984
907.557	12015
907.674	11889
907.79	11817
907.907	11817
908.023	11821
908.139	11855
908.256	11790
908.372	11764
908.488	11783
908.604	11691
908.72	11699
908.836	11668
908.952	11646
909.068	11710
909.184	11745
909.3	11733
909.415	11688
909.531	11619
909.647	11402
909.762	11387
909.878	11410
909.993	11440
910.108	11467
910.224	11299
910.339	11391
910.454	11307
910.57	11254
910.685	11212
910.8	11478
910.915	11330
911.03	11326
911.145	11109
911.259	11140
911.374	11140
911.489	11064
911.604	11060
911.718	10900
911.833	10953
911.947	10774
912.062	10767
912.176	10927
912.291	10824
912.405	10862
912.519	11094
912.633	10999
912.748	10949
912.862	10915
912.976	10733
913.09	10714
913.204	10649
913.318	10717
913.431	10767
913.545	10854
913.659	10889
913.772	10736
913.886	10656
914	10596
914.113	10748
914.226	10786
914.34	10656
914.453	10546
914.566	10805
914.68	10558
914.793	10573
914.906	10421
915.019	10272
915.132	10287
915.245	10375
915.358	10390
915.47	10413
915.583	10341
915.696	10394
915.809	10455
915.921	10561
916.034	10402
916.146	10344
916.259	10299
916.371	10417
916.483	10428
916.595	10291
916.708	10303
916.82	10306
916.932	10341
917.044	10276
917.156	10234
917.268	10188
917.38	10249
917.491	10227
917.603	10207
917.715	10284
917.826	10375
917.938	10154
918.049	10124
918.161	10234
918.272	10375
918.384	10455
918.495	10242
918.606	10105
918.717	10013
918.828	10082
918.939	10158
919.05	10051
919.161	10109
919.272	9884
919.383	9975
919.494	10150
919.604	10306
919.715	10147
919.826	10036
919.936	10086
920.047	10177
920.157	10139
920.267	10303
920.378	10109
920.488	10131
920.598	10310
920.708	10402
920.818	10348
920.928	10291
921.038	10470
921.148	10478
921.258	10143
921.368	10048
921.477	10021
921.587	9972
921.697	9854
921.806	9945
921.916	9873
922.025	9682
922.134	9698
922.244	9625
922.353	9797
922.462	9564
922.571	9534
922.68	9439
922.789	9344
922.898	9469
923.007	9260
923.116	9458
923.224	9378
923.333	9359
923.442	9275
923.55	9176
923.659	9260
923.767	9408
923.876	9241
923.984	9245
924.092	9176
924.201	9264
924.309	9241
924.417	9230
924.525	9161
924.633	9222
924.741	9937
924.849	9055
924.956	9184
925.064	9020
925.172	8899
925.279	9043
925.387	9024
925.494	9097
925.602	9154
925.709	9138
925.816	9047
925.924	9085
926.031	9089
926.138	8998
926.245	9077
926.352	8994
926.459	9112
926.566	9112
926.673	8963
926.779	8864
926.886	8872
926.993	8754
927.099	8762
927.206	8712
927.312	8720
927.419	8819
927.525	8716
927.631	8823
927.737	8667
927.843	8621
927.95	8522
928.056	8655
928.162	8594
928.267	8689
928.373	9306
928.479	8842
928.585	8556
928.69	8663
928.796	8659
928.901	8602
929.007	8442
929.112	8598
929.218	8533
929.323	8450
929.428	8415
929.533	8587
929.638	8396
929.743	8461
929.848	8526
929.953	8427
930.058	8431
930.163	8202
930.267	8237
930.372	8366
930.477	8202
930.581	8473
930.685	8305
930.79	8183
930.894	8256
930.998	8161
931.103	8252
931.207	7928
931.311	7944
931.415	8005
931.519	7643
931.623	7723
