Data from test_V78500241_3361.txt Node
Date: Fri Mar 25 14:57:07 CST 2022
User: usil
Spectrometer: V785-0024
Trigger mode: 0
Integration Time (sec): 4.000000E-1
Scans to average: 1
Nonlinearity correction enabled: false
Boxcar width: 0
Storing dark spectrum: false
XAxis mode: Wavelengths
Number of Pixels in Spectrum: 1024
>>>>>Begin Spectral Data<<<<<
801.071	21979
801.214	21895
801.356	21610
801.499	21454
801.641	21317
801.783	21397
801.926	21214
802.068	21310
802.211	21211
802.353	20963
802.496	20906
802.638	20857
802.78	20765
802.923	20648
803.065	20533
803.208	20629
803.35	20659
803.492	20743
803.635	20826
803.777	20648
803.919	20697
804.061	20902
804.204	20697
804.346	20465
804.488	20552
804.63	20526
804.773	20533
804.915	20476
805.057	20678
805.199	20552
805.341	20568
805.483	20765
805.626	20552
805.768	20514
805.91	20514
806.052	20598
806.194	20522
806.336	20613
806.478	20423
806.62	20549
806.762	20408
806.904	20769
807.046	20963
807.188	20853
807.33	20807
807.472	20963
807.614	20842
807.756	20720
807.898	20568
808.04	20636
808.182	20514
808.324	20640
808.465	20659
808.607	20899
808.749	20861
808.891	20986
809.033	20982
809.174	20861
809.316	20857
809.458	20762
809.6	20830
809.741	20826
809.883	20971
810.025	21058
810.166	20994
810.308	20929
810.45	21089
810.591	20929
810.733	20781
810.875	20712
811.016	20609
811.158	20537
811.299	20617
811.441	20644
811.582	20686
811.724	20705
811.865	20564
812.007	20617
812.148	20667
812.29	20655
812.431	20826
812.573	20963
812.714	21055
812.855	21051
812.997	21108
813.138	21268
813.279	21195
813.421	21169
813.562	20986
813.703	20826
813.845	20788
813.986	20518
814.127	20366
814.268	20256
814.41	20092
814.551	20244
814.692	20138
814.833	20088
814.974	20107
815.115	20256
815.256	19944
815.397	20016
815.539	19982
815.68	19879
815.821	19776
815.962	19936
816.103	19906
816.244	19753
816.385	19609
816.526	19616
816.666	19487
816.807	19289
816.948	19388
817.089	19403
817.23	19384
817.371	19278
817.512	19350
817.653	19331
817.793	19289
817.934	19369
818.075	19335
818.216	19209
818.356	19263
818.497	19194
818.638	18981
818.778	19072
818.919	19057
819.06	18939
819.2	19095
819.341	19179
819.481	19213
819.622	19343
819.762	19510
819.903	19396
820.043	19354
820.184	19327
820.324	19339
820.465	19312
820.605	19289
820.746	19244
820.886	19213
821.026	19274
821.167	19217
821.307	19228
821.447	19091
821.588	19152
821.728	18909
821.868	18764
822.008	18806
822.149	18722
822.289	18650
822.429	18338
822.569	18346
822.709	18376
822.849	18197
822.99	18251
823.13	18220
823.27	18152
823.41	18079
823.55	18019
823.69	18148
823.83	18022
823.97	17893
824.11	17783
824.25	17741
824.389	17756
824.529	17775
824.669	17714
824.809	17847
824.949	17893
825.089	17847
825.228	17798
825.368	17592
825.508	17642
825.648	17676
825.787	17661
825.927	17577
826.067	17505
826.206	17585
826.346	17623
826.485	17611
826.625	17539
826.765	17630
826.904	17653
827.044	17265
827.183	17284
827.323	17246
827.462	17265
827.601	17239
827.741	17200
827.88	17216
828.02	17140
828.159	17265
828.298	17273
828.437	17193
828.577	17204
828.716	17280
828.855	17086
828.994	16965
829.134	17022
829.273	16984
829.412	16991
829.551	16980
829.69	16980
829.829	17006
829.968	17140
830.107	17064
830.246	17102
830.385	16999
830.524	16908
830.663	16854
830.802	16786
830.941	16645
831.08	16698
831.219	16755
831.357	16721
831.496	16946
831.635	16759
831.774	16706
831.913	16611
832.051	16478
832.19	16462
832.329	16497
832.467	16329
832.606	16424
832.744	16379
832.883	16421
833.022	16196
833.16	16394
833.299	16363
833.437	16360
833.576	16371
833.714	16394
833.852	16512
833.991	16405
834.129	16481
834.267	16402
834.406	16462
834.544	16436
834.682	16535
834.821	16405
834.959	16550
835.097	16455
835.235	16481
835.373	16462
835.511	16497
835.65	16382
835.788	16333
835.926	16128
836.064	16120
836.202	16128
836.34	16291
836.478	16428
836.615	16314
836.753	16284
836.891	16489
837.029	16356
837.167	16360
837.305	16219
837.443	16181
837.58	16196
837.718	16246
837.856	16242
837.993	16207
838.131	16249
838.269	16059
838.406	16135
838.544	16112
838.681	15991
838.819	15884
838.956	15713
839.094	15785
839.231	15808
839.369	15880
839.506	16177
839.643	16002
839.781	15766
839.918	15686
840.055	15759
840.193	15934
840.33	15800
840.467	15720
840.604	15797
840.742	15968
840.879	15751
841.016	15629
841.153	15637
841.29	15869
841.427	15846
841.564	15842
841.701	15850
841.838	15755
841.975	15648
842.112	15682
842.249	15644
842.385	15549
842.522	15694
842.659	15534
842.796	15511
842.933	15614
843.069	15675
843.206	15538
843.343	15606
843.479	15633
843.616	15534
843.752	15389
843.889	15241
844.025	15416
844.162	15279
844.298	15515
844.435	15348
844.571	15188
844.708	15477
844.844	15481
844.98	15481
845.117	15420
845.253	15298
845.389	15180
845.525	15252
845.661	15222
845.798	15077
845.934	15112
846.07	15081
846.206	15142
846.342	15264
846.478	15199
846.614	14925
846.75	14849
846.886	14773
847.022	15028
847.158	14902
847.294	14906
847.429	15013
847.565	14838
847.701	15214
847.837	14727
847.972	14564
848.108	14838
848.244	14701
848.379	14552
848.515	14598
848.65	14488
848.786	14545
848.921	14507
849.057	14587
849.192	14632
849.328	14476
849.463	14465
849.598	14560
849.734	14408
849.869	14431
850.004	14233
850.14	14339
850.275	14290
850.41	14111
850.545	14275
850.68	14252
850.815	14309
850.95	14343
851.085	14461
851.22	14374
851.355	14275
851.49	14237
851.625	14233
851.76	14237
851.895	14183
852.03	14218
852.165	14263
852.299	14256
852.434	14358
852.569	14301
852.703	14259
852.838	14415
852.973	14412
853.107	14473
853.242	14244
853.376	14119
853.511	14024
853.645	14054
853.78	14267
853.914	14191
854.048	14176
854.183	14164
854.317	14218
854.451	14317
854.585	14142
854.72	14088
854.854	14195
854.988	14096
855.122	14221
855.256	14058
855.39	14161
855.524	14225
855.658	14305
855.792	14199
855.926	14218
856.06	14172
856.194	14252
856.327	14233
856.461	14062
856.595	14092
856.729	14161
856.862	14339
856.996	14229
857.13	14206
857.263	14290
857.397	14313
857.53	14096
857.664	14199
857.797	14248
857.931	14259
858.064	14305
858.197	14267
858.331	14130
858.464	14088
858.597	13963
858.731	14221
858.864	14210
858.997	14164
859.13	14157
859.263	14153
859.396	14180
859.529	14153
859.662	14123
859.795	14138
859.928	14225
860.061	14263
860.194	14389
860.327	14134
860.46	14180
860.592	14256
860.725	14370
860.858	14286
860.99	14130
861.123	14081
861.256	14092
861.388	14115
861.521	14883
861.653	14058
861.786	14035
861.918	14016
862.05	14115
862.183	14119
862.315	14183
862.447	14237
862.58	14084
862.712	13944
862.844	13951
862.976	13959
863.108	13989
863.24	14450
863.372	13902
863.504	13932
863.636	13860
863.768	14046
863.9	13932
864.032	13894
864.164	13921
864.296	13955
864.428	13986
864.559	13921
864.691	14005
864.823	13940
864.954	13997
865.086	13955
865.217	13997
865.349	13890
865.48	13917
865.612	13955
865.743	14035
865.875	13887
866.006	13799
866.137	13913
866.269	13902
866.4	13868
866.531	13936
866.662	13803
866.793	13944
866.924	13917
867.055	13997
867.186	14020
867.317	13849
867.448	13799
867.579	13830
867.71	13868
867.841	13841
867.972	13833
868.103	13875
868.233	14046
868.364	13864
868.495	14050
868.625	14153
868.756	14233
868.886	14043
869.017	14191
869.147	14271
869.278	14339
869.408	14267
869.539	14065
869.669	14278
869.799	14168
869.929	14343
870.06	14336
870.19	14480
870.32	14408
870.45	14495
870.58	14556
870.71	14606
870.84	14689
870.97	14526
871.1	14571
871.23	14765
871.36	14750
871.489	14655
871.619	14746
871.749	14807
871.879	14762
872.008	14864
872.138	14697
872.267	14769
872.397	14575
872.526	14629
872.656	14613
872.785	14625
872.915	14804
873.044	14937
873.173	14838
873.303	14819
873.432	14918
873.561	14906
873.69	14910
873.819	14785
873.948	14883
874.077	14792
874.206	14838
874.335	14960
874.464	14986
874.593	15154
874.722	15055
874.851	15150
874.979	15313
875.108	15074
875.237	15032
875.365	15081
875.494	15173
875.623	15237
875.751	15055
875.88	15199
876.008	15340
876.136	15355
876.265	15652
876.393	15717
876.521	15614
876.65	15641
876.778	15561
876.906	15652
877.034	15526
877.162	15625
877.29	15458
877.418	15584
877.546	15553
877.674	15534
877.802	15545
877.93	15549
878.058	15416
878.185	15485
878.313	15614
878.441	15580
878.568	15378
878.696	15473
878.824	15492
878.951	15603
879.079	15755
879.206	15884
879.333	15698
879.461	15603
879.588	15644
879.715	15720
879.842	15800
879.97	15641
880.097	15473
880.224	15401
880.351	15405
880.478	15458
880.605	15329
880.732	15507
880.859	15553
880.986	15443
881.112	15401
881.239	15237
881.366	15214
881.493	15108
881.619	15112
881.746	15108
881.872	15127
881.999	14967
882.125	14963
882.252	15146
882.378	15161
882.505	15222
882.631	14982
882.757	14933
882.883	14910
883.01	14872
883.136	14948
883.262	14743
883.388	14640
883.514	15020
883.64	14868
883.766	14857
883.892	14800
884.018	14743
884.143	14857
884.269	15036
884.395	14655
884.52	14511
884.646	14575
884.772	14518
884.897	14541
885.023	14568
885.148	14716
885.274	14758
885.399	14693
885.524	14594
885.65	14602
885.775	14579
885.9	14556
886.025	14590
886.15	14594
886.275	14526
886.4	14469
886.525	14549
886.65	14476
886.775	14495
886.9	14746
887.025	14792
887.149	14571
887.274	14446
887.399	14465
887.523	14317
887.648	14393
887.773	14393
887.897	14560
888.021	14461
888.146	14355
888.27	14518
888.395	14454
888.519	14568
888.643	14446
888.767	14587
888.891	14389
889.015	14214
889.139	14328
889.263	14248
889.387	14385
889.511	14469
889.635	14355
889.759	14195
889.883	14191
890.006	14332
890.13	14404
890.254	14282
890.377	14271
890.501	14126
890.624	14031
890.748	14168
890.871	13967
890.995	13947
891.118	13871
891.241	13970
891.364	14012
891.488	14050
891.611	13967
891.734	14020
891.857	14077
891.98	14062
892.103	14039
892.226	14046
892.349	13921
892.471	13780
892.594	13993
892.717	14008
892.839	14020
892.962	13963
893.085	14069
893.207	14012
893.33	13830
893.452	13811
893.575	14027
893.697	13982
893.819	14195
893.941	14221
894.064	14134
894.186	13982
894.308	14058
894.43	14206
894.552	14164
894.674	14168
894.796	13932
894.918	14039
895.04	13963
895.161	14183
895.283	14111
895.405	14046
895.526	14088
895.648	14107
895.769	14149
895.891	14172
896.012	14256
896.134	14161
896.255	14214
896.376	14035
896.498	14126
896.619	14225
896.74	14191
896.861	14199
896.982	14442
897.103	14689
897.224	14457
897.345	14358
897.466	14324
897.587	14377
897.708	14514
897.828	14461
897.949	14427
898.07	14328
898.19	14469
898.311	14579
898.431	14438
898.552	14503
898.672	14568
898.792	14682
898.913	14606
899.033	14461
899.153	14465
899.273	14282
899.393	14351
899.513	14317
899.633	14377
899.753	14446
899.873	14396
899.993	14484
900.113	14442
900.232	14332
900.352	14336
900.472	14301
900.591	14168
900.711	14347
900.83	14187
900.95	14229
901.069	14298
901.189	14218
901.308	13940
901.427	13879
901.546	13883
901.665	14001
901.784	13970
901.904	13780
902.023	13841
902.141	13544
902.26	13480
902.379	13590
902.498	13483
902.617	13476
902.735	13544
902.854	13487
902.973	13400
903.091	13145
903.21	13194
903.328	13221
903.446	13194
903.565	13012
903.683	13053
903.801	12966
903.919	13099
904.038	13019
904.156	12833
904.274	12867
904.392	12844
904.51	12848
904.627	12825
904.745	12890
904.863	13008
904.981	12707
905.098	12517
905.216	12498
905.334	12593
905.451	12467
905.569	12563
905.686	12525
905.803	12448
905.921	12357
906.038	12506
906.155	12330
906.272	12296
906.389	12289
906.506	12171
906.623	12171
906.74	12155
906.857	12133
906.974	12049
907.091	12155
907.208	12308
907.324	12186
907.441	12022
907.557	12026
907.674	11893
907.79	11805
907.907	11897
908.023	11908
908.139	11961
908.256	11821
908.372	11813
908.488	11843
908.604	11684
908.72	11642
908.836	11688
908.952	11672
909.068	11676
909.184	11760
909.3	11619
909.415	11748
909.531	11714
909.647	11490
909.762	11440
909.878	11436
909.993	11414
910.108	11429
910.224	11512
910.339	11478
910.454	11330
910.57	11307
910.685	11143
910.8	11547
910.915	11459
911.03	11330
911.145	11159
911.259	11136
911.374	11162
911.489	11033
911.604	11060
911.718	10889
911.833	10915
911.947	10721
912.062	10721
912.176	10881
912.291	10869
912.405	10877
912.519	11022
912.633	11124
912.748	10953
912.862	10949
912.976	10752
913.09	10736
913.204	10710
913.318	10816
913.431	10835
913.545	10854
913.659	10847
913.772	10702
913.886	10710
914	10569
914.113	10771
914.226	10763
914.34	10767
914.453	10615
914.566	10786
914.68	10558
914.793	10615
914.906	10497
915.019	10428
915.132	10322
915.245	10352
915.358	10402
915.47	10398
915.583	10432
915.696	10413
915.809	10565
915.921	10516
916.034	10386
916.146	10443
916.259	10280
916.371	10424
916.483	10428
916.595	10303
916.708	10322
916.82	10356
916.932	10287
917.044	10314
917.156	10265
917.268	10223
917.38	10242
917.491	10227
917.603	10287
917.715	10409
917.826	10325
917.938	10310
918.049	10188
918.161	10284
918.272	10455
918.384	10413
918.495	10219
918.606	10112
918.717	10010
918.828	10097
918.939	10105
919.05	10109
919.161	10032
919.272	9926
919.383	9964
919.494	10219
919.604	10386
919.715	10124
919.826	10021
919.936	10086
920.047	10169
920.157	10109
920.267	10314
920.378	10242
920.488	10105
920.598	10371
920.708	10508
920.818	10303
920.928	10306
921.038	10466
921.148	10497
921.258	10204
921.368	10116
921.477	10010
921.587	9956
921.697	9880
921.806	10048
921.916	9857
922.025	9793
922.134	9679
922.244	9709
922.353	9679
922.462	9584
922.571	9523
922.68	9439
922.789	9386
922.898	9435
923.007	9405
923.116	9435
923.224	9397
923.333	9393
923.442	9249
923.55	9264
923.659	9317
923.767	9264
923.876	9214
923.984	9310
924.092	9218
924.201	9291
924.309	9245
924.417	9336
924.525	9169
924.633	9142
924.741	10105
924.849	9085
924.956	9218
925.064	8990
925.172	8986
925.279	8979
925.387	9058
925.494	9131
925.602	9154
925.709	9188
925.816	9001
925.924	9051
926.031	9150
926.138	9085
926.245	9051
926.352	8956
926.459	9112
926.566	9146
926.673	9070
926.779	8963
926.886	8902
926.993	8872
927.099	8739
927.206	8735
927.312	8701
927.419	8773
927.525	8739
927.631	8762
927.737	8712
927.843	8625
927.95	8610
928.056	8613
928.162	8655
928.267	8716
928.373	9321
928.479	8705
928.585	8488
928.69	8667
928.796	8727
928.901	8552
929.007	8469
929.112	8579
929.218	8541
929.323	8438
929.428	8518
929.533	8617
929.638	8431
929.743	8492
929.848	8476
929.953	8442
930.058	8370
930.163	8282
930.267	8267
930.372	8423
930.477	8233
930.581	8457
930.685	8305
930.79	8187
930.894	8229
930.998	8214
931.103	8286
931.207	8008
931.311	7974
931.415	7928
931.519	7670
931.623	7708
