Data from test_V78500241_1253.txt Node
Date: Fri Mar 25 14:42:26 CST 2022
User: usil
Spectrometer: V785-0024
Trigger mode: 0
Integration Time (sec): 4.000000E-1
Scans to average: 1
Nonlinearity correction enabled: false
Boxcar width: 0
Storing dark spectrum: false
XAxis mode: Wavelengths
Number of Pixels in Spectrum: 1024
>>>>>Begin Spectral Data<<<<<
801.071	22421
801.214	22268
801.356	22040
801.499	21922
801.641	21800
801.783	21778
801.926	21968
802.068	21633
802.211	21629
802.353	21534
802.496	21359
802.638	21313
802.78	21195
802.923	21180
803.065	21100
803.208	20998
803.35	21100
803.492	21237
803.635	21157
803.777	21100
803.919	21146
804.061	21447
804.204	21237
804.346	21017
804.488	21017
804.63	21058
804.773	20944
804.915	20975
805.057	21241
805.199	21047
805.341	21096
805.483	21116
805.626	21135
805.768	21039
805.91	20990
806.052	21077
806.194	20956
806.336	21100
806.478	21123
806.62	20921
806.762	21005
806.904	21188
807.046	21431
807.188	21351
807.33	21321
807.472	21424
807.614	21321
807.756	21340
807.898	21199
808.04	21085
808.182	21085
808.324	20986
808.465	21150
808.607	21386
808.749	21511
808.891	21576
809.033	21603
809.174	21637
809.316	21431
809.458	21557
809.6	21431
809.741	21561
809.883	21549
810.025	21618
810.166	21458
810.308	21561
810.45	21576
810.591	21500
810.733	21340
810.875	21211
811.016	21028
811.158	21165
811.299	21325
811.441	21340
811.582	21291
811.724	21146
811.865	21100
812.007	21291
812.148	21074
812.29	21188
812.431	21317
812.573	21515
812.714	21534
812.855	21732
812.997	21774
813.138	21892
813.279	21812
813.421	21583
813.562	21557
813.703	21481
813.845	21428
813.986	21081
814.127	20838
814.268	20872
814.41	20758
814.551	20792
814.692	20918
814.833	20693
814.974	20674
815.115	20697
815.256	20686
815.397	20617
815.539	20575
815.68	20473
815.821	20484
815.962	20651
816.103	20412
816.244	20282
816.385	20237
816.526	20240
816.666	20054
816.807	20001
816.948	19993
817.089	19982
817.23	19925
817.371	19864
817.512	19803
817.653	19902
817.793	19856
817.934	19940
818.075	19803
818.216	19947
818.356	19822
818.497	19662
818.638	19510
818.778	19510
818.919	19578
819.06	19499
819.2	19727
819.341	19742
819.481	19871
819.622	19890
819.762	20096
819.903	19974
820.043	19921
820.184	19894
820.324	19830
820.465	19902
820.605	19826
820.746	19928
820.886	19704
821.026	19784
821.167	19875
821.307	19906
821.447	19841
821.588	19670
821.728	19571
821.868	19411
822.008	19285
822.149	19255
822.289	19335
822.429	19046
822.569	19008
822.709	18867
822.849	18684
822.99	18779
823.13	18730
823.27	18711
823.41	18669
823.55	18585
823.69	18654
823.83	18601
823.97	18528
824.11	18357
824.25	18209
824.389	18330
824.529	18388
824.669	18281
824.809	18490
824.949	18456
825.089	18460
825.228	18410
825.368	18209
825.508	18167
825.648	18114
825.787	18201
825.927	18197
826.067	18163
826.206	18053
826.346	18190
826.485	18205
826.625	18163
826.765	18285
826.904	18121
827.044	17935
827.183	17908
827.323	17790
827.462	17946
827.601	17874
827.741	17710
827.88	17859
828.02	17775
828.159	17733
828.298	17901
828.437	17885
828.577	17798
828.716	18003
828.855	17752
828.994	17528
829.134	17634
829.273	17558
829.412	17589
829.551	17543
829.69	17558
829.829	17619
829.968	17767
830.107	17592
830.246	17687
830.385	17501
830.524	17497
830.663	17471
830.802	17242
830.941	17102
831.08	17155
831.219	17303
831.357	17231
831.496	17448
831.635	17277
831.774	17117
831.913	17094
832.051	17037
832.19	16934
832.329	17105
832.467	16930
832.606	16850
832.744	16896
832.883	16885
833.022	16809
833.16	17022
833.299	16976
833.437	16949
833.576	16919
833.714	17121
833.852	17083
833.991	17006
834.129	17060
834.267	17052
834.406	16942
834.544	16949
834.682	16900
834.821	16946
834.959	17212
835.097	16885
835.235	16968
835.373	17056
835.511	17014
835.65	16900
835.788	16896
835.926	16713
836.064	16645
836.202	16694
836.34	17037
836.478	16911
836.615	16786
836.753	16911
836.891	16987
837.029	16919
837.167	16790
837.305	16854
837.443	16847
837.58	16755
837.718	16885
837.856	16896
837.993	16755
838.131	16774
838.269	16607
838.406	16809
838.544	16694
838.681	16466
838.819	16424
838.956	16265
839.094	16211
839.231	16363
839.369	16497
839.506	16729
839.643	16561
839.781	16257
839.918	16386
840.055	16325
840.193	16322
840.33	16242
840.467	16325
840.604	16348
840.742	16527
840.879	16261
841.016	16268
841.153	16204
841.29	16421
841.427	16360
841.564	16417
841.701	16295
841.838	16268
841.975	16139
842.112	16280
842.249	16074
842.385	15991
842.522	16280
842.659	16051
842.796	16032
842.933	16067
843.069	16124
843.206	16071
843.343	16143
843.479	16162
843.616	16074
843.752	15808
843.889	15915
844.025	16044
844.162	15842
844.298	15876
844.435	15972
844.571	15804
844.708	15846
844.844	15972
844.98	16002
845.117	15964
845.253	15907
845.389	15770
845.525	15838
845.661	15823
845.798	15812
845.934	15911
846.07	15720
846.206	15838
846.342	15823
846.478	15732
846.614	15580
846.75	15408
846.886	15317
847.022	15523
847.158	15454
847.294	15458
847.429	15488
847.565	15408
847.701	15610
847.837	15131
847.972	15211
848.108	15169
848.244	15306
848.379	15001
848.515	15055
848.65	15051
848.786	14998
848.921	15024
849.057	15032
849.192	15214
849.328	15131
849.463	15154
849.598	15036
849.734	15070
849.869	14941
850.004	14796
850.14	14921
850.275	14857
850.41	14750
850.545	14773
850.68	14788
850.815	14792
850.95	14735
851.085	14899
851.22	14853
851.355	14830
851.49	14834
851.625	14655
851.76	14735
851.895	14682
852.03	14735
852.165	14769
852.299	14796
852.434	14967
852.569	14826
852.703	14834
852.838	14857
852.973	14902
853.107	14933
853.242	14804
853.376	14708
853.511	14522
853.645	14621
853.78	14686
853.914	14655
854.048	14708
854.183	14758
854.317	14674
854.451	14754
854.585	14674
854.72	14693
854.854	14682
854.988	14636
855.122	14670
855.256	14537
855.39	14545
855.524	14773
855.658	14708
855.792	14731
855.926	14670
856.06	14670
856.194	14743
856.327	14674
856.461	14632
856.595	14533
856.729	14621
856.862	14743
856.996	14701
857.13	14743
857.263	14834
857.397	14861
857.53	14587
857.664	14598
857.797	14731
857.931	14769
858.064	14716
858.197	14674
858.331	14674
858.464	14610
858.597	14602
858.731	14613
858.864	14678
858.997	14659
859.13	14655
859.263	14712
859.396	14754
859.529	14724
859.662	14530
859.795	14686
859.928	14693
860.061	14807
860.194	14941
860.327	14762
860.46	14705
860.592	14697
860.725	14781
860.858	14765
860.99	14606
861.123	14537
861.256	14587
861.388	14625
861.521	15363
861.653	14431
861.786	14476
861.918	14476
862.05	14602
862.183	14686
862.315	14625
862.447	14765
862.58	14587
862.712	14431
862.844	14389
862.976	14575
863.108	14446
863.24	14887
863.372	14343
863.504	14301
863.636	14427
863.768	14503
863.9	14499
864.032	14389
864.164	14393
864.296	14404
864.428	14568
864.559	14454
864.691	14522
864.823	14507
864.954	14541
865.086	14412
865.217	14419
865.349	14263
865.48	14358
865.612	14393
865.743	14545
865.875	14476
866.006	14442
866.137	14370
866.269	14427
866.4	14438
866.531	14461
866.662	14362
866.793	14256
866.924	14423
867.055	14362
867.186	14385
867.317	14446
867.448	14294
867.579	14377
867.71	14313
867.841	14294
867.972	14431
868.103	14480
868.233	14419
868.364	14423
868.495	14518
868.625	14659
868.756	14739
868.886	14556
869.017	14655
869.147	14663
869.278	14792
869.408	14655
869.539	14651
869.669	14800
869.799	14716
869.929	14834
870.06	14701
870.19	14963
870.32	15017
870.45	15009
870.58	15116
870.71	15264
870.84	15154
870.97	15089
871.1	15005
871.23	15264
871.36	15355
871.489	15100
871.619	15150
871.749	15180
871.879	15298
872.008	15408
872.138	15237
872.267	15291
872.397	15195
872.526	15036
872.656	15074
872.785	15131
872.915	15207
873.044	15279
873.173	15306
873.303	15180
873.432	15325
873.561	15351
873.69	15275
873.819	15245
873.948	15306
874.077	15317
874.206	15313
874.335	15233
874.464	15477
874.593	15599
874.722	15561
874.851	15587
874.979	15595
875.108	15785
875.237	15561
875.365	15526
875.494	15663
875.623	15686
875.751	15504
875.88	15698
876.008	15804
876.136	15797
876.265	16002
876.393	16181
876.521	16109
876.65	16059
876.778	16135
876.906	16021
877.034	15953
877.162	15998
877.29	15956
877.418	16002
877.546	16010
877.674	16040
877.802	16090
877.93	16051
878.058	16074
878.185	15854
878.313	16017
878.441	16063
878.568	15869
878.696	15987
878.824	15979
878.951	16025
879.079	16352
879.206	16394
879.333	16242
879.461	16109
879.588	16177
879.715	16249
879.842	16348
879.97	16139
880.097	15956
880.224	16021
880.351	16021
880.478	15770
880.605	16013
880.732	15968
880.859	16063
880.986	15915
881.112	15968
881.239	15694
881.366	15660
881.493	15606
881.619	15542
881.746	15595
881.872	15644
881.999	15568
882.125	15428
882.252	15629
882.378	15557
882.505	15713
882.631	15507
882.757	15420
882.883	15504
883.01	15424
883.136	15275
883.262	15230
883.388	15188
883.514	15359
883.64	15431
883.766	15249
883.892	15112
884.018	15252
884.143	15298
884.269	15405
884.395	15157
884.52	15081
884.646	14948
884.772	15024
884.897	14952
885.023	15055
885.148	15119
885.274	15291
885.399	15074
885.524	15070
885.65	15089
885.775	15089
885.9	15108
886.025	15138
886.15	15131
886.275	14944
886.4	14979
886.525	14941
886.65	15017
886.775	14952
886.9	15241
887.025	15283
887.149	14921
887.274	14899
887.399	14853
887.523	14918
887.648	14689
887.773	14716
887.897	14925
888.021	14906
888.146	14864
888.27	15001
888.395	14975
888.519	14849
888.643	14921
888.767	14910
888.891	14724
889.015	14678
889.139	14804
889.263	14556
889.387	14769
889.511	14986
889.635	14800
889.759	14727
889.883	14644
890.006	14823
890.13	14792
890.254	14682
890.377	14678
890.501	14579
890.624	14571
890.748	14648
890.871	14484
890.995	14336
891.118	14385
891.241	14473
891.364	14408
891.488	14518
891.611	14377
891.734	14480
891.857	14427
891.98	14469
892.103	14427
892.226	14438
892.349	14442
892.471	14138
892.594	14339
892.717	14457
892.839	14385
892.962	14362
893.085	14587
893.207	14431
893.33	14324
893.452	14362
893.575	14549
893.697	14438
893.819	14598
893.941	14606
894.064	14674
894.186	14442
894.308	14374
894.43	14488
894.552	14625
894.674	14492
894.796	14336
894.918	14446
895.04	14503
895.161	14594
895.283	14473
895.405	14465
895.526	14446
895.648	14602
895.769	14583
895.891	14613
896.012	14549
896.134	14697
896.255	14644
896.376	14476
896.498	14549
896.619	14598
896.74	14625
896.861	14655
896.982	14800
897.103	15097
897.224	14807
897.345	14800
897.466	14739
897.587	14868
897.708	14952
897.828	14826
897.949	14781
898.07	14670
898.19	14781
898.311	14941
898.431	14811
898.552	14895
898.672	15028
898.792	15013
898.913	14864
899.033	14929
899.153	14758
899.273	14663
899.393	14788
899.513	14819
899.633	14804
899.753	14823
899.873	14716
899.993	14754
900.113	14796
900.232	14796
900.352	14754
900.472	14651
900.591	14602
900.711	14731
900.83	14484
900.95	14651
901.069	14712
901.189	14560
901.308	14339
901.427	14195
901.546	14221
901.665	14290
901.784	14309
901.904	14107
902.023	14103
902.141	13940
902.26	13868
902.379	13906
902.498	13849
902.617	13898
902.735	13803
902.854	13822
902.973	13837
903.091	13533
903.21	13601
903.328	13567
903.446	13491
903.565	13422
903.683	13438
903.801	13293
903.919	13396
904.038	13381
904.156	13316
904.274	13331
904.392	13304
904.51	13198
904.627	13251
904.745	13293
904.863	13274
904.981	13084
905.098	13004
905.216	12920
905.334	13042
905.451	12947
905.569	12951
905.686	13000
905.803	12886
905.921	12768
906.038	12783
906.155	12798
906.272	12681
906.389	12722
906.506	12547
906.623	12642
906.74	12502
906.857	12323
906.974	12483
907.091	12536
907.208	12658
907.324	12597
907.441	12479
907.557	12292
907.674	12205
907.79	12209
907.907	12201
908.023	12308
908.139	12315
908.256	12247
908.372	12194
908.488	12129
908.604	11988
908.72	12057
908.836	12057
908.952	11954
909.068	12068
909.184	12068
909.3	11958
909.415	12125
909.531	12045
909.647	11843
909.762	11794
909.878	11786
909.993	11767
910.108	11745
910.224	11813
910.339	11707
910.454	11714
910.57	11592
910.685	11554
910.8	11817
910.915	11809
911.03	11634
911.145	11493
911.259	11528
911.374	11440
911.489	11478
911.604	11341
911.718	11261
911.833	11341
911.947	11083
912.062	10987
912.176	11128
912.291	11258
912.405	11204
912.519	11463
912.633	11478
912.748	11284
912.862	11223
912.976	11204
913.09	11010
913.204	10995
913.318	11056
913.431	11189
913.545	11189
913.659	11349
913.772	11117
913.886	11022
914	10976
914.113	11086
914.226	11208
914.34	11052
914.453	10965
914.566	11079
914.68	10946
914.793	10824
914.906	10687
915.019	10694
915.132	10645
915.245	10740
915.358	10774
915.47	10752
915.583	10847
915.696	10793
915.809	10877
915.921	10961
916.034	10763
916.146	10656
916.259	10725
916.371	10820
916.483	10729
916.595	10569
916.708	10683
916.82	10694
916.932	10698
917.044	10588
917.156	10588
917.268	10550
917.38	10618
917.491	10489
917.603	10485
917.715	10622
917.826	10717
917.938	10577
918.049	10371
918.161	10637
918.272	10660
918.384	10672
918.495	10523
918.606	10417
918.717	10379
918.828	10337
918.939	10451
919.05	10379
919.161	10348
919.272	10261
919.383	10265
919.494	10424
919.604	10649
919.715	10466
919.826	10363
919.936	10356
920.047	10432
920.157	10466
920.267	10660
920.378	10443
920.488	10466
920.598	10683
920.708	10767
920.818	10687
920.928	10573
921.038	10873
921.148	10755
921.258	10573
921.368	10318
921.477	10379
921.587	10280
921.697	10124
921.806	10299
921.916	10215
922.025	9979
922.134	9972
922.244	9895
922.353	9991
922.462	9793
922.571	9781
922.68	9698
922.789	9690
922.898	9705
923.007	9667
923.116	9671
923.224	9671
923.333	9709
923.442	9614
923.55	9572
923.659	9580
923.767	9629
923.876	9545
923.984	9660
924.092	9428
924.201	9496
924.309	9526
924.417	9599
924.525	9542
924.633	9511
924.741	10188
924.849	9336
924.956	9530
925.064	9268
925.172	9199
925.279	9253
925.387	9389
925.494	9340
925.602	9466
925.709	9443
925.816	9310
925.924	9363
926.031	9351
926.138	9291
926.245	9359
926.352	9226
926.459	9412
926.566	9382
926.673	9313
926.779	9207
926.886	9161
926.993	8971
927.099	9001
927.206	8975
927.312	8979
927.419	9032
927.525	9074
927.631	9051
927.737	8941
927.843	8910
927.95	8796
928.056	8872
928.162	8921
928.267	9005
928.373	9648
928.479	9013
928.585	8746
928.69	8925
928.796	8956
928.901	8887
929.007	8682
929.112	8834
929.218	8815
929.323	8769
929.428	8705
929.533	8864
929.638	8644
929.743	8705
929.848	8750
929.953	8716
930.058	8610
930.163	8465
930.267	8461
930.372	8617
930.477	8476
930.581	8716
930.685	8587
930.79	8343
930.894	8530
930.998	8457
931.103	8541
931.207	8210
931.311	8145
931.415	8115
931.519	7986
931.623	7909
