Data from test_V78500241_1740.txt Node
Date: Fri Mar 25 14:45:49 CST 2022
User: usil
Spectrometer: V785-0024
Trigger mode: 0
Integration Time (sec): 4.000000E-1
Scans to average: 1
Nonlinearity correction enabled: false
Boxcar width: 0
Storing dark spectrum: false
XAxis mode: Wavelengths
Number of Pixels in Spectrum: 1024
>>>>>Begin Spectral Data<<<<<
801.071	22268
801.214	22158
801.356	21880
801.499	21660
801.641	21568
801.783	21515
801.926	21629
802.068	21466
802.211	21557
802.353	21469
802.496	21237
802.638	21081
802.78	21058
802.923	21017
803.065	20788
803.208	20762
803.35	21001
803.492	21032
803.635	21135
803.777	20963
803.919	20990
804.061	21340
804.204	20952
804.346	20967
804.488	20849
804.63	20906
804.773	20788
804.915	20826
805.057	21051
805.199	20796
805.341	20971
805.483	20986
805.626	20876
805.768	20769
805.91	20861
806.052	20845
806.194	20743
806.336	20925
806.478	20777
806.62	20781
806.762	20849
806.904	21112
807.046	21214
807.188	21207
807.33	21214
807.472	21260
807.614	21047
807.756	21100
807.898	21001
808.04	20963
808.182	20979
808.324	21005
808.465	20960
808.607	21142
808.749	21302
808.891	21405
809.033	21431
809.174	21207
809.316	21188
809.458	21199
809.6	21283
809.741	21329
809.883	21260
810.025	21313
810.166	21374
810.308	21329
810.45	21378
810.591	21302
810.733	21085
810.875	21104
811.016	20921
811.158	20941
811.299	21051
811.441	21112
811.582	21157
811.724	21077
811.865	20979
812.007	20979
812.148	21024
812.29	21085
812.431	21211
812.573	21348
812.714	21435
812.855	21564
812.997	21564
813.138	21747
813.279	21652
813.421	21572
813.562	21378
813.703	21264
813.845	21199
813.986	20891
814.127	20640
814.268	20621
814.41	20507
814.551	20495
814.692	20667
814.833	20526
814.974	20575
815.115	20476
815.256	20282
815.397	20393
815.539	20381
815.68	20278
815.821	20172
815.962	20347
816.103	20142
816.244	20233
816.385	20119
816.526	20092
816.666	19818
816.807	19685
816.948	19879
817.089	19830
817.23	19719
817.371	19746
817.512	19674
817.653	19689
817.793	19647
817.934	19704
818.075	19651
818.216	19666
818.356	19662
818.497	19487
818.638	19373
818.778	19400
818.919	19415
819.06	19426
819.2	19434
819.341	19575
819.481	19586
819.622	19575
819.762	20050
819.903	19753
820.043	19765
820.184	19719
820.324	19734
820.465	19822
820.605	19639
820.746	19666
820.886	19552
821.026	19624
821.167	19563
821.307	19727
821.447	19715
821.588	19464
821.728	19320
821.868	19194
822.008	19103
822.149	19145
822.289	19012
822.429	18795
822.569	18787
822.709	18764
822.849	18566
822.99	18525
823.13	18536
823.27	18612
823.41	18395
823.55	18418
823.69	18437
823.83	18369
823.97	18273
824.11	18129
824.25	18098
824.389	18129
824.529	18270
824.669	18072
824.809	18262
824.949	18315
825.089	18178
825.228	18152
825.368	18060
825.508	17866
825.648	17969
825.787	17958
825.927	18038
826.067	17855
826.206	17870
826.346	17950
826.485	18007
826.625	17889
826.765	17992
826.904	18026
827.044	17699
827.183	17691
827.323	17528
827.462	17710
827.601	17573
827.741	17509
827.88	17619
828.02	17516
828.159	17570
828.298	17646
828.437	17668
828.577	17543
828.716	17832
828.855	17596
828.994	17459
829.134	17452
829.273	17444
829.412	17379
829.551	17185
829.69	17311
829.829	17444
829.968	17516
830.107	17429
830.246	17448
830.385	17277
830.524	17353
830.663	17269
830.802	17170
830.941	16999
831.08	16987
831.219	16946
831.357	17067
831.496	17307
831.635	16900
831.774	16858
831.913	16854
832.051	16740
832.19	16634
832.329	16790
832.467	16698
832.606	16615
832.744	16748
832.883	16771
833.022	16626
833.16	16653
833.299	16687
833.437	16660
833.576	16740
833.714	16702
833.852	16687
833.991	16793
834.129	16721
834.267	16862
834.406	16702
834.544	16691
834.682	16710
834.821	16649
834.959	16835
835.097	16588
835.235	16812
835.373	16782
835.511	16653
835.65	16622
835.788	16611
835.926	16478
836.064	16436
836.202	16466
836.34	16675
836.478	16771
836.615	16592
836.753	16645
836.891	16733
837.029	16694
837.167	16664
837.305	16615
837.443	16519
837.58	16405
837.718	16596
837.856	16542
837.993	16405
838.131	16535
838.269	16459
838.406	16440
838.544	16402
838.681	16268
838.819	16200
838.956	16021
839.094	16032
839.231	16185
839.369	16272
839.506	16371
839.643	16215
839.781	16059
839.918	15895
840.055	16169
840.193	16036
840.33	15987
840.467	16044
840.604	16029
840.742	16303
840.879	15842
841.016	15941
841.153	15884
841.29	16162
841.427	16109
841.564	16086
841.701	16021
841.838	16029
841.975	15964
842.112	15873
842.249	15994
842.385	15785
842.522	15968
842.659	15865
842.796	15739
842.933	15808
843.069	15812
843.206	15781
843.343	15907
843.479	15854
843.616	15804
843.752	15610
843.889	15652
844.025	15785
844.162	15603
844.298	15724
844.435	15751
844.571	15545
844.708	15648
844.844	15812
844.98	15827
845.117	15717
845.253	15469
845.389	15507
845.525	15580
845.661	15458
845.798	15473
845.934	15405
846.07	15382
846.206	15408
846.342	15568
846.478	15397
846.614	15237
846.75	15161
846.886	15150
847.022	15230
847.158	15173
847.294	15195
847.429	15154
847.565	15135
847.701	15367
847.837	14971
847.972	14861
848.108	15009
848.244	14963
848.379	14868
848.515	14762
848.65	14773
848.786	14796
848.921	14826
849.057	14883
849.192	14819
849.328	14746
849.463	14804
849.598	14682
849.734	14754
849.869	14697
850.004	14579
850.14	14629
850.275	14473
850.41	14537
850.545	14408
850.68	14541
850.815	14514
850.95	14537
851.085	14659
851.22	14670
851.355	14514
851.49	14594
851.625	14598
851.76	14533
851.895	14381
852.03	14408
852.165	14617
852.299	14560
852.434	14545
852.569	14518
852.703	14549
852.838	14621
852.973	14705
853.107	14670
853.242	14499
853.376	14423
853.511	14317
853.645	14339
853.78	14526
853.914	14377
854.048	14434
854.183	14351
854.317	14469
854.451	14503
854.585	14423
854.72	14343
854.854	14469
854.988	14263
855.122	14389
855.256	14191
855.39	14454
855.524	14503
855.658	14438
855.792	14351
855.926	14457
856.06	14564
856.194	14602
856.327	14381
856.461	14256
856.595	14320
856.729	14412
856.862	14484
856.996	14328
857.13	14480
857.263	14564
857.397	14511
857.53	14370
857.664	14484
857.797	14427
857.931	14423
858.064	14488
858.197	14602
858.331	14415
858.464	14328
858.597	14298
858.731	14530
858.864	14431
858.997	14347
859.13	14358
859.263	14393
859.396	14434
859.529	14381
859.662	14415
859.795	14347
859.928	14431
860.061	14530
860.194	14545
860.327	14393
860.46	14358
860.592	14492
860.725	14564
860.858	14511
860.99	14446
861.123	14351
861.256	14404
861.388	14374
861.521	15116
861.653	14206
861.786	14233
861.918	14233
862.05	14377
862.183	14336
862.315	14412
862.447	14377
862.58	14381
862.712	14134
862.844	14149
862.976	14278
863.108	14233
863.24	14511
863.372	14153
863.504	14183
863.636	14161
863.768	14328
863.9	14180
864.032	14126
864.164	14164
864.296	14119
864.428	14351
864.559	14286
864.691	14210
864.823	14199
864.954	14229
865.086	14172
865.217	14096
865.349	14195
865.48	14187
865.612	14206
865.743	14320
865.875	14176
866.006	14161
866.137	14130
866.269	14119
866.4	14275
866.531	14142
866.662	14180
866.793	14111
866.924	14031
867.055	14199
867.186	14119
867.317	14149
867.448	14084
867.579	14050
867.71	14103
867.841	14149
867.972	14149
868.103	14195
868.233	14168
868.364	14111
868.495	14244
868.625	14332
868.756	14476
868.886	14393
869.017	14343
869.147	14503
869.278	14556
869.408	14393
869.539	14396
869.669	14454
869.799	14389
869.929	14488
870.06	14480
870.19	14689
870.32	14682
870.45	14762
870.58	14918
870.71	14963
870.84	14872
870.97	14769
871.1	14925
871.23	14944
871.36	15108
871.489	14876
871.619	15051
871.749	15017
871.879	15020
872.008	15089
872.138	15123
872.267	15074
872.397	14914
872.526	14872
872.656	14785
872.785	14773
872.915	15081
873.044	15176
873.173	15089
873.303	15150
873.432	15165
873.561	15074
873.69	15013
873.819	15104
873.948	15161
874.077	15066
874.206	15020
874.335	15123
874.464	15218
874.593	15344
874.722	15260
874.851	15321
874.979	15370
875.108	15447
875.237	15374
875.365	15306
875.494	15401
875.623	15424
875.751	15325
875.88	15466
876.008	15576
876.136	15580
876.265	15793
876.393	15979
876.521	15930
876.65	15899
876.778	15732
876.906	15861
877.034	15747
877.162	15705
877.29	15743
877.418	15903
877.546	15797
877.674	15713
877.802	15819
877.93	15800
878.058	15720
878.185	15759
878.313	15728
878.441	15812
878.568	15606
878.696	15755
878.824	15797
878.951	15857
879.079	15991
879.206	16188
879.333	15994
879.461	15827
879.588	15941
879.715	15926
879.842	16139
879.97	15816
880.097	15660
880.224	15591
880.351	15694
880.478	15713
880.605	15610
880.732	15599
880.859	15831
880.986	15625
881.112	15660
881.239	15473
881.366	15355
881.493	15363
881.619	15256
881.746	15310
881.872	15268
881.999	15199
882.125	15325
882.252	15370
882.378	15279
882.505	15439
882.631	15230
882.757	15150
882.883	15157
883.01	15032
883.136	14960
883.262	14982
883.388	14880
883.514	15150
883.64	15123
883.766	15017
883.892	14971
884.018	14937
884.143	15100
884.269	15085
884.395	14891
884.52	14731
884.646	14777
884.772	14739
884.897	14663
885.023	14777
885.148	14941
885.274	14944
885.399	14815
885.524	14853
885.65	14773
885.775	14925
885.9	14754
886.025	15020
886.15	14834
886.275	14746
886.4	14739
886.525	14701
886.65	14731
886.775	14735
886.9	14777
887.025	15024
887.149	14838
887.274	14670
887.399	14613
887.523	14632
887.648	14583
887.773	14552
887.897	14724
888.021	14667
888.146	14560
888.27	14750
888.395	14739
888.519	14743
888.643	14716
888.767	14708
888.891	14560
889.015	14480
889.139	14522
889.263	14476
889.387	14568
889.511	14651
889.635	14564
889.759	14507
889.883	14385
890.006	14495
890.13	14610
890.254	14469
890.377	14393
890.501	14191
890.624	14278
890.748	14355
890.871	14180
890.995	14206
891.118	14111
891.241	14225
891.364	14157
891.488	14313
891.611	14199
891.734	14237
891.857	14225
891.98	14237
892.103	14195
892.226	14183
892.349	14191
892.471	14126
892.594	14248
892.717	14164
892.839	14206
892.962	14275
893.085	14263
893.207	14187
893.33	13986
893.452	14187
893.575	14263
893.697	14183
893.819	14377
893.941	14465
894.064	14290
894.186	14176
894.308	14168
894.43	14450
894.552	14412
894.674	14263
894.796	14221
894.918	14248
895.04	14210
895.161	14301
895.283	14385
895.405	14305
895.526	14389
895.648	14336
895.769	14301
895.891	14446
896.012	14339
896.134	14438
896.255	14328
896.376	14377
896.498	14320
896.619	14408
896.74	14332
896.861	14415
896.982	14731
897.103	14842
897.224	14735
897.345	14648
897.466	14549
897.587	14610
897.708	14701
897.828	14617
897.949	14568
898.07	14484
898.19	14625
898.311	14788
898.431	14678
898.552	14644
898.672	14830
898.792	14838
898.913	14724
899.033	14636
899.153	14564
899.273	14507
899.393	14530
899.513	14598
899.633	14511
899.753	14651
899.873	14556
899.993	14625
900.113	14579
900.232	14590
900.352	14514
900.472	14503
900.591	14404
900.711	14488
900.83	14278
900.95	14503
901.069	14530
901.189	14389
901.308	14161
901.427	14058
901.546	14145
901.665	14180
901.784	14142
901.904	13963
902.023	13940
902.141	13708
902.26	13601
902.379	13727
902.498	13658
902.617	13655
902.735	13757
902.854	13677
902.973	13540
903.091	13400
903.21	13426
903.328	13426
903.446	13282
903.565	13209
903.683	13289
903.801	13118
903.919	13228
904.038	13251
904.156	13034
904.274	13126
904.392	13008
904.51	13034
904.627	13050
904.745	13110
904.863	13103
904.981	12859
905.098	12817
905.216	12734
905.334	12753
905.451	12810
905.569	12696
905.686	12692
905.803	12722
905.921	12627
906.038	12821
906.155	12585
906.272	12471
906.389	12483
906.506	12334
906.623	12361
906.74	12247
906.857	12228
906.974	12216
907.091	12319
907.208	12506
907.324	12327
907.441	12258
907.557	12106
907.674	12068
907.79	11980
907.907	12121
908.023	12110
908.139	12106
908.256	12133
908.372	11939
908.488	11973
908.604	11764
908.72	11783
908.836	11855
908.952	11794
909.068	11851
909.184	11859
909.3	11798
909.415	11973
909.531	11748
909.647	11710
909.762	11592
909.878	11646
909.993	11630
910.108	11668
910.224	11577
910.339	11691
910.454	11551
910.57	11459
910.685	11372
910.8	11680
910.915	11710
911.03	11467
911.145	11345
911.259	11326
911.374	11391
911.489	11231
911.604	11204
911.718	11071
911.833	11018
911.947	10980
912.062	10953
912.176	11117
912.291	11079
912.405	11079
912.519	11185
912.633	11292
912.748	11045
912.862	10965
912.976	10847
913.09	10850
913.204	10915
913.318	10930
913.431	11094
913.545	11094
913.659	11067
913.772	10949
913.886	10961
914	10790
914.113	10908
914.226	11003
914.34	10892
914.453	10748
914.566	10904
914.68	10721
914.793	10664
914.906	10660
915.019	10493
915.132	10459
915.245	10546
915.358	10500
915.47	10580
915.583	10474
915.696	10622
915.809	10675
915.921	10687
916.034	10588
916.146	10504
916.259	10466
916.371	10554
916.483	10637
916.595	10516
916.708	10527
916.82	10455
916.932	10455
917.044	10500
917.156	10470
917.268	10333
917.38	10352
917.491	10371
917.603	10481
917.715	10527
917.826	10402
917.938	10394
918.049	10352
918.161	10402
918.272	10554
918.384	10497
918.495	10409
918.606	10268
918.717	10200
918.828	10348
918.939	10310
919.05	10112
919.161	10299
919.272	10097
919.383	10147
919.494	10375
919.604	10493
919.715	10318
919.826	10143
919.936	10272
920.047	10424
920.157	10333
920.267	10516
920.378	10329
920.488	10303
920.598	10546
920.708	10577
920.818	10451
920.928	10519
921.038	10683
921.148	10634
921.258	10405
921.368	10200
921.477	10158
921.587	10120
921.697	10021
921.806	10097
921.916	10032
922.025	9857
922.134	9770
922.244	9838
922.353	9922
922.462	9701
922.571	9720
922.68	9568
922.789	9530
922.898	9553
923.007	9519
923.116	9622
923.224	9458
923.333	9462
923.442	9435
923.55	9374
923.659	9397
923.767	9443
923.876	9424
923.984	9458
924.092	9386
924.201	9378
924.309	9397
924.417	9420
924.525	9340
924.633	9340
924.741	10200
924.849	9146
924.956	9351
925.064	9157
925.172	9150
925.279	9093
925.387	9237
925.494	9188
925.602	9294
925.709	9294
925.816	9108
925.924	9253
926.031	9268
926.138	9218
926.245	9226
926.352	9123
926.459	9264
926.566	9260
926.673	9112
926.779	9077
926.886	9001
926.993	9020
927.099	8899
927.206	8864
927.312	8864
927.419	8944
927.525	8887
927.631	8921
927.737	8895
927.843	8705
927.95	8678
928.056	8845
928.162	8773
928.267	8883
928.373	9454
928.479	8823
928.585	8625
928.69	8743
928.796	8777
928.901	8746
929.007	8522
929.112	8693
929.218	8693
929.323	8583
929.428	8579
929.533	8773
929.638	8537
929.743	8640
929.848	8689
929.953	8556
930.058	8495
930.163	8396
930.267	8343
930.372	8526
930.477	8374
930.581	8606
930.685	8412
930.79	8343
930.894	8400
930.998	8355
931.103	8465
931.207	8130
931.311	8046
931.415	7959
931.519	7822
931.623	7856
