Data from test_V78500241_3357.txt Node
Date: Fri Mar 25 14:57:05 CST 2022
User: usil
Spectrometer: V785-0024
Trigger mode: 0
Integration Time (sec): 4.000000E-1
Scans to average: 1
Nonlinearity correction enabled: false
Boxcar width: 0
Storing dark spectrum: false
XAxis mode: Wavelengths
Number of Pixels in Spectrum: 1024
>>>>>Begin Spectral Data<<<<<
801.071	22032
801.214	21846
801.356	21614
801.499	21507
801.641	21382
801.783	21359
801.926	21340
802.068	21291
802.211	21180
802.353	21085
802.496	20872
802.638	20788
802.78	20944
802.923	20606
803.065	20503
803.208	20537
803.35	20674
803.492	20796
803.635	20849
803.777	20682
803.919	20708
804.061	21093
804.204	20781
804.346	20549
804.488	20606
804.63	20629
804.773	20556
804.915	20552
805.057	20651
805.199	20571
805.341	20720
805.483	20746
805.626	20575
805.768	20526
805.91	20674
806.052	20636
806.194	20476
806.336	20674
806.478	20511
806.62	20514
806.762	20583
806.904	20785
807.046	20952
807.188	20952
807.33	20815
807.472	20906
807.614	20781
807.756	20762
807.898	20663
808.04	20575
808.182	20674
808.324	20594
808.465	20587
808.607	20807
808.749	20952
808.891	20937
809.033	21135
809.174	20857
809.316	20914
809.458	20758
809.6	20811
809.741	20910
809.883	20960
810.025	20990
810.166	20975
810.308	21096
810.45	20925
810.591	20948
810.733	20800
810.875	20773
811.016	20609
811.158	20514
811.299	20629
811.441	20777
811.582	20830
811.724	20777
811.865	20583
812.007	20590
812.148	20564
812.29	20575
812.431	20845
812.573	20925
812.714	20895
812.855	21150
812.997	21298
813.138	21393
813.279	21188
813.421	21154
813.562	21062
813.703	20785
813.845	20804
813.986	20511
814.127	20381
814.268	20305
814.41	20202
814.551	20248
814.692	20374
814.833	20210
814.974	20058
815.115	20195
815.256	19963
815.397	20088
815.539	20058
815.68	19932
815.821	19947
815.962	20031
816.103	19951
816.244	19856
816.385	19693
816.526	19514
816.666	19453
816.807	19293
816.948	19426
817.089	19411
817.23	19350
817.371	19476
817.512	19225
817.653	19320
817.793	19228
817.934	19308
818.075	19194
818.216	19244
818.356	19293
818.497	19198
818.638	18985
818.778	19057
818.919	19095
819.06	19095
819.2	19175
819.341	19255
819.481	19168
819.622	19350
819.762	19594
819.903	19487
820.043	19346
820.184	19320
820.324	19301
820.465	19225
820.605	19350
820.746	19327
820.886	19171
821.026	19244
821.167	19297
821.307	19289
821.447	19282
821.588	19091
821.728	19038
821.868	18901
822.008	18646
822.149	18795
822.289	18753
822.429	18456
822.569	18380
822.709	18357
822.849	18140
822.99	18232
823.13	18148
823.27	18220
823.41	18159
823.55	17843
823.69	18049
823.83	18064
823.97	17954
824.11	17836
824.25	17866
824.389	17863
824.529	17908
824.669	17661
824.809	17821
824.949	17961
825.089	17908
825.228	17794
825.368	17646
825.508	17634
825.648	17509
825.787	17615
825.927	17596
826.067	17551
826.206	17535
826.346	17589
826.485	17634
826.625	17619
826.765	17592
826.904	17516
827.044	17379
827.183	17288
827.323	17349
827.462	17326
827.601	17322
827.741	17212
827.88	17315
828.02	17075
828.159	17284
828.298	17250
828.437	17284
828.577	17242
828.716	17402
828.855	17292
828.994	17075
829.134	16946
829.273	17056
829.412	17117
829.551	16984
829.69	17045
829.829	16953
829.968	17022
830.107	17162
830.246	16995
830.385	17018
830.524	16972
830.663	16759
830.802	16755
830.941	16691
831.08	16584
831.219	16710
831.357	16713
831.496	16824
831.635	16679
831.774	16565
831.913	16481
832.051	16390
832.19	16474
832.329	16504
832.467	16382
832.606	16333
832.744	16352
832.883	16432
833.022	16428
833.16	16371
833.299	16424
833.437	16432
833.576	16280
833.714	16440
833.852	16367
833.991	16386
834.129	16478
834.267	16481
834.406	16310
834.544	16455
834.682	16382
834.821	16371
834.959	16546
835.097	16375
835.235	16527
835.373	16337
835.511	16413
835.65	16337
835.788	16386
835.926	16200
836.064	16101
836.202	16276
836.34	16280
836.478	16356
836.615	16268
836.753	16329
836.891	16417
837.029	16322
837.167	16268
837.305	16169
837.443	16337
837.58	16116
837.718	16318
837.856	16188
837.993	16169
838.131	16154
838.269	16223
838.406	16249
838.544	16044
838.681	15972
838.819	16013
838.956	15797
839.094	15759
839.231	15759
839.369	15930
839.506	16120
839.643	15979
839.781	15766
839.918	15698
840.055	15789
840.193	15709
840.33	15736
840.467	15823
840.604	15778
840.742	16021
840.879	15751
841.016	15720
841.153	15736
841.29	15850
841.427	15804
841.564	15732
841.701	15949
841.838	15648
841.975	15717
842.112	15785
842.249	15447
842.385	15584
842.522	15679
842.659	15542
842.796	15538
842.933	15511
843.069	15603
843.206	15454
843.343	15568
843.479	15523
843.616	15637
843.752	15298
843.889	15359
844.025	15473
844.162	15359
844.298	15348
844.435	15241
844.571	15310
844.708	15378
844.844	15507
844.98	15454
845.117	15454
845.253	15264
845.389	15165
845.525	15260
845.661	15161
845.798	15119
845.934	15146
846.07	15100
846.206	15131
846.342	15348
846.478	15112
846.614	14914
846.75	14891
846.886	14849
847.022	15116
847.158	14998
847.294	14952
847.429	14925
847.565	14792
847.701	15199
847.837	14610
847.972	14552
848.108	14689
848.244	14701
848.379	14568
848.515	14412
848.65	14530
848.786	14454
848.921	14427
849.057	14598
849.192	14670
849.328	14537
849.463	14518
849.598	14408
849.734	14465
849.869	14465
850.004	14278
850.14	14328
850.275	14233
850.41	14126
850.545	14206
850.68	14225
850.815	14366
850.95	14229
851.085	14404
851.22	14336
851.355	14199
851.49	14301
851.625	14244
851.76	14115
851.895	14157
852.03	14130
852.165	14225
852.299	14309
852.434	14419
852.569	14256
852.703	14237
852.838	14298
852.973	14450
853.107	14393
853.242	14267
853.376	14115
853.511	14035
853.645	14126
853.78	14278
853.914	14195
854.048	14164
854.183	14115
854.317	14301
854.451	14305
854.585	14134
854.72	14142
854.854	14168
854.988	14073
855.122	14157
855.256	14035
855.39	14115
855.524	14142
855.658	14286
855.792	14138
855.926	14130
856.06	14233
856.194	14248
856.327	14073
856.461	14092
856.595	14062
856.729	14065
856.862	14305
856.996	14119
857.13	14164
857.263	14199
857.397	14199
857.53	14077
857.664	14153
857.797	14252
857.931	14317
858.064	14206
858.197	14286
858.331	14290
858.464	14077
858.597	14027
858.731	14073
858.864	14115
858.997	14206
859.13	14248
859.263	14286
859.396	14210
859.529	14054
859.662	14103
859.795	14073
859.928	14130
860.061	14396
860.194	14244
860.327	14134
860.46	14142
860.592	14248
860.725	14404
860.858	14313
860.99	14115
861.123	14039
861.256	14039
861.388	14142
861.521	14864
861.653	14062
861.786	13887
861.918	14069
862.05	14024
862.183	14115
862.315	14130
862.447	14138
862.58	14107
862.712	13822
862.844	13982
862.976	13963
863.108	13989
863.24	14393
863.372	13849
863.504	13947
863.636	13978
863.768	13936
863.9	13875
864.032	13868
864.164	13917
864.296	13917
864.428	14153
864.559	14012
864.691	13989
864.823	13970
864.954	14005
865.086	14001
865.217	13902
865.349	13947
865.48	13909
865.612	13959
865.743	13947
865.875	13906
866.006	13795
866.137	13909
866.269	13936
866.4	13856
866.531	13902
866.662	13791
866.793	13833
866.924	13898
867.055	13936
867.186	13890
867.317	13909
867.448	13772
867.579	13765
867.71	13841
867.841	13841
867.972	13936
868.103	14050
868.233	13913
868.364	13925
868.495	14069
868.625	14164
868.756	14229
868.886	14073
869.017	14119
869.147	14218
869.278	14309
869.408	14199
869.539	14164
869.669	14195
869.799	14206
869.929	14263
870.06	14233
870.19	14480
870.32	14381
870.45	14552
870.58	14537
870.71	14701
870.84	14689
870.97	14560
871.1	14610
871.23	14705
871.36	14781
871.489	14720
871.619	14746
871.749	14765
871.879	14792
872.008	14826
872.138	14819
872.267	14765
872.397	14670
872.526	14514
872.656	14587
872.785	14701
872.915	14845
873.044	14914
873.173	14792
873.303	14902
873.432	14864
873.561	14956
873.69	14807
873.819	14731
873.948	14895
874.077	14849
874.206	14868
874.335	14872
874.464	14868
874.593	15043
874.722	15005
874.851	15123
874.979	15127
875.108	15249
875.237	15001
875.365	14994
875.494	15146
875.623	15188
875.751	15104
875.88	15241
876.008	15283
876.136	15393
876.265	15587
876.393	15728
876.521	15644
876.65	15633
876.778	15614
876.906	15530
877.034	15477
877.162	15553
877.29	15523
877.418	15530
877.546	15511
877.674	15580
877.802	15557
877.93	15625
878.058	15538
878.185	15526
878.313	15534
878.441	15564
878.568	15496
878.696	15473
878.824	15614
878.951	15610
879.079	15713
879.206	15766
879.333	15743
879.461	15545
879.588	15698
879.715	15728
879.842	15823
879.97	15572
880.097	15302
880.224	15393
880.351	15405
880.478	15454
880.605	15481
880.732	15435
880.859	15587
880.986	15481
881.112	15393
881.239	15192
881.366	15169
881.493	15089
881.619	15028
881.746	15169
881.872	15024
881.999	15047
882.125	15001
882.252	15127
882.378	15036
882.505	15230
882.631	15005
882.757	14849
882.883	14902
883.01	14883
883.136	14823
883.262	14678
883.388	14769
883.514	15017
883.64	14807
883.766	14800
883.892	14636
884.018	14689
884.143	14781
884.269	14880
884.395	14644
884.52	14495
884.646	14644
884.772	14492
884.897	14484
885.023	14621
885.148	14693
885.274	14731
885.399	14712
885.524	14583
885.65	14648
885.775	14590
885.9	14545
886.025	14674
886.15	14674
886.275	14564
886.4	14454
886.525	14495
886.65	14461
886.775	14530
886.9	14739
887.025	14815
887.149	14533
887.274	14377
887.399	14400
887.523	14351
887.648	14259
887.773	14252
887.897	14507
888.021	14583
888.146	14377
888.27	14434
888.395	14629
888.519	14480
888.643	14484
888.767	14454
888.891	14381
889.015	14347
889.139	14415
889.263	14240
889.387	14374
889.511	14438
889.635	14366
889.759	14214
889.883	14271
890.006	14343
890.13	14343
890.254	14229
890.377	14244
890.501	14130
890.624	14084
890.748	14164
890.871	14062
890.995	13997
891.118	13913
891.241	14005
891.364	13940
891.488	14096
891.611	13993
891.734	14016
891.857	14054
891.98	14039
892.103	14001
892.226	14016
892.349	14046
892.471	13852
892.594	13967
892.717	13993
892.839	14005
892.962	13959
893.085	14001
893.207	13936
893.33	13917
893.452	13917
893.575	14027
893.697	14046
893.819	14214
893.941	14294
894.064	14153
894.186	14020
894.308	13967
894.43	14149
894.552	14191
894.674	14183
894.796	13906
894.918	14092
895.04	14012
895.161	14130
895.283	14111
895.405	14005
895.526	14088
895.648	14123
895.769	14073
895.891	14092
896.012	14161
896.134	14164
896.255	14123
896.376	14054
896.498	14077
896.619	14172
896.74	14199
896.861	14244
896.982	14560
897.103	14644
897.224	14480
897.345	14442
897.466	14423
897.587	14511
897.708	14564
897.828	14480
897.949	14400
898.07	14305
898.19	14358
898.311	14552
898.431	14476
898.552	14541
898.672	14606
898.792	14682
898.913	14507
899.033	14469
899.153	14309
899.273	14290
899.393	14351
899.513	14347
899.633	14366
899.753	14328
899.873	14343
899.993	14377
900.113	14256
900.232	14320
900.352	14256
900.472	14202
900.591	14229
900.711	14183
900.83	14180
900.95	14229
901.069	14347
901.189	14195
901.308	13906
901.427	13830
901.546	13856
901.665	13928
901.784	13902
901.904	13772
902.023	13685
902.141	13552
902.26	13510
902.379	13575
902.498	13400
902.617	13369
902.735	13457
902.854	13453
902.973	13354
903.091	13190
903.21	13164
903.328	13152
903.446	13065
903.565	13069
903.683	13038
903.801	12875
903.919	12958
904.038	13065
904.156	12802
904.274	12863
904.392	12833
904.51	12753
904.627	12916
904.745	12875
904.863	12909
904.981	12627
905.098	12506
905.216	12665
905.334	12627
905.451	12525
905.569	12547
905.686	12570
905.803	12517
905.921	12350
906.038	12422
906.155	12391
906.272	12289
906.389	12285
906.506	12129
906.623	12152
906.74	12159
906.857	12087
906.974	12057
907.091	12243
907.208	12277
907.324	12171
907.441	12098
907.557	11889
907.674	11904
907.79	11859
907.907	11836
908.023	11912
908.139	11939
908.256	11847
908.372	11813
908.488	11790
908.604	11703
908.72	11505
908.836	11611
908.952	11649
909.068	11653
909.184	11729
909.3	11566
909.415	11718
909.531	11665
909.647	11448
909.762	11421
909.878	11326
909.993	11402
910.108	11474
910.224	11410
910.339	11414
910.454	11334
910.57	11280
910.685	11242
910.8	11497
910.915	11440
911.03	11322
911.145	11151
911.259	11178
911.374	11201
911.489	11086
911.604	10980
911.718	10892
911.833	10881
911.947	10869
912.062	10736
912.176	10877
912.291	10847
912.405	10911
912.519	11045
912.633	11006
912.748	11018
912.862	10908
912.976	10774
913.09	10622
913.204	10752
913.318	10786
913.431	10835
913.545	10790
913.659	10869
913.772	10801
913.886	10626
914	10634
914.113	10786
914.226	10820
914.34	10778
914.453	10512
914.566	10675
914.68	10512
914.793	10558
914.906	10405
915.019	10322
915.132	10280
915.245	10382
915.358	10405
915.47	10432
915.583	10424
915.696	10489
915.809	10516
915.921	10542
916.034	10382
916.146	10379
916.259	10295
916.371	10337
916.483	10402
916.595	10318
916.708	10310
916.82	10352
916.932	10348
917.044	10360
917.156	10223
917.268	10219
917.38	10215
917.491	10158
917.603	10299
917.715	10249
917.826	10348
917.938	10215
918.049	10139
918.161	10234
918.272	10291
918.384	10337
918.495	10265
918.606	10192
918.717	9968
918.828	10192
918.939	10211
919.05	10051
919.161	10059
919.272	9873
919.383	9960
919.494	10166
919.604	10344
919.715	10044
919.826	10063
919.936	10120
920.047	10249
920.157	10147
920.267	10295
920.378	10196
920.488	10196
920.598	10322
920.708	10519
920.818	10299
920.928	10360
921.038	10485
921.148	10394
921.258	10223
921.368	10101
921.477	10044
921.587	9949
921.697	9926
921.806	10006
921.916	9861
922.025	9724
922.134	9701
922.244	9641
922.353	9648
922.462	9561
922.571	9564
922.68	9420
922.789	9378
922.898	9454
923.007	9420
923.116	9443
923.224	9408
923.333	9370
923.442	9298
923.55	9218
923.659	9310
923.767	9382
923.876	9203
923.984	9268
924.092	9192
924.201	9340
924.309	9283
924.417	9310
924.525	9188
924.633	9214
924.741	10162
924.849	9062
924.956	9180
925.064	9116
925.172	9028
925.279	9020
925.387	9036
925.494	9047
925.602	9142
925.709	9119
925.816	8941
925.924	9062
926.031	9116
926.138	9066
926.245	9032
926.352	8921
926.459	9089
926.566	9249
926.673	8990
926.779	8948
926.886	8872
926.993	8746
927.099	8754
927.206	8674
927.312	8670
927.419	8769
927.525	8739
927.631	8800
927.737	8716
927.843	8640
927.95	8518
928.056	8602
928.162	8663
928.267	8743
928.373	9363
928.479	8708
928.585	8499
928.69	8613
928.796	8613
928.901	8587
929.007	8450
929.112	8568
929.218	8549
929.323	8480
929.428	8400
929.533	8533
929.638	8400
929.743	8492
929.848	8594
929.953	8518
930.058	8408
930.163	8256
930.267	8195
930.372	8381
930.477	8221
930.581	8507
930.685	8313
930.79	8199
930.894	8202
930.998	8180
931.103	8366
931.207	8020
931.311	7875
931.415	7940
931.519	7708
931.623	7731
