Data from test_V78500241_3456.txt Node
Date: Fri Mar 25 14:57:46 CST 2022
User: usil
Spectrometer: V785-0024
Trigger mode: 0
Integration Time (sec): 4.000000E-1
Scans to average: 1
Nonlinearity correction enabled: false
Boxcar width: 0
Storing dark spectrum: false
XAxis mode: Wavelengths
Number of Pixels in Spectrum: 1024
>>>>>Begin Spectral Data<<<<<
801.071	21987
801.214	21903
801.356	21458
801.499	21530
801.641	21306
801.783	21184
801.926	21329
802.068	21272
802.211	21218
802.353	20971
802.496	20823
802.638	20781
802.78	20746
802.923	20670
803.065	20564
803.208	20701
803.35	20492
803.492	20682
803.635	20750
803.777	20530
803.919	20670
804.061	20956
804.204	20743
804.346	20533
804.488	20400
804.63	20526
804.773	20545
804.915	20552
805.057	20659
805.199	20476
805.341	20617
805.483	20609
805.626	20632
805.768	20499
805.91	20549
806.052	20552
806.194	20442
806.336	20765
806.478	20442
806.62	20415
806.762	20621
806.904	20731
807.046	20994
807.188	20880
807.33	20796
807.472	20944
807.614	20724
807.756	20781
807.898	20556
808.04	20571
808.182	20469
808.324	20625
808.465	20583
808.607	20758
808.749	20823
808.891	20986
809.033	21112
809.174	20933
809.316	20842
809.458	20952
809.6	20769
809.741	20929
809.883	20853
810.025	21028
810.166	21070
810.308	20880
810.45	20842
810.591	20891
810.733	20708
810.875	20785
811.016	20537
811.158	20552
811.299	20716
811.441	20636
811.582	20750
811.724	20552
811.865	20678
812.007	20701
812.148	20514
812.29	20701
812.431	20686
812.573	20910
812.714	21036
812.855	21123
812.997	21157
813.138	21340
813.279	21367
813.421	21005
813.562	21036
813.703	20857
813.845	20830
813.986	20579
814.127	20370
814.268	20157
814.41	20244
814.551	20142
814.692	20164
814.833	20031
814.974	20153
815.115	20161
815.256	20008
815.397	19986
815.539	19970
815.68	19909
815.821	19887
815.962	19902
816.103	19947
816.244	19620
816.385	19674
816.526	19521
816.666	19460
816.807	19183
816.948	19502
817.089	19392
817.23	19327
817.371	19434
817.512	19289
817.653	19126
817.793	19148
817.934	19263
818.075	19293
818.216	19346
818.356	19213
818.497	19118
818.638	18993
818.778	18875
818.919	19015
819.06	18985
819.2	19095
819.341	19236
819.481	19221
819.622	19407
819.762	19499
819.903	19434
820.043	19308
820.184	19377
820.324	19240
820.465	19293
820.605	19297
820.746	19251
820.886	19175
821.026	19274
821.167	19301
821.307	19346
821.447	19137
821.588	19251
821.728	18932
821.868	18814
822.008	18646
822.149	18498
822.289	18574
822.429	18456
822.569	18361
822.709	18346
822.849	18125
822.99	18220
823.13	18205
823.27	18038
823.41	18022
823.55	18045
823.69	17965
823.83	18140
823.97	17863
824.11	17737
824.25	17756
824.389	17843
824.529	17840
824.669	17672
824.809	17783
824.949	17954
825.089	17707
825.228	17676
825.368	17577
825.508	17478
825.648	17535
825.787	17573
825.927	17501
826.067	17558
826.206	17512
826.346	17600
826.485	17486
826.625	17474
826.765	17684
826.904	17581
827.044	17421
827.183	17315
827.323	17132
827.462	17341
827.601	17292
827.741	17178
827.88	17208
828.02	17162
828.159	17208
828.298	17258
828.437	17185
828.577	17197
828.716	17326
828.855	17216
828.994	17003
829.134	16980
829.273	17045
829.412	16877
829.551	16957
829.69	16923
829.829	16976
829.968	17014
830.107	17018
830.246	17075
830.385	16957
830.524	16889
830.663	16858
830.802	16660
830.941	16664
831.08	16637
831.219	16721
831.357	16759
831.496	16767
831.635	16626
831.774	16459
831.913	16432
832.051	16325
832.19	16382
832.329	16542
832.467	16284
832.606	16272
832.744	16303
832.883	16356
833.022	16360
833.16	16261
833.299	16466
833.437	16291
833.576	16360
833.714	16398
833.852	16451
833.991	16455
834.129	16535
834.267	16436
834.406	16379
834.544	16402
834.682	16409
834.821	16409
834.959	16573
835.097	16371
835.235	16519
835.373	16443
835.511	16443
835.65	16284
835.788	16382
835.926	16215
836.064	16055
836.202	16158
836.34	16333
836.478	16367
836.615	16390
836.753	16417
836.891	16367
837.029	16356
837.167	16265
837.305	16325
837.443	16253
837.58	16234
837.718	16249
837.856	16230
837.993	16101
838.131	16154
838.269	16139
838.406	16261
838.544	16105
838.681	15983
838.819	15873
838.956	15831
839.094	15755
839.231	15835
839.369	15926
839.506	16124
839.643	16029
839.781	15857
839.918	15701
840.055	15682
840.193	15785
840.33	15781
840.467	15778
840.604	15857
840.742	16048
840.879	15587
841.016	15603
841.153	15739
841.29	15861
841.427	15850
841.564	15724
841.701	15804
841.838	15682
841.975	15770
842.112	15709
842.249	15652
842.385	15557
842.522	15720
842.659	15603
842.796	15477
842.933	15595
843.069	15603
843.206	15526
843.343	15603
843.479	15690
843.616	15538
843.752	15321
843.889	15386
844.025	15469
844.162	15351
844.298	15431
844.435	15283
844.571	15378
844.708	15378
844.844	15504
844.98	15504
845.117	15435
845.253	15344
845.389	15230
845.525	15256
845.661	15211
845.798	15108
845.934	15173
846.07	15032
846.206	15218
846.342	15176
846.478	15192
846.614	14979
846.75	14933
846.886	14853
847.022	15043
847.158	15001
847.294	15058
847.429	15047
847.565	14941
847.701	15222
847.837	14762
847.972	14655
848.108	14788
848.244	14743
848.379	14541
848.515	14552
848.65	14526
848.786	14473
848.921	14484
849.057	14632
849.192	14537
849.328	14587
849.463	14526
849.598	14461
849.734	14419
849.869	14366
850.004	14298
850.14	14294
850.275	14427
850.41	14320
850.545	14206
850.68	14267
850.815	14313
850.95	14240
851.085	14457
851.22	14343
851.355	14324
851.49	14286
851.625	14229
851.76	14138
851.895	14259
852.03	14218
852.165	14271
852.299	14336
852.434	14396
852.569	14317
852.703	14267
852.838	14415
852.973	14324
853.107	14446
853.242	14259
853.376	14214
853.511	14100
853.645	14084
853.78	14267
853.914	14149
854.048	14096
854.183	14119
854.317	14172
854.451	14263
854.585	14157
854.72	14096
854.854	14168
854.988	14088
855.122	14107
855.256	14077
855.39	14164
855.524	14180
855.658	14164
855.792	14214
855.926	14187
856.06	14187
856.194	14244
856.327	14126
856.461	14069
856.595	14145
856.729	14172
856.862	14233
856.996	14267
857.13	14218
857.263	14301
857.397	14248
857.53	14134
857.664	14263
857.797	14233
857.931	14214
858.064	14248
858.197	14229
858.331	14126
858.464	14111
858.597	14050
858.731	14199
858.864	14145
858.997	14168
859.13	14115
859.263	14149
859.396	14191
859.529	14054
859.662	14161
859.795	14088
859.928	14161
860.061	14309
860.194	14381
860.327	14183
860.46	14161
860.592	14282
860.725	14244
860.858	14267
860.99	14164
861.123	14065
861.256	14142
861.388	14187
861.521	14895
861.653	14043
861.786	13902
861.918	14050
862.05	14020
862.183	14069
862.315	14123
862.447	14229
862.58	14130
862.712	13978
862.844	13841
862.976	13982
863.108	13932
863.24	14298
863.372	13871
863.504	13986
863.636	13856
863.768	13925
863.9	13993
864.032	13788
864.164	13936
864.296	14027
864.428	14008
864.559	14039
864.691	14024
864.823	14043
864.954	13921
865.086	13913
865.217	13936
865.349	13890
865.48	13947
865.612	14005
865.743	14054
865.875	13978
866.006	13852
866.137	13989
866.269	13864
866.4	13887
866.531	13883
866.662	13734
866.793	13921
866.924	13970
867.055	13967
867.186	13947
867.317	13811
867.448	13837
867.579	13807
867.71	13830
867.841	13811
867.972	13951
868.103	13921
868.233	13906
868.364	13925
868.495	13982
868.625	14149
868.756	14267
868.886	14046
869.017	14100
869.147	14271
869.278	14298
869.408	14278
869.539	14161
869.669	14275
869.799	14206
869.929	14275
870.06	14313
870.19	14503
870.32	14514
870.45	14522
870.58	14575
870.71	14636
870.84	14670
870.97	14480
871.1	14594
871.23	14746
871.36	14773
871.489	14606
871.619	14765
871.749	14815
871.879	14785
872.008	14906
872.138	14777
872.267	14849
872.397	14610
872.526	14613
872.656	14651
872.785	14674
872.915	14872
873.044	14906
873.173	14838
873.303	14868
873.432	14891
873.561	14971
873.69	14842
873.819	14826
873.948	14906
874.077	14838
874.206	14792
874.335	14838
874.464	15108
874.593	15138
874.722	15055
874.851	15127
874.979	15123
875.108	15108
875.237	15188
875.365	14967
875.494	15039
875.623	15321
875.751	15119
875.88	15154
876.008	15264
876.136	15374
876.265	15584
876.393	15633
876.521	15720
876.65	15641
876.778	15515
876.906	15542
877.034	15504
877.162	15610
877.29	15534
877.418	15580
877.546	15576
877.674	15538
877.802	15530
877.93	15572
878.058	15481
878.185	15450
878.313	15538
878.441	15557
878.568	15344
878.696	15500
878.824	15492
878.951	15663
879.079	15671
879.206	15842
879.333	15663
879.461	15584
879.588	15644
879.715	15713
879.842	15865
879.97	15599
880.097	15374
880.224	15431
880.351	15420
880.478	15367
880.605	15336
880.732	15450
880.859	15622
880.986	15447
881.112	15450
881.239	15272
881.366	15218
881.493	15112
881.619	15039
881.746	15097
881.872	15051
881.999	14971
882.125	15036
882.252	15100
882.378	15081
882.505	15192
882.631	15028
882.757	14868
882.883	14838
883.01	14941
883.136	14765
883.262	14785
883.388	14720
883.514	14902
883.64	14929
883.766	14880
883.892	14678
884.018	14697
884.143	14853
884.269	14967
884.395	14651
884.52	14556
884.646	14670
884.772	14545
884.897	14518
885.023	14606
885.148	14788
885.274	14655
885.399	14739
885.524	14648
885.65	14564
885.775	14537
885.9	14575
886.025	14674
886.15	14590
886.275	14560
886.4	14412
886.525	14587
886.65	14518
886.775	14389
886.9	14697
887.025	14929
887.149	14610
887.274	14415
887.399	14427
887.523	14339
887.648	14336
887.773	14412
887.897	14499
888.021	14419
888.146	14370
888.27	14522
888.395	14492
888.519	14377
888.643	14488
888.767	14457
888.891	14355
889.015	14237
889.139	14301
889.263	14267
889.387	14317
889.511	14511
889.635	14476
889.759	14374
889.883	14282
890.006	14366
890.13	14366
890.254	14202
890.377	14256
890.501	14054
890.624	14024
890.748	14164
890.871	14046
890.995	13993
891.118	13879
891.241	14024
891.364	13986
891.488	14111
891.611	13909
891.734	14058
891.857	14020
891.98	13955
892.103	14031
892.226	14073
892.349	13947
892.471	13841
892.594	13928
892.717	13932
892.839	13955
892.962	13932
893.085	14031
893.207	14046
893.33	13837
893.452	13951
893.575	14096
893.697	14031
893.819	14088
893.941	14275
894.064	14092
894.186	13936
894.308	13936
894.43	14183
894.552	14176
894.674	14100
894.796	13955
894.918	14035
895.04	14153
895.161	14138
895.283	14195
895.405	14027
895.526	14046
895.648	14096
895.769	14107
895.891	14199
896.012	14282
896.134	14237
896.255	14126
896.376	14119
896.498	14142
896.619	14199
896.74	14130
896.861	14237
896.982	14473
897.103	14598
897.224	14355
897.345	14370
897.466	14305
897.587	14339
897.708	14541
897.828	14587
897.949	14351
898.07	14370
898.19	14400
898.311	14442
898.431	14484
898.552	14488
898.672	14514
898.792	14564
898.913	14530
899.033	14404
899.153	14332
899.273	14294
899.393	14313
899.513	14374
899.633	14377
899.753	14240
899.873	14381
899.993	14438
900.113	14362
900.232	14332
900.352	14282
900.472	14343
900.591	14149
900.711	14305
900.83	14210
900.95	14267
901.069	14290
901.189	14130
901.308	13875
901.427	13902
901.546	13909
901.665	13944
901.784	13811
901.904	13746
902.023	13700
902.141	13491
902.26	13472
902.379	13510
902.498	13441
902.617	13422
902.735	13468
902.854	13472
902.973	13483
903.091	13228
903.21	13171
903.328	13225
903.446	13122
903.565	13129
903.683	13038
903.801	12901
903.919	13034
904.038	12981
904.156	12806
904.274	13000
904.392	12806
904.51	12833
904.627	12833
904.745	12932
904.863	12829
904.981	12688
905.098	12547
905.216	12509
905.334	12563
905.451	12627
905.569	12509
905.686	12608
905.803	12555
905.921	12403
906.038	12513
906.155	12407
906.272	12266
906.389	12327
906.506	12182
906.623	12182
906.74	12182
906.857	12098
906.974	12053
907.091	12209
907.208	12319
907.324	12285
907.441	12095
907.557	11920
907.674	11874
907.79	11901
907.907	11885
908.023	11946
908.139	11882
908.256	11908
908.372	11843
908.488	11901
908.604	11726
908.72	11699
908.836	11676
908.952	11710
909.068	11722
909.184	11870
909.3	11741
909.415	11726
909.531	11748
909.647	11436
909.762	11520
909.878	11463
909.993	11459
910.108	11509
910.224	11497
910.339	11501
910.454	11398
910.57	11345
910.685	11277
910.8	11520
910.915	11444
911.03	11372
911.145	11178
911.259	11128
911.374	11189
911.489	11132
911.604	11136
911.718	10923
911.833	10843
911.947	10771
912.062	10706
912.176	10904
912.291	10904
912.405	10896
912.519	11113
912.633	11109
912.748	10980
912.862	10908
912.976	10809
913.09	10805
913.204	10649
913.318	10816
913.431	10957
913.545	10896
913.659	10927
913.772	10778
913.886	10710
914	10626
914.113	10759
914.226	10847
914.34	10767
914.453	10596
914.566	10748
914.68	10679
914.793	10641
914.906	10447
915.019	10470
915.132	10379
915.245	10447
915.358	10409
915.47	10485
915.583	10402
915.696	10455
915.809	10554
915.921	10577
916.034	10421
916.146	10363
916.259	10398
916.371	10466
916.483	10432
916.595	10284
916.708	10398
916.82	10371
916.932	10325
917.044	10360
917.156	10314
917.268	10265
917.38	10246
917.491	10268
917.603	10291
917.715	10352
917.826	10390
917.938	10265
918.049	10059
918.161	10204
918.272	10443
918.384	10360
918.495	10314
918.606	10200
918.717	10078
918.828	10143
918.939	10246
919.05	10078
919.161	10116
919.272	9953
919.383	10055
919.494	10166
919.604	10363
919.715	10166
919.826	10116
919.936	10147
920.047	10200
920.157	10154
920.267	10386
920.378	10234
920.488	10173
920.598	10382
920.708	10443
920.818	10443
920.928	10284
921.038	10569
921.148	10405
921.258	10158
921.368	10090
921.477	10036
921.587	10044
921.697	9903
921.806	10032
921.916	9861
922.025	9728
922.134	9759
922.244	9709
922.353	9732
922.462	9667
922.571	9564
922.68	9428
922.789	9325
922.898	9405
923.007	9340
923.116	9447
923.224	9416
923.333	9447
923.442	9321
923.55	9253
923.659	9310
923.767	9321
923.876	9218
923.984	9363
924.092	9256
924.201	9291
924.309	9287
924.417	9287
924.525	9260
924.633	9279
924.741	10158
924.849	9070
924.956	9184
925.064	9123
925.172	8990
925.279	9081
925.387	9108
925.494	9085
925.602	9195
925.709	9157
925.816	9001
925.924	9089
926.031	9180
926.138	9081
926.245	9097
926.352	9036
926.459	9146
926.566	9150
926.673	9058
926.779	8941
926.886	8925
926.993	8830
927.099	8849
927.206	8693
927.312	8815
927.419	8819
927.525	8746
927.631	8891
927.737	8750
927.843	8667
927.95	8598
928.056	8670
928.162	8674
928.267	8758
928.373	9313
928.479	8830
928.585	8579
928.69	8743
928.796	8781
928.901	8556
929.007	8473
929.112	8606
929.218	8621
929.323	8518
929.428	8499
929.533	8655
929.638	8408
929.743	8511
929.848	8518
929.953	8488
930.058	8450
930.163	8221
930.267	8256
930.372	8431
930.477	8286
930.581	8473
930.685	8370
930.79	8240
930.894	8229
930.998	8233
931.103	8343
931.207	8062
931.311	8008
931.415	7921
931.519	7727
931.623	7681
