Data from test_V78500241_1436.txt Node
Date: Fri Mar 25 14:43:42 CST 2022
User: usil
Spectrometer: V785-0024
Trigger mode: 0
Integration Time (sec): 4.000000E-1
Scans to average: 1
Nonlinearity correction enabled: false
Boxcar width: 0
Storing dark spectrum: false
XAxis mode: Wavelengths
Number of Pixels in Spectrum: 1024
>>>>>Begin Spectral Data<<<<<
801.071	22462
801.214	22478
801.356	22070
801.499	21918
801.641	21835
801.783	21846
801.926	21857
802.068	21739
802.211	21618
802.353	21625
802.496	21302
802.638	21272
802.78	21207
802.923	21203
803.065	21157
803.208	21142
803.35	21142
803.492	21260
803.635	21302
803.777	21077
803.919	21287
804.061	21447
804.204	21195
804.346	21036
804.488	20921
804.63	21127
804.773	20948
804.915	21169
805.057	21218
805.199	20963
805.341	21058
805.483	21165
805.626	21085
805.768	21039
805.91	21028
806.052	21081
806.194	20937
806.336	21135
806.478	20883
806.62	20979
806.762	21222
806.904	21348
807.046	21504
807.188	21370
807.33	21416
807.472	21485
807.614	21317
807.756	21401
807.898	21169
808.04	21298
808.182	21195
808.324	21325
808.465	21397
808.607	21500
808.749	21686
808.891	21717
809.033	21827
809.174	21709
809.316	21580
809.458	21599
809.6	21587
809.741	21587
809.883	21629
810.025	21732
810.166	21667
810.308	21652
810.45	21504
810.591	21587
810.733	21389
810.875	21310
811.016	21184
811.158	21180
811.299	21298
811.441	21264
811.582	21344
811.724	21211
811.865	21173
812.007	21154
812.148	21294
812.29	21226
812.431	21447
812.573	21583
812.714	21553
812.855	21610
812.997	21903
813.138	21945
813.279	21907
813.421	21701
813.562	21625
813.703	21587
813.845	21313
813.986	21116
814.127	20895
814.268	20758
814.41	20838
814.551	20815
814.692	20861
814.833	20823
814.974	20663
815.115	20701
815.256	20640
815.397	20629
815.539	20686
815.68	20632
815.821	20427
815.962	20609
816.103	20522
816.244	20290
816.385	20195
816.526	20256
816.666	20020
816.807	19970
816.948	20012
817.089	20020
817.23	20008
817.371	19822
817.512	19814
817.653	19974
817.793	19947
817.934	19921
818.075	19944
818.216	19970
818.356	19841
818.497	19662
818.638	19476
818.778	19769
818.919	19597
819.06	19559
819.2	19693
819.341	19757
819.481	19772
819.622	19913
819.762	20035
819.903	20016
820.043	20081
820.184	19944
820.324	19879
820.465	20062
820.605	19963
820.746	19818
820.886	19731
821.026	19811
821.167	19837
821.307	19913
821.447	19830
821.588	19746
821.728	19639
821.868	19529
822.008	19381
822.149	19278
822.289	19285
822.429	19110
822.569	19027
822.709	18840
822.849	18840
822.99	18852
823.13	18810
823.27	18810
823.41	18688
823.55	18460
823.69	18559
823.83	18589
823.97	18445
824.11	18433
824.25	18407
824.389	18308
824.529	18372
824.669	18395
824.809	18418
824.949	18403
825.089	18407
825.228	18407
825.368	18247
825.508	18224
825.648	18178
825.787	18171
825.927	18304
826.067	18144
826.206	18003
826.346	18201
826.485	18125
826.625	18087
826.765	18247
826.904	18110
827.044	18022
827.183	17954
827.323	17764
827.462	17851
827.601	17824
827.741	17832
827.88	17908
828.02	17767
828.159	17805
828.298	17897
828.437	17893
828.577	17828
828.716	18026
828.855	17805
828.994	17551
829.134	17615
829.273	17729
829.412	17570
829.551	17562
829.69	17566
829.829	17627
829.968	17760
830.107	17570
830.246	17623
830.385	17585
830.524	17543
830.663	17356
830.802	17322
830.941	17315
831.08	17277
831.219	17315
831.357	17334
831.496	17337
831.635	17208
831.774	17159
831.913	17121
832.051	17025
832.19	17132
832.329	17033
832.467	16831
832.606	16843
832.744	16908
832.883	16889
833.022	16793
833.16	16881
833.299	16957
833.437	17022
833.576	17052
833.714	16995
833.852	17128
833.991	16995
834.129	17121
834.267	17045
834.406	17029
834.544	17060
834.682	17010
834.821	16984
834.959	17079
835.097	16961
835.235	17006
835.373	16991
835.511	17014
835.65	16835
835.788	16835
835.926	16736
836.064	16607
836.202	16812
836.34	16927
836.478	16915
836.615	16858
836.753	16835
836.891	16919
837.029	16839
837.167	16809
837.305	16908
837.443	16828
837.58	16782
837.718	16915
837.856	16717
837.993	16839
838.131	16721
838.269	16702
838.406	16694
838.544	16615
838.681	16519
838.819	16398
838.956	16261
839.094	16287
839.231	16310
839.369	16443
839.506	16645
839.643	16565
839.781	16386
839.918	16181
840.055	16390
840.193	16246
840.33	16287
840.467	16238
840.604	16257
840.742	16542
840.879	16158
841.016	16188
841.153	16181
841.29	16299
841.427	16386
841.564	16310
841.701	16276
841.838	16226
841.975	16207
842.112	16230
842.249	16059
842.385	16025
842.522	16185
842.659	16177
842.796	15968
842.933	16048
843.069	16082
843.206	16036
843.343	16143
843.479	16078
843.616	16025
843.752	15876
843.889	15865
844.025	16078
844.162	15819
844.298	15979
844.435	15808
844.571	15918
844.708	15964
844.844	16006
844.98	16002
845.117	15964
845.253	15865
845.389	15838
845.525	15880
845.661	15831
845.798	15941
845.934	15998
846.07	15892
846.206	16006
846.342	15972
846.478	15755
846.614	15557
846.75	15492
846.886	15466
847.022	15431
847.158	15405
847.294	15538
847.429	15454
847.565	15351
847.701	15720
847.837	15150
847.972	15097
848.108	15252
848.244	15157
848.379	15138
848.515	15036
848.65	15017
848.786	15024
848.921	14925
849.057	15142
849.192	15192
849.328	15070
849.463	14944
849.598	14967
849.734	14948
849.869	14944
850.004	14754
850.14	14811
850.275	14769
850.41	14705
850.545	14792
850.68	14891
850.815	14815
850.95	14735
851.085	14960
851.22	14804
851.355	14781
851.49	14800
851.625	14712
851.76	14773
851.895	14640
852.03	14670
852.165	14708
852.299	14777
852.434	14921
852.569	14800
852.703	14785
852.838	14899
852.973	14914
853.107	14861
853.242	14712
853.376	14693
853.511	14571
853.645	14602
853.78	14811
853.914	14727
854.048	14564
854.183	14617
854.317	14632
854.451	14800
854.585	14552
854.72	14708
854.854	14705
854.988	14545
855.122	14621
855.256	14568
855.39	14613
855.524	14636
855.658	14678
855.792	14697
855.926	14625
856.06	14712
856.194	14716
856.327	14648
856.461	14541
856.595	14610
856.729	14579
856.862	14727
856.996	14689
857.13	14800
857.263	14701
857.397	14735
857.53	14629
857.664	14735
857.797	14743
857.931	14815
858.064	14625
858.197	14781
858.331	14678
858.464	14663
858.597	14579
858.731	14594
858.864	14621
858.997	14556
859.13	14739
859.263	14651
859.396	14773
859.529	14651
859.662	14648
859.795	14689
859.928	14655
860.061	14830
860.194	14868
860.327	14602
860.46	14689
860.592	14663
860.725	14682
860.858	14689
860.99	14530
861.123	14549
861.256	14499
861.388	14610
861.521	15226
861.653	14499
861.786	14495
861.918	14446
862.05	14625
862.183	14602
862.315	14556
862.447	14549
862.58	14629
862.712	14427
862.844	14389
862.976	14495
863.108	14427
863.24	14765
863.372	14385
863.504	14381
863.636	14438
863.768	14377
863.9	14469
864.032	14301
864.164	14412
864.296	14476
864.428	14438
864.559	14461
864.691	14488
864.823	14412
864.954	14518
865.086	14427
865.217	14328
865.349	14282
865.48	14358
865.612	14396
865.743	14476
865.875	14381
866.006	14317
866.137	14469
866.269	14442
866.4	14495
866.531	14286
866.662	14374
866.793	14355
866.924	14336
867.055	14339
867.186	14351
867.317	14336
867.448	14275
867.579	14362
867.71	14332
867.841	14317
867.972	14404
868.103	14396
868.233	14366
868.364	14336
868.495	14545
868.625	14533
868.756	14712
868.886	14590
869.017	14663
869.147	14754
869.278	14857
869.408	14617
869.539	14526
869.669	14796
869.799	14686
869.929	14705
870.06	14716
870.19	15024
870.32	14910
870.45	14982
870.58	15070
870.71	15100
870.84	15116
870.97	15047
871.1	14975
871.23	15260
871.36	15260
871.489	15135
871.619	15146
871.749	15207
871.879	15214
872.008	15332
872.138	15195
872.267	15142
872.397	15081
872.526	15154
872.656	15077
872.785	15013
872.915	15294
873.044	15393
873.173	15294
873.303	15214
873.432	15230
873.561	15420
873.69	15310
873.819	15249
873.948	15279
874.077	15378
874.206	15222
874.335	15268
874.464	15526
874.593	15473
874.722	15462
874.851	15751
874.979	15568
875.108	15671
875.237	15549
875.365	15511
875.494	15610
875.623	15606
875.751	15595
875.88	15610
876.008	15694
876.136	15774
876.265	15926
876.393	16173
876.521	16124
876.65	16097
876.778	16078
876.906	16044
877.034	15915
877.162	15937
877.29	15850
877.418	16017
877.546	16078
877.674	16025
877.802	15960
877.93	16086
878.058	15960
878.185	15876
878.313	15880
878.441	15994
878.568	15930
878.696	16002
878.824	15972
878.951	16059
879.079	16185
879.206	16443
879.333	16310
879.461	16158
879.588	16341
879.715	16325
879.842	16500
879.97	16192
880.097	15991
880.224	15808
880.351	15956
880.478	15850
880.605	15831
880.732	15941
880.859	16204
880.986	15922
881.112	15899
881.239	15774
881.366	15682
881.493	15599
881.619	15587
881.746	15564
881.872	15534
881.999	15458
882.125	15534
882.252	15584
882.378	15614
882.505	15698
882.631	15439
882.757	15355
882.883	15412
883.01	15363
883.136	15336
883.262	15192
883.388	15192
883.514	15447
883.64	15424
883.766	15268
883.892	15184
884.018	15336
884.143	15389
884.269	15504
884.395	15180
884.52	15062
884.646	15047
884.772	14967
884.897	14971
885.023	15089
885.148	15237
885.274	15108
885.399	15184
885.524	14990
885.65	15093
885.775	15104
885.9	15032
886.025	15097
886.15	15097
886.275	14967
886.4	15055
886.525	14990
886.65	14986
886.775	15085
886.9	15131
887.025	15214
887.149	15039
887.274	14872
887.399	14849
887.523	14838
887.648	14834
887.773	14689
887.897	14933
888.021	14948
888.146	14826
888.27	14845
888.395	14944
888.519	14891
888.643	14944
888.767	14887
888.891	14750
889.015	14644
889.139	14674
889.263	14701
889.387	14830
889.511	14849
889.635	14880
889.759	14632
889.883	14659
890.006	14727
890.13	14735
890.254	14617
890.377	14629
890.501	14495
890.624	14488
890.748	14613
890.871	14419
890.995	14461
891.118	14309
891.241	14355
891.364	14492
891.488	14503
891.611	14400
891.734	14358
891.857	14499
891.98	14393
892.103	14495
892.226	14495
892.349	14263
892.471	14298
892.594	14355
892.717	14465
892.839	14339
892.962	14347
893.085	14442
893.207	14328
893.33	14267
893.452	14256
893.575	14419
893.697	14366
893.819	14579
893.941	14552
894.064	14587
894.186	14457
894.308	14187
894.43	14514
894.552	14564
894.674	14556
894.796	14366
894.918	14317
895.04	14488
895.161	14541
895.283	14587
895.405	14370
895.526	14587
895.648	14492
895.769	14514
895.891	14526
896.012	14590
896.134	14537
896.255	14476
896.376	14495
896.498	14636
896.619	14575
896.74	14560
896.861	14587
896.982	14872
897.103	14910
897.224	14830
897.345	14720
897.466	14754
897.587	14811
897.708	14944
897.828	14781
897.949	14697
898.07	14648
898.19	14807
898.311	14971
898.431	14830
898.552	14914
898.672	14963
898.792	14914
898.913	14933
899.033	14842
899.153	14746
899.273	14678
899.393	14746
899.513	14731
899.633	14746
899.753	14739
899.873	14708
899.993	14845
900.113	14743
900.232	14800
900.352	14697
900.472	14716
900.591	14545
900.711	14629
900.83	14537
900.95	14663
901.069	14716
901.189	14564
901.308	14404
901.427	14275
901.546	14351
901.665	14339
901.784	14286
901.904	14134
902.023	14145
902.141	13883
902.26	13807
902.379	13913
902.498	13822
902.617	13822
902.735	13799
902.854	13890
902.973	13746
903.091	13510
903.21	13491
903.328	13582
903.446	13544
903.565	13506
903.683	13502
903.801	13304
903.919	13445
904.038	13377
904.156	13247
904.274	13308
904.392	13343
904.51	13145
904.627	13198
904.745	13244
904.863	13183
904.981	12958
905.098	12954
905.216	12943
905.334	12901
905.451	12939
905.569	12810
905.686	12909
905.803	12878
905.921	12779
906.038	12787
906.155	12829
906.272	12627
906.389	12639
906.506	12593
906.623	12452
906.74	12494
906.857	12380
906.974	12380
907.091	12582
907.208	12589
907.324	12536
907.441	12319
907.557	12213
907.674	12186
907.79	12125
907.907	12224
908.023	12273
908.139	12277
908.256	12163
908.372	12209
908.488	12136
908.604	11984
908.72	11984
908.836	12007
908.952	11946
909.068	11954
909.184	12072
909.3	11935
909.415	12034
909.531	12060
909.647	11836
909.762	11817
909.878	11729
909.993	11756
910.108	11794
910.224	11733
910.339	11893
910.454	11649
910.57	11710
910.685	11562
910.8	11832
910.915	11832
911.03	11745
911.145	11547
911.259	11433
911.374	11429
911.489	11406
911.604	11337
911.718	11189
911.833	11216
911.947	11128
912.062	11113
912.176	11258
912.291	11166
912.405	11170
912.519	11372
912.633	11337
912.748	11254
912.862	11212
912.976	11064
913.09	10904
913.204	10965
913.318	11033
913.431	11208
913.545	11189
913.659	11246
913.772	11056
913.886	10961
914	11064
914.113	11029
914.226	11109
914.34	11048
914.453	10816
914.566	11006
914.68	10930
914.793	10835
914.906	10702
915.019	10679
915.132	10668
915.245	10592
915.358	10668
915.47	10740
915.583	10710
915.696	10759
915.809	10809
915.921	10793
916.034	10714
916.146	10607
916.259	10603
916.371	10797
916.483	10710
916.595	10577
916.708	10645
916.82	10599
916.932	10599
917.044	10679
917.156	10592
917.268	10615
917.38	10527
917.491	10519
917.603	10516
917.715	10596
917.826	10641
917.938	10455
918.049	10356
918.161	10500
918.272	10634
918.384	10675
918.495	10500
918.606	10428
918.717	10382
918.828	10447
918.939	10405
919.05	10310
919.161	10402
919.272	10200
919.383	10284
919.494	10443
919.604	10630
919.715	10447
919.826	10337
919.936	10382
920.047	10519
920.157	10455
920.267	10584
920.378	10459
920.488	10413
920.598	10596
920.708	10675
920.818	10535
920.928	10561
921.038	10881
921.148	10748
921.258	10478
921.368	10356
921.477	10276
921.587	10257
921.697	10169
921.806	10261
921.916	10204
922.025	9987
922.134	9979
922.244	9899
922.353	10116
922.462	9895
922.571	9808
922.68	9629
922.789	9709
922.898	9675
923.007	9614
923.116	9652
923.224	9682
923.333	9618
923.442	9542
923.55	9526
923.659	9587
923.767	9534
923.876	9507
923.984	9530
924.092	9481
924.201	9481
924.309	9553
924.417	9545
924.525	9447
924.633	9538
924.741	10379
924.849	9245
924.956	9370
925.064	9211
925.172	9184
925.279	9313
925.387	9336
925.494	9351
925.602	9447
925.709	9382
925.816	9233
925.924	9313
926.031	9370
926.138	9275
926.245	9386
926.352	9195
926.459	9393
926.566	9450
926.673	9268
926.779	9192
926.886	9157
926.993	8967
927.099	9024
927.206	8971
927.312	8956
927.419	9013
927.525	9043
927.631	9013
927.737	8857
927.843	8868
927.95	8864
928.056	8872
928.162	8925
928.267	8948
928.373	9553
928.479	8960
928.585	8758
928.69	8933
928.796	8868
928.901	8864
929.007	8648
929.112	8857
929.218	8697
929.323	8716
929.428	8727
929.533	8826
929.638	8587
929.743	8727
929.848	8781
929.953	8724
930.058	8625
930.163	8457
930.267	8503
930.372	8632
930.477	8415
930.581	8693
930.685	8537
930.79	8412
930.894	8457
930.998	8362
931.103	8571
931.207	8229
931.311	8130
931.415	8103
931.519	7906
931.623	7921
