Data from test_V78500241_2722.txt Node
Date: Fri Mar 25 14:52:40 CST 2022
User: usil
Spectrometer: V785-0024
Trigger mode: 0
Integration Time (sec): 4.000000E-1
Scans to average: 1
Nonlinearity correction enabled: false
Boxcar width: 0
Storing dark spectrum: false
XAxis mode: Wavelengths
Number of Pixels in Spectrum: 1024
>>>>>Begin Spectral Data<<<<<
801.071	22013
801.214	21819
801.356	21652
801.499	21637
801.641	21344
801.783	21416
801.926	21298
802.068	21268
802.211	21321
802.353	21104
802.496	20918
802.638	20883
802.78	20788
802.923	20716
803.065	20625
803.208	20636
803.35	20758
803.492	20902
803.635	20746
803.777	20746
803.919	20788
804.061	21062
804.204	20716
804.346	20629
804.488	20560
804.63	20625
804.773	20571
804.915	20655
805.057	20739
805.199	20552
805.341	20632
805.483	20689
805.626	20773
805.768	20575
805.91	20625
806.052	20663
806.194	20568
806.336	20773
806.478	20507
806.62	20606
806.762	20701
806.904	20781
807.046	20963
807.188	20921
807.33	20975
807.472	20956
807.614	20811
807.756	20785
807.898	20807
808.04	20629
808.182	20625
808.324	20727
808.465	20834
808.607	20887
808.749	20883
808.891	21047
809.033	21226
809.174	21062
809.316	20956
809.458	21028
809.6	20891
809.741	21157
809.883	21131
810.025	21180
810.166	21123
810.308	21173
810.45	20952
810.591	20921
810.733	20864
810.875	20735
811.016	20556
811.158	20552
811.299	20716
811.441	20861
811.582	20883
811.724	20758
811.865	20716
812.007	20686
812.148	20663
812.29	20895
812.431	20842
812.573	21028
812.714	21112
812.855	21275
812.997	21428
813.138	21397
813.279	21325
813.421	21085
813.562	21173
813.703	20895
813.845	20921
813.986	20537
814.127	20396
814.268	20294
814.41	20389
814.551	20256
814.692	20324
814.833	20248
814.974	20267
815.115	20275
815.256	20119
815.397	20100
815.539	20187
815.68	20100
815.821	19970
815.962	19997
816.103	20062
816.244	19875
816.385	19791
816.526	19822
816.666	19635
816.807	19392
816.948	19605
817.089	19624
817.23	19483
817.371	19335
817.512	19335
817.653	19369
817.793	19400
817.934	19335
818.075	19369
818.216	19381
818.356	19327
818.497	19259
818.638	19023
818.778	19133
818.919	19069
819.06	19122
819.2	19217
819.341	19312
819.481	19362
819.622	19502
819.762	19658
819.903	19472
820.043	19556
820.184	19354
820.324	19392
820.465	19358
820.605	19278
820.746	19445
820.886	19187
821.026	19263
821.167	19392
821.307	19373
821.447	19316
821.588	19225
821.728	19164
821.868	18958
822.008	18791
822.149	18856
822.289	18768
822.429	18536
822.569	18429
822.709	18494
822.849	18262
822.99	18273
823.13	18159
823.27	18300
823.41	18102
823.55	18125
823.69	18064
823.83	18148
823.97	17999
824.11	17958
824.25	17863
824.389	17843
824.529	17939
824.669	17794
824.809	17920
824.949	17984
825.089	17935
825.228	17847
825.368	17558
825.508	17596
825.648	17642
825.787	17703
825.927	17802
826.067	17562
826.206	17657
826.346	17737
826.485	17668
826.625	17638
826.765	17630
826.904	17684
827.044	17509
827.183	17455
827.323	17292
827.462	17372
827.601	17368
827.741	17288
827.88	17463
828.02	17254
828.159	17436
828.298	17353
828.437	17379
828.577	17326
828.716	17486
828.855	17318
828.994	17113
829.134	17178
829.273	17185
829.412	17166
829.551	17022
829.69	17056
829.829	17128
829.968	17235
830.107	17121
830.246	17094
830.385	17216
830.524	17010
830.663	16896
830.802	16835
830.941	16687
831.08	16782
831.219	16759
831.357	16786
831.496	16847
831.635	16668
831.774	16748
831.913	16645
832.051	16523
832.19	16615
832.329	16580
832.467	16424
832.606	16333
832.744	16428
832.883	16417
833.022	16367
833.16	16504
833.299	16519
833.437	16478
833.576	16459
833.714	16466
833.852	16485
833.991	16462
834.129	16573
834.267	16470
834.406	16402
834.544	16497
834.682	16550
834.821	16398
834.959	16645
835.097	16485
835.235	16645
835.373	16523
835.511	16474
835.65	16394
835.788	16394
835.926	16272
836.064	16150
836.202	16299
836.34	16363
836.478	16470
836.615	16436
836.753	16352
836.891	16573
837.029	16428
837.167	16363
837.305	16367
837.443	16303
837.58	16215
837.718	16253
837.856	16207
837.993	16128
838.131	16360
838.269	16158
838.406	16200
838.544	16150
838.681	16025
838.819	15956
838.956	15751
839.094	15808
839.231	15922
839.369	15983
839.506	16226
839.643	15979
839.781	15899
839.918	15812
840.055	16071
840.193	15686
840.33	15774
840.467	15880
840.604	15869
840.742	15987
840.879	15682
841.016	15679
841.153	15705
841.29	15888
841.427	15789
841.564	15831
841.701	15857
841.838	15762
841.975	15705
842.112	15812
842.249	15538
842.385	15679
842.522	15679
842.659	15660
842.796	15671
842.933	15603
843.069	15641
843.206	15584
843.343	15713
843.479	15625
843.616	15534
843.752	15378
843.889	15458
844.025	15485
844.162	15283
844.298	15412
844.435	15439
844.571	15374
844.708	15348
844.844	15530
844.98	15534
845.117	15515
845.253	15370
845.389	15313
845.525	15351
845.661	15348
845.798	15165
845.934	15222
846.07	15176
846.206	15241
846.342	15313
846.478	15211
846.614	14967
846.75	14906
846.886	14933
847.022	15070
847.158	15001
847.294	14979
847.429	15108
847.565	14952
847.701	15142
847.837	14842
847.972	14632
848.108	14823
848.244	14777
848.379	14617
848.515	14568
848.65	14560
848.786	14625
848.921	14522
849.057	14670
849.192	14701
849.328	14697
849.463	14610
849.598	14511
849.734	14358
849.869	14446
850.004	14393
850.14	14389
850.275	14438
850.41	14366
850.545	14320
850.68	14313
850.815	14324
850.95	14278
851.085	14511
851.22	14404
851.355	14282
851.49	14263
851.625	14309
851.76	14290
851.895	14199
852.03	14145
852.165	14336
852.299	14313
852.434	14465
852.569	14328
852.703	14423
852.838	14415
852.973	14503
853.107	14396
853.242	14309
853.376	14138
853.511	14084
853.645	14123
853.78	14301
853.914	14210
854.048	14149
854.183	14123
854.317	14237
854.451	14336
854.585	14172
854.72	14027
854.854	14202
854.988	14062
855.122	14221
855.256	14031
855.39	14187
855.524	14298
855.658	14123
855.792	14237
855.926	14168
856.06	14218
856.194	14252
856.327	14229
856.461	14092
856.595	14206
856.729	14138
856.862	14336
856.996	14229
857.13	14271
857.263	14298
857.397	14358
857.53	14130
857.664	14183
857.797	14362
857.931	14336
858.064	14233
858.197	14320
858.331	14225
858.464	14157
858.597	14096
858.731	14138
858.864	14332
858.997	14191
859.13	14183
859.263	14229
859.396	14320
859.529	14145
859.662	14164
859.795	14142
859.928	14324
860.061	14427
860.194	14442
860.327	14221
860.46	14210
860.592	14183
860.725	14503
860.858	14298
860.99	14149
861.123	14221
861.256	14046
861.388	14191
861.521	14758
861.653	14054
861.786	14031
861.918	14126
862.05	14164
862.183	14119
862.315	14286
862.447	14370
862.58	14206
862.712	13970
862.844	13967
862.976	14081
863.108	14130
863.24	14469
863.372	13928
863.504	13959
863.636	14058
863.768	14016
863.9	14027
864.032	13986
864.164	14043
864.296	14100
864.428	14123
864.559	14145
864.691	14073
864.823	14058
864.954	14096
865.086	14069
865.217	14050
865.349	13982
865.48	14050
865.612	13982
865.743	14176
865.875	14065
866.006	14027
866.137	14058
866.269	13917
866.4	14031
866.531	13993
866.662	13818
866.793	13909
866.924	14039
867.055	14012
867.186	13955
867.317	13955
867.448	13875
867.579	13947
867.71	13826
867.841	13970
867.972	14050
868.103	13959
868.233	13993
868.364	14081
868.495	14039
868.625	14218
868.756	14385
868.886	14168
869.017	14191
869.147	14408
869.278	14366
869.408	14214
869.539	14317
869.669	14423
869.799	14317
869.929	14385
870.06	14415
870.19	14621
870.32	14552
870.45	14655
870.58	14693
870.71	14849
870.84	14724
870.97	14625
871.1	14613
871.23	14815
871.36	14872
871.489	14678
871.619	14853
871.749	14861
871.879	15055
872.008	15066
872.138	14781
872.267	14876
872.397	14735
872.526	14602
872.656	14610
872.785	14689
872.915	14880
873.044	14933
873.173	14883
873.303	14971
873.432	15066
873.561	15058
873.69	14887
873.819	14937
873.948	14921
874.077	15024
874.206	14868
874.335	15005
874.464	15116
874.593	15218
874.722	15085
874.851	15245
874.979	15275
875.108	15260
875.237	15135
875.365	15195
875.494	15176
875.623	15363
875.751	15176
875.88	15226
876.008	15435
876.136	15443
876.265	15557
876.393	15743
876.521	15785
876.65	15732
876.778	15622
876.906	15553
877.034	15648
877.162	15534
877.29	15526
877.418	15694
877.546	15587
877.674	15564
877.802	15637
877.93	15660
878.058	15679
878.185	15500
878.313	15587
878.441	15644
878.568	15496
878.696	15572
878.824	15625
878.951	15732
879.079	15865
879.206	15956
879.333	15861
879.461	15701
879.588	15732
879.715	15808
879.842	15991
879.97	15785
880.097	15485
880.224	15515
880.351	15538
880.478	15549
880.605	15515
880.732	15576
880.859	15747
880.986	15526
881.112	15443
881.239	15382
881.366	15310
881.493	15146
881.619	15131
881.746	15192
881.872	15150
881.999	15123
882.125	15176
882.252	15237
882.378	15173
882.505	15233
882.631	15104
882.757	14929
882.883	15039
883.01	14933
883.136	14937
883.262	14762
883.388	14918
883.514	14986
883.64	15066
883.766	14868
883.892	14735
884.018	14857
884.143	14952
884.269	15081
884.395	14720
884.52	14644
884.646	14663
884.772	14636
884.897	14636
885.023	14682
885.148	14845
885.274	14788
885.399	14792
885.524	14689
885.65	14625
885.775	14625
885.9	14689
886.025	14773
886.15	14815
886.275	14613
886.4	14571
886.525	14617
886.65	14632
886.775	14716
886.9	14765
887.025	14960
887.149	14621
887.274	14514
887.399	14446
887.523	14450
887.648	14461
887.773	14431
887.897	14579
888.021	14606
888.146	14408
888.27	14533
888.395	14743
888.519	14518
888.643	14454
888.767	14473
888.891	14431
889.015	14366
889.139	14503
889.263	14301
889.387	14594
889.511	14640
889.635	14537
889.759	14374
889.883	14385
890.006	14454
890.13	14518
890.254	14301
890.377	14248
890.501	14176
890.624	14142
890.748	14142
890.871	14210
890.995	14020
891.118	14043
891.241	14035
891.364	13974
891.488	14168
891.611	14005
891.734	14065
891.857	14092
891.98	14073
892.103	14172
892.226	14054
892.349	14005
892.471	13902
892.594	14012
892.717	14199
892.839	14005
892.962	14107
893.085	14096
893.207	14031
893.33	13894
893.452	13993
893.575	14145
893.697	13970
893.819	14267
893.941	14176
894.064	14218
894.186	14096
894.308	14046
894.43	14221
894.552	14206
894.674	14191
894.796	14107
894.918	14035
895.04	14088
895.161	14225
895.283	14202
895.405	14119
895.526	14005
895.648	14164
895.769	14233
895.891	14237
896.012	14355
896.134	14294
896.255	14221
896.376	14126
896.498	14286
896.619	14290
896.74	14271
896.861	14404
896.982	14678
897.103	14811
897.224	14583
897.345	14427
897.466	14442
897.587	14541
897.708	14636
897.828	14507
897.949	14446
898.07	14320
898.19	14499
898.311	14568
898.431	14415
898.552	14594
898.672	14697
898.792	14708
898.913	14590
899.033	14552
899.153	14434
899.273	14343
899.393	14355
899.513	14476
899.633	14450
899.753	14404
899.873	14336
899.993	14507
900.113	14358
900.232	14495
900.352	14385
900.472	14286
900.591	14202
900.711	14267
900.83	14248
900.95	14408
901.069	14427
901.189	14210
901.308	14031
901.427	13978
901.546	13913
901.665	14046
901.784	13986
901.904	13849
902.023	13795
902.141	13578
902.26	13525
902.379	13746
902.498	13506
902.617	13544
902.735	13708
902.854	13548
902.973	13529
903.091	13221
903.21	13240
903.328	13270
903.446	13175
903.565	13141
903.683	13110
903.801	12985
903.919	13149
904.038	13107
904.156	12924
904.274	12935
904.392	12890
904.51	12947
904.627	12928
904.745	13031
904.863	12928
904.981	12768
905.098	12658
905.216	12544
905.334	12741
905.451	12665
905.569	12604
905.686	12715
905.803	12681
905.921	12407
906.038	12574
906.155	12410
906.272	12338
906.389	12380
906.506	12235
906.623	12266
906.74	12209
906.857	12076
906.974	12125
907.091	12315
907.208	12376
907.324	12258
907.441	12114
907.557	12022
907.674	11984
907.79	11988
907.907	11969
908.023	11950
908.139	12053
908.256	11942
908.372	11882
908.488	11851
908.604	11805
908.72	11726
908.836	11802
908.952	11703
909.068	11745
909.184	11863
909.3	11676
909.415	11733
909.531	11866
909.647	11497
909.762	11501
909.878	11417
909.993	11551
910.108	11425
910.224	11478
910.339	11520
910.454	11429
910.57	11391
910.685	11284
910.8	11562
910.915	11573
911.03	11307
911.145	11212
911.259	11159
911.374	11216
911.489	11151
911.604	11113
911.718	10927
911.833	10919
911.947	10938
912.062	10759
912.176	10976
912.291	11075
912.405	10987
912.519	11128
912.633	11212
912.748	10995
912.862	11014
912.976	10812
913.09	10698
913.204	10801
913.318	10793
913.431	10987
913.545	10953
913.659	10919
913.772	10889
913.886	10725
914	10679
914.113	10847
914.226	10839
914.34	10835
914.453	10641
914.566	10748
914.68	10637
914.793	10714
914.906	10478
915.019	10466
915.132	10390
915.245	10424
915.358	10485
915.47	10447
915.583	10451
915.696	10573
915.809	10634
915.921	10675
916.034	10405
916.146	10478
916.259	10337
916.371	10519
916.483	10455
916.595	10436
916.708	10478
916.82	10440
916.932	10440
917.044	10333
917.156	10451
917.268	10299
917.38	10409
917.491	10284
917.603	10390
917.715	10379
917.826	10375
917.938	10272
918.049	10181
918.161	10238
918.272	10428
918.384	10527
918.495	10303
918.606	10112
918.717	10002
918.828	10196
918.939	10253
919.05	10169
919.161	10116
919.272	9975
919.383	10032
919.494	10318
919.604	10363
919.715	10188
919.826	10074
919.936	10200
920.047	10344
920.157	10207
920.267	10363
920.378	10204
920.488	10154
920.598	10386
920.708	10565
920.818	10379
920.928	10405
921.038	10596
921.148	10489
921.258	10261
921.368	10219
921.477	10044
921.587	10002
921.697	9956
921.806	10120
921.916	9979
922.025	9838
922.134	9797
922.244	9762
922.353	9747
922.462	9705
922.571	9606
922.68	9431
922.789	9435
922.898	9469
923.007	9348
923.116	9431
923.224	9458
923.333	9416
923.442	9363
923.55	9313
923.659	9393
923.767	9431
923.876	9306
923.984	9374
924.092	9203
924.201	9264
924.309	9336
924.417	9279
924.525	9268
924.633	9256
924.741	9983
924.849	9097
924.956	9329
925.064	9097
925.172	8986
925.279	9024
925.387	9108
925.494	9028
925.602	9253
925.709	9226
925.816	9062
925.924	9097
926.031	9241
926.138	9077
926.245	9169
926.352	9070
926.459	9100
926.566	9192
926.673	9077
926.779	8952
926.886	8906
926.993	8880
927.099	8834
927.206	8781
927.312	8815
927.419	8861
927.525	8754
927.631	8861
927.737	8777
927.843	8674
927.95	8594
928.056	8640
928.162	8708
928.267	8773
928.373	9355
928.479	8796
928.585	8541
928.69	8739
928.796	8762
928.901	8674
929.007	8484
929.112	8621
929.218	8613
929.323	8552
929.428	8549
929.533	8716
929.638	8571
929.743	8446
929.848	8583
929.953	8533
930.058	8434
930.163	8381
930.267	8351
930.372	8469
930.477	8294
930.581	8541
930.685	8434
930.79	8229
930.894	8298
930.998	8263
931.103	8374
931.207	8065
931.311	8012
931.415	7902
931.519	7799
931.623	7753
