Data from test_V78500241_2284.txt Node
Date: Fri Mar 25 14:49:36 CST 2022
User: usil
Spectrometer: V785-0024
Trigger mode: 0
Integration Time (sec): 4.000000E-1
Scans to average: 1
Nonlinearity correction enabled: false
Boxcar width: 0
Storing dark spectrum: false
XAxis mode: Wavelengths
Number of Pixels in Spectrum: 1024
>>>>>Begin Spectral Data<<<<<
801.071	22158
801.214	22051
801.356	21850
801.499	21705
801.641	21500
801.783	21736
801.926	21671
802.068	21557
802.211	21458
802.353	21340
802.496	21161
802.638	21131
802.78	20937
802.923	21051
803.065	20674
803.208	20944
803.35	20963
803.492	21032
803.635	21039
803.777	20956
803.919	21013
804.061	21207
804.204	20952
804.346	20857
804.488	20686
804.63	20952
804.773	20845
804.915	20956
805.057	20887
805.199	20830
805.341	20811
805.483	20941
805.626	20830
805.768	20777
805.91	20823
806.052	20781
806.194	20632
806.336	21108
806.478	20902
806.62	20788
806.762	20891
806.904	20975
807.046	21218
807.188	21112
807.33	21184
807.472	21272
807.614	21104
807.756	21165
807.898	20994
808.04	20857
808.182	20868
808.324	20963
808.465	20948
808.607	21142
808.749	21211
808.891	21435
809.033	21302
809.174	21332
809.316	21138
809.458	21317
809.6	21173
809.741	21241
809.883	21241
810.025	21378
810.166	21321
810.308	21344
810.45	21294
810.591	21207
810.733	21214
810.875	20902
811.016	21009
811.158	20792
811.299	20963
811.441	21074
811.582	21089
811.724	20929
811.865	21005
812.007	21017
812.148	20921
812.29	21066
812.431	21055
812.573	21279
812.714	21340
812.855	21450
812.997	21519
813.138	21656
813.279	21641
813.421	21477
813.562	21389
813.703	21188
813.845	21176
813.986	20815
814.127	20609
814.268	20613
814.41	20663
814.551	20533
814.692	20571
814.833	20499
814.974	20495
815.115	20465
815.256	20343
815.397	20446
815.539	20423
815.68	20290
815.821	20183
815.962	20248
816.103	20381
816.244	19932
816.385	19894
816.526	20100
816.666	19841
816.807	19712
816.948	19742
817.089	19856
817.23	19704
817.371	19685
817.512	19635
817.653	19632
817.793	19525
817.934	19635
818.075	19685
818.216	19635
818.356	19525
818.497	19400
818.638	19350
818.778	19289
818.919	19263
819.06	19392
819.2	19476
819.341	19510
819.481	19430
819.622	19757
819.762	19852
819.903	19715
820.043	19685
820.184	19529
820.324	19628
820.465	19712
820.605	19613
820.746	19571
820.886	19419
821.026	19594
821.167	19620
821.307	19651
821.447	19571
821.588	19415
821.728	19301
821.868	19171
822.008	19031
822.149	18989
822.289	18985
822.429	18772
822.569	18627
822.709	18684
822.849	18540
822.99	18563
823.13	18479
823.27	18445
823.41	18433
823.55	18194
823.69	18353
823.83	18251
823.97	18330
824.11	18057
824.25	18053
824.389	18114
824.529	18174
824.669	18129
824.809	18121
824.949	18030
825.089	18117
825.228	18049
825.368	17958
825.508	17893
825.648	17973
825.787	17942
825.927	17954
826.067	17794
826.206	17726
826.346	17733
826.485	17878
826.625	17813
826.765	17923
826.904	17901
827.044	17718
827.183	17592
827.323	17448
827.462	17581
827.601	17589
827.741	17566
827.88	17547
828.02	17398
828.159	17455
828.298	17642
828.437	17630
828.577	17619
828.716	17634
828.855	17551
828.994	17398
829.134	17345
829.273	17337
829.412	17197
829.551	17261
829.69	17254
829.829	17345
829.968	17318
830.107	17315
830.246	17414
830.385	17303
830.524	17189
830.663	17151
830.802	16938
830.941	16934
831.08	16900
831.219	17010
831.357	16953
831.496	17048
831.635	16877
831.774	16824
831.913	16889
832.051	16649
832.19	16675
832.329	16767
832.467	16596
832.606	16599
832.744	16592
832.883	16664
833.022	16596
833.16	16721
833.299	16660
833.437	16668
833.576	16675
833.714	16630
833.852	16675
833.991	16702
834.129	16839
834.267	16725
834.406	16713
834.544	16725
834.682	16675
834.821	16615
834.959	16915
835.097	16656
835.235	16778
835.373	16603
835.511	16626
835.65	16485
835.788	16588
835.926	16558
836.064	16424
836.202	16478
836.34	16554
836.478	16691
836.615	16519
836.753	16489
836.891	16611
837.029	16577
837.167	16508
837.305	16447
837.443	16379
837.58	16462
837.718	16398
837.856	16432
837.993	16417
838.131	16455
838.269	16428
838.406	16306
838.544	16322
838.681	16109
838.819	16116
838.956	15998
839.094	15835
839.231	16097
839.369	16116
839.506	16352
839.643	16177
839.781	15949
839.918	15880
840.055	15926
840.193	15998
840.33	15880
840.467	15838
840.604	15975
840.742	16261
840.879	15846
841.016	15804
841.153	15785
841.29	16063
841.427	15937
841.564	16040
841.701	16051
841.838	15899
841.975	15850
842.112	15907
842.249	15751
842.385	15785
842.522	15918
842.659	15766
842.796	15705
842.933	15819
843.069	15701
843.206	15667
843.343	15804
843.479	15743
843.616	15671
843.752	15507
843.889	15454
844.025	15827
844.162	15496
844.298	15641
844.435	15431
844.571	15428
844.708	15500
844.844	15709
844.98	15637
845.117	15599
845.253	15454
845.389	15378
845.525	15420
845.661	15351
845.798	15336
845.934	15374
846.07	15199
846.206	15340
846.342	15424
846.478	15241
846.614	15161
846.75	15104
846.886	15074
847.022	15165
847.158	15089
847.294	15070
847.429	15169
847.565	14952
847.701	15260
847.837	14883
847.972	14769
848.108	14975
848.244	14914
848.379	14815
848.515	14667
848.65	14720
848.786	14727
848.921	14651
849.057	14826
849.192	14800
849.328	14727
849.463	14785
849.598	14659
849.734	14568
849.869	14708
850.004	14503
850.14	14480
850.275	14438
850.41	14434
850.545	14461
850.68	14370
850.815	14465
850.95	14434
851.085	14678
851.22	14568
851.355	14389
851.49	14480
851.625	14408
851.76	14507
851.895	14343
852.03	14358
852.165	14461
852.299	14431
852.434	14476
852.569	14454
852.703	14454
852.838	14484
852.973	14663
853.107	14552
853.242	14461
853.376	14374
853.511	14202
853.645	14332
853.78	14400
853.914	14351
854.048	14252
854.183	14267
854.317	14454
854.451	14446
854.585	14305
854.72	14290
854.854	14377
854.988	14233
855.122	14290
855.256	14161
855.39	14256
855.524	14457
855.658	14408
855.792	14263
855.926	14381
856.06	14298
856.194	14480
856.327	14377
856.461	14275
856.595	14320
856.729	14298
856.862	14442
856.996	14374
857.13	14408
857.263	14438
857.397	14461
857.53	14355
857.664	14332
857.797	14389
857.931	14526
858.064	14454
858.197	14298
858.331	14298
858.464	14233
858.597	14176
858.731	14267
858.864	14324
858.997	14248
859.13	14328
859.263	14393
859.396	14400
859.529	14290
859.662	14256
859.795	14240
859.928	14298
860.061	14434
860.194	14503
860.327	14404
860.46	14339
860.592	14419
860.725	14434
860.858	14393
860.99	14343
861.123	14244
861.256	14218
861.388	14400
861.521	14899
861.653	14294
861.786	14115
861.918	14054
862.05	14225
862.183	14282
862.315	14317
862.447	14294
862.58	14328
862.712	14062
862.844	14024
862.976	14221
863.108	14153
863.24	14396
863.372	14073
863.504	14073
863.636	14054
863.768	14161
863.9	14054
864.032	14039
864.164	14012
864.296	14176
864.428	14096
864.559	14084
864.691	14168
864.823	14172
864.954	14180
865.086	14195
865.217	14039
865.349	14020
865.48	14096
865.612	14043
865.743	14199
865.875	13993
866.006	14046
866.137	14054
866.269	14142
866.4	14092
866.531	14008
866.662	13978
866.793	14024
866.924	14027
867.055	14046
867.186	14008
867.317	14016
867.448	14027
867.579	14008
867.71	13906
867.841	13936
867.972	14027
868.103	14024
868.233	14062
868.364	14065
868.495	14183
868.625	14301
868.756	14438
868.886	14298
869.017	14218
869.147	14461
869.278	14400
869.408	14431
869.539	14282
869.669	14450
869.799	14290
869.929	14381
870.06	14358
870.19	14689
870.32	14568
870.45	14602
870.58	14716
870.71	14914
870.84	14819
870.97	14670
871.1	14731
871.23	14956
871.36	14853
871.489	14830
871.619	14902
871.749	14982
871.879	14899
872.008	15100
872.138	14918
872.267	14918
872.397	14720
872.526	14648
872.656	14792
872.785	14796
872.915	14933
873.044	15051
873.173	14902
873.303	15032
873.432	14944
873.561	15055
873.69	14876
873.819	14956
873.948	15032
874.077	14990
874.206	14876
874.335	15058
874.464	15138
874.593	15233
874.722	15256
874.851	15199
874.979	15321
875.108	15294
875.237	15188
875.365	15203
875.494	15249
875.623	15367
875.751	15264
875.88	15260
876.008	15485
876.136	15523
876.265	15762
876.393	15808
876.521	15762
876.65	15732
876.778	15694
876.906	15648
877.034	15663
877.162	15663
877.29	15633
877.418	15728
877.546	15739
877.674	15644
877.802	15751
877.93	15705
878.058	15709
878.185	15595
878.313	15717
878.441	15694
878.568	15549
878.696	15625
878.824	15743
878.951	15747
879.079	15789
879.206	15998
879.333	15903
879.461	15713
879.588	15812
879.715	15926
879.842	16032
879.97	15808
880.097	15408
880.224	15564
880.351	15587
880.478	15557
880.605	15488
880.732	15542
880.859	15743
880.986	15603
881.112	15610
881.239	15500
881.366	15256
881.493	15256
881.619	15169
881.746	15188
881.872	15252
881.999	15268
882.125	15237
882.252	15237
882.378	15192
882.505	15321
882.631	15195
882.757	14921
882.883	15051
883.01	14960
883.136	14861
883.262	14941
883.388	14891
883.514	15017
883.64	15100
883.766	14925
883.892	14834
884.018	14857
884.143	14971
884.269	15112
884.395	14750
884.52	14746
884.646	14735
884.772	14648
884.897	14644
885.023	14678
885.148	14826
885.274	14899
885.399	14754
885.524	14743
885.65	14758
885.775	14800
885.9	14750
886.025	14796
886.15	14777
886.275	14754
886.4	14602
886.525	14724
886.65	14617
886.775	14693
886.9	14785
887.025	15005
887.149	14701
887.274	14594
887.399	14495
887.523	14495
887.648	14442
887.773	14522
887.897	14606
888.021	14632
888.146	14533
888.27	14629
888.395	14712
888.519	14621
888.643	14610
888.767	14564
888.891	14423
889.015	14324
889.139	14476
889.263	14298
889.387	14530
889.511	14720
889.635	14644
889.759	14423
889.883	14454
890.006	14446
890.13	14514
890.254	14381
890.377	14343
890.501	14199
890.624	14252
890.748	14271
890.871	14195
890.995	14088
891.118	13963
891.241	14149
891.364	14046
891.488	14149
891.611	14092
891.734	14035
891.857	14176
891.98	14096
892.103	14286
892.226	14180
892.349	14084
892.471	13932
892.594	14069
892.717	14111
892.839	14073
892.962	14126
893.085	14202
893.207	14065
893.33	14054
893.452	14039
893.575	14214
893.697	14077
893.819	14396
893.941	14317
894.064	14278
894.186	14054
894.308	14092
894.43	14313
894.552	14324
894.674	14286
894.796	14073
894.918	14161
895.04	14199
895.161	14256
895.283	14305
895.405	14115
895.526	14172
895.648	14229
895.769	14267
895.891	14233
896.012	14290
896.134	14377
896.255	14290
896.376	14176
896.498	14278
896.619	14423
896.74	14259
896.861	14324
896.982	14610
897.103	14815
897.224	14648
897.345	14598
897.466	14419
897.587	14537
897.708	14617
897.828	14644
897.949	14514
898.07	14454
898.19	14606
898.311	14819
898.431	14579
898.552	14648
898.672	14750
898.792	14663
898.913	14739
899.033	14533
899.153	14545
899.273	14358
899.393	14480
899.513	14503
899.633	14446
899.753	14381
899.873	14514
899.993	14537
900.113	14503
900.232	14522
900.352	14473
900.472	14400
900.591	14404
900.711	14423
900.83	14301
900.95	14465
901.069	14518
901.189	14244
901.308	14092
901.427	13993
901.546	13982
901.665	14058
901.784	14035
901.904	13944
902.023	13784
902.141	13616
902.26	13704
902.379	13658
902.498	13544
902.617	13533
902.735	13708
902.854	13594
902.973	13521
903.091	13384
903.21	13301
903.328	13365
903.446	13247
903.565	13183
903.683	13259
903.801	13031
903.919	13179
904.038	13088
904.156	13088
904.274	13076
904.392	12920
904.51	12951
904.627	12993
904.745	13129
904.863	12958
904.981	12776
905.098	12593
905.216	12707
905.334	12631
905.451	12779
905.569	12650
905.686	12738
905.803	12665
905.921	12521
906.038	12601
906.155	12528
906.272	12426
906.389	12441
906.506	12369
906.623	12281
906.74	12209
906.857	12114
906.974	12163
907.091	12251
907.208	12399
907.324	12270
907.441	12197
907.557	12049
907.674	12015
907.79	11999
907.907	11992
908.023	11950
908.139	12079
908.256	11965
908.372	11878
908.488	11969
908.604	11752
908.72	11745
908.836	11790
908.952	11707
909.068	11707
909.184	11893
909.3	11779
909.415	11809
909.531	11786
909.647	11630
909.762	11516
909.878	11539
909.993	11528
910.108	11558
910.224	11467
910.339	11638
910.454	11372
910.57	11421
910.685	11353
910.8	11619
910.915	11490
911.03	11395
911.145	11292
911.259	11288
911.374	11212
911.489	11155
911.604	11128
911.718	10934
911.833	11033
911.947	10934
912.062	10862
912.176	10953
912.291	10965
912.405	10961
912.519	11124
912.633	11212
912.748	11151
912.862	11075
912.976	10866
913.09	10752
913.204	10786
913.318	10854
913.431	10968
913.545	10965
913.659	10911
913.772	10869
913.886	10801
914	10759
914.113	10809
914.226	10843
914.34	10816
914.453	10645
914.566	10866
914.68	10683
914.793	10675
914.906	10504
915.019	10504
915.132	10428
915.245	10447
915.358	10512
915.47	10493
915.583	10569
915.696	10569
915.809	10664
915.921	10634
916.034	10470
916.146	10481
916.259	10436
916.371	10573
916.483	10516
916.595	10424
916.708	10379
916.82	10379
916.932	10455
917.044	10478
917.156	10413
917.268	10352
917.38	10333
917.491	10280
917.603	10348
917.715	10386
917.826	10462
917.938	10310
918.049	10143
918.161	10379
918.272	10493
918.384	10379
918.495	10318
918.606	10265
918.717	10158
918.828	10242
918.939	10246
919.05	10131
919.161	10211
919.272	10029
919.383	10006
919.494	10303
919.604	10367
919.715	10207
919.826	10150
919.936	10101
920.047	10310
920.157	10211
920.267	10394
920.378	10211
920.488	10200
920.598	10360
920.708	10607
920.818	10443
920.928	10386
921.038	10599
921.148	10596
921.258	10238
921.368	10143
921.477	10147
921.587	10120
921.697	9975
921.806	10082
921.916	9956
922.025	9846
922.134	9793
922.244	9656
922.353	9819
922.462	9675
922.571	9599
922.68	9481
922.789	9466
922.898	9408
923.007	9443
923.116	9526
923.224	9530
923.333	9519
923.442	9355
923.55	9321
923.659	9351
923.767	9450
923.876	9313
923.984	9412
924.092	9298
924.201	9386
924.309	9348
924.417	9321
924.525	9302
924.633	9344
924.741	10234
924.849	9108
924.956	9245
925.064	9119
925.172	9112
925.279	9051
925.387	9184
925.494	9150
925.602	9207
925.709	9253
925.816	9074
925.924	9142
926.031	9176
926.138	9089
926.245	9165
926.352	9066
926.459	9230
926.566	9226
926.673	9131
926.779	8906
926.886	8986
926.993	8899
927.099	8910
927.206	8766
927.312	8743
927.419	8838
927.525	8815
927.631	8849
927.737	8766
927.843	8712
927.95	8674
928.056	8705
928.162	8701
928.267	8819
928.373	9378
928.479	8857
928.585	8674
928.69	8712
928.796	8880
928.901	8625
929.007	8492
929.112	8655
929.218	8667
929.323	8511
929.428	8530
929.533	8804
929.638	8511
929.743	8560
929.848	8651
929.953	8610
930.058	8492
930.163	8309
930.267	8370
930.372	8560
930.477	8240
930.581	8526
930.685	8393
930.79	8218
930.894	8271
930.998	8271
931.103	8377
931.207	8046
931.311	8001
931.415	7898
931.519	7731
931.623	7811
