Data from test_V78500241_3205.txt Node
Date: Fri Mar 25 14:56:01 CST 2022
User: usil
Spectrometer: V785-0024
Trigger mode: 0
Integration Time (sec): 4.000000E-1
Scans to average: 1
Nonlinearity correction enabled: false
Boxcar width: 0
Storing dark spectrum: false
XAxis mode: Wavelengths
Number of Pixels in Spectrum: 1024
>>>>>Begin Spectral Data<<<<<
801.071	21983
801.214	21903
801.356	21667
801.499	21412
801.641	21332
801.783	21447
801.926	21458
802.068	21241
802.211	21203
802.353	21150
802.496	20883
802.638	20807
802.78	20967
802.923	20777
803.065	20731
803.208	20686
803.35	20815
803.492	20830
803.635	20906
803.777	20750
803.919	20800
804.061	21108
804.204	20826
804.346	20659
804.488	20511
804.63	20754
804.773	20651
804.915	20727
805.057	20613
805.199	20579
805.341	20640
805.483	20686
805.626	20708
805.768	20621
805.91	20708
806.052	20488
806.194	20575
806.336	20754
806.478	20503
806.62	20613
806.762	20533
806.904	20807
807.046	21055
807.188	21020
807.33	20929
807.472	21062
807.614	20796
807.756	20941
807.898	20781
808.04	20609
808.182	20575
808.324	20602
808.465	20655
808.607	20918
808.749	21104
808.891	21100
809.033	21214
809.174	21047
809.316	20982
809.458	21039
809.6	20925
809.741	20944
809.883	21070
810.025	21005
810.166	21169
810.308	21188
810.45	21104
810.591	21036
810.733	20868
810.875	20674
811.016	20746
811.158	20693
811.299	20674
811.441	20887
811.582	20842
811.724	20701
811.865	20670
812.007	20556
812.148	20693
812.29	20712
812.431	20906
812.573	21123
812.714	21085
812.855	21180
812.997	21298
813.138	21408
813.279	21382
813.421	21329
813.562	21176
813.703	21077
813.845	20891
813.986	20678
814.127	20484
814.268	20313
814.41	20385
814.551	20252
814.692	20339
814.833	20229
814.974	20164
815.115	20336
815.256	20187
815.397	20168
815.539	20164
815.68	20043
815.821	20005
815.962	19978
816.103	20058
816.244	19791
816.385	19746
816.526	19765
816.666	19613
816.807	19373
816.948	19548
817.089	19597
817.23	19483
817.371	19381
817.512	19335
817.653	19407
817.793	19457
817.934	19518
818.075	19358
818.216	19472
818.356	19369
818.497	19198
818.638	19156
818.778	19148
818.919	19107
819.06	19103
819.2	19183
819.341	19312
819.481	19324
819.622	19449
819.762	19594
819.903	19472
820.043	19358
820.184	19312
820.324	19354
820.465	19525
820.605	19373
820.746	19407
820.886	19316
821.026	19285
821.167	19236
821.307	19487
821.447	19362
821.588	19152
821.728	19061
821.868	18939
822.008	18856
822.149	18897
822.289	18738
822.429	18525
822.569	18479
822.709	18460
822.849	18327
822.99	18197
823.13	18262
823.27	18235
823.41	18201
823.55	18026
823.69	18064
823.83	18072
823.97	18076
824.11	17878
824.25	17866
824.389	17836
824.529	17863
824.669	17874
824.809	17946
824.949	17942
825.089	17931
825.228	17901
825.368	17676
825.508	17665
825.648	17684
825.787	17794
825.927	17798
826.067	17718
826.206	17726
826.346	17733
826.485	17710
826.625	17604
826.765	17722
826.904	17729
827.044	17471
827.183	17356
827.323	17387
827.462	17417
827.601	17265
827.741	17292
827.88	17490
828.02	17315
828.159	17410
828.298	17379
828.437	17391
828.577	17269
828.716	17478
828.855	17337
828.994	17079
829.134	17109
829.273	17189
829.412	17003
829.551	16915
829.69	17147
829.829	17075
829.968	17189
830.107	17162
830.246	17143
830.385	17155
830.524	17090
830.663	16934
830.802	16824
830.941	16771
831.08	16816
831.219	16850
831.357	16854
831.496	16999
831.635	16634
831.774	16702
831.913	16664
832.051	16584
832.19	16481
832.329	16599
832.467	16352
832.606	16356
832.744	16409
832.883	16451
833.022	16402
833.16	16424
833.299	16466
833.437	16497
833.576	16440
833.714	16500
833.852	16542
833.991	16519
834.129	16504
834.267	16527
834.406	16497
834.544	16558
834.682	16493
834.821	16447
834.959	16622
835.097	16497
835.235	16607
835.373	16504
835.511	16470
835.65	16459
835.788	16394
835.926	16333
836.064	16185
836.202	16246
836.34	16459
836.478	16447
836.615	16455
836.753	16485
836.891	16436
837.029	16432
837.167	16379
837.305	16257
837.443	16344
837.58	16261
837.718	16211
837.856	16196
837.993	16207
838.131	16291
838.269	16207
838.406	16196
838.544	16116
838.681	15994
838.819	15880
838.956	15751
839.094	15774
839.231	15892
839.369	15930
839.506	16169
839.643	16063
839.781	15880
839.918	15682
840.055	15808
840.193	15793
840.33	15724
840.467	15831
840.604	15892
840.742	16124
840.879	15755
841.016	15766
841.153	15816
841.29	15873
841.427	15808
841.564	15804
841.701	15774
841.838	15705
841.975	15728
842.112	15728
842.249	15690
842.385	15507
842.522	15800
842.659	15667
842.796	15595
842.933	15614
843.069	15488
843.206	15496
843.343	15610
843.479	15633
843.616	15675
843.752	15428
843.889	15408
844.025	15504
844.162	15226
844.298	15515
844.435	15332
844.571	15306
844.708	15405
844.844	15599
844.98	15584
845.117	15561
845.253	15306
845.389	15287
845.525	15294
845.661	15195
845.798	15104
845.934	15252
846.07	15249
846.206	15157
846.342	15378
846.478	15157
846.614	14910
846.75	14952
846.886	14872
847.022	14944
847.158	14918
847.294	14929
847.429	15009
847.565	14933
847.701	15154
847.837	14621
847.972	14651
848.108	14769
848.244	14769
848.379	14579
848.515	14514
848.65	14511
848.786	14530
848.921	14579
849.057	14590
849.192	14590
849.328	14625
849.463	14575
849.598	14465
849.734	14434
849.869	14465
850.004	14332
850.14	14332
850.275	14278
850.41	14286
850.545	14221
850.68	14229
850.815	14343
850.95	14248
851.085	14564
851.22	14408
851.355	14347
851.49	14282
851.625	14282
851.76	14176
851.895	14282
852.03	14145
852.165	14164
852.299	14355
852.434	14412
852.569	14290
852.703	14377
852.838	14377
852.973	14552
853.107	14442
853.242	14317
853.376	14157
853.511	13993
853.645	14172
853.78	14275
853.914	14221
854.048	14073
854.183	14077
854.317	14161
854.451	14309
854.585	14138
854.72	14138
854.854	14248
854.988	14126
855.122	14210
855.256	14027
855.39	14107
855.524	14252
855.658	14164
855.792	14233
855.926	14240
856.06	14252
856.194	14320
856.327	14191
856.461	14081
856.595	14161
856.729	14088
856.862	14271
856.996	14218
857.13	14180
857.263	14282
857.397	14419
857.53	14210
857.664	14233
857.797	14240
857.931	14336
858.064	14305
858.197	14324
858.331	14176
858.464	14096
858.597	14035
858.731	14218
858.864	14046
858.997	14221
859.13	14157
859.263	14252
859.396	14317
859.529	14233
859.662	14130
859.795	14123
859.928	14206
860.061	14343
860.194	14362
860.327	14058
860.46	14145
860.592	14309
860.725	14286
860.858	14298
860.99	14199
861.123	14115
861.256	14142
861.388	14183
861.521	14876
861.653	14126
861.786	13997
861.918	14046
862.05	14084
862.183	14142
862.315	14210
862.447	14210
862.58	14115
862.712	13909
862.844	13913
862.976	14100
863.108	13982
863.24	14400
863.372	13826
863.504	14031
863.636	13906
863.768	13906
863.9	13982
864.032	13947
864.164	13944
864.296	13944
864.428	14073
864.559	13959
864.691	14054
864.823	14039
864.954	13989
865.086	13902
865.217	13944
865.349	13890
865.48	13963
865.612	13940
865.743	14100
865.875	13967
866.006	13841
866.137	13940
866.269	13936
866.4	13909
866.531	13871
866.662	13856
866.793	13849
866.924	13898
867.055	13982
867.186	13940
867.317	13875
867.448	13951
867.579	13963
867.71	13906
867.841	13898
867.972	13978
868.103	13913
868.233	14065
868.364	13894
868.495	14008
868.625	14214
868.756	14301
868.886	14046
869.017	14164
869.147	14282
869.278	14358
869.408	14138
869.539	14263
869.669	14271
869.799	14202
869.929	14320
870.06	14305
870.19	14587
870.32	14526
870.45	14579
870.58	14670
870.71	14792
870.84	14720
870.97	14522
871.1	14625
871.23	14743
871.36	14727
871.489	14754
871.619	14682
871.749	14750
871.879	14883
872.008	14765
872.138	14842
872.267	14804
872.397	14769
872.526	14575
872.656	14568
872.785	14632
872.915	14857
873.044	14864
873.173	14788
873.303	14914
873.432	14933
873.561	14872
873.69	14804
873.819	14807
873.948	14914
874.077	14853
874.206	14777
874.335	14963
874.464	15001
874.593	15184
874.722	15062
874.851	15199
874.979	15192
875.108	15256
875.237	15119
875.365	15047
875.494	15180
875.623	15264
875.751	15150
875.88	15245
876.008	15332
876.136	15447
876.265	15576
876.393	15755
876.521	15701
876.65	15641
876.778	15603
876.906	15488
877.034	15564
877.162	15568
877.29	15473
877.418	15584
877.546	15622
877.674	15568
877.802	15648
877.93	15614
878.058	15488
878.185	15564
878.313	15568
878.441	15610
878.568	15310
878.696	15534
878.824	15633
878.951	15656
879.079	15694
879.206	15907
879.333	15698
879.461	15637
879.588	15686
879.715	15656
879.842	15846
879.97	15633
880.097	15428
880.224	15397
880.351	15405
880.478	15435
880.605	15367
880.732	15435
880.859	15660
880.986	15431
881.112	15439
881.239	15313
881.366	15207
881.493	15165
881.619	15028
881.746	15093
881.872	15123
881.999	15028
882.125	15074
882.252	15176
882.378	14941
882.505	15275
882.631	14990
882.757	14933
882.883	14967
883.01	14910
883.136	14868
883.262	14800
883.388	14765
883.514	14906
883.64	14994
883.766	14807
883.892	14621
884.018	14765
884.143	14902
884.269	14956
884.395	14682
884.52	14644
884.646	14632
884.772	14549
884.897	14621
885.023	14682
885.148	14712
885.274	14758
885.399	14739
885.524	14678
885.65	14590
885.775	14689
885.9	14583
886.025	14826
886.15	14727
886.275	14545
886.4	14526
886.525	14602
886.65	14537
886.775	14522
886.9	14716
887.025	14872
887.149	14651
887.274	14492
887.399	14358
887.523	14347
887.648	14366
887.773	14389
887.897	14526
888.021	14465
888.146	14339
888.27	14552
888.395	14590
888.519	14579
888.643	14412
888.767	14511
888.891	14309
889.015	14419
889.139	14324
889.263	14336
889.387	14457
889.511	14522
889.635	14396
889.759	14286
889.883	14275
890.006	14461
890.13	14400
890.254	14229
890.377	14286
890.501	14069
890.624	14005
890.748	14149
890.871	14031
890.995	13993
891.118	13932
891.241	13936
891.364	14077
891.488	14088
891.611	13898
891.734	13997
891.857	14050
891.98	14062
892.103	14008
892.226	14039
892.349	13906
892.471	13795
892.594	14005
892.717	13944
892.839	13997
892.962	13967
893.085	14024
893.207	14092
893.33	13803
893.452	13860
893.575	14142
893.697	13967
893.819	14199
893.941	14130
894.064	14161
894.186	14058
894.308	13993
894.43	14096
894.552	14237
894.674	14149
894.796	13989
894.918	14020
895.04	13989
895.161	14058
895.283	14107
895.405	14115
895.526	14020
895.648	14142
895.769	14138
895.891	14123
896.012	14294
896.134	14176
896.255	14180
896.376	14107
896.498	14153
896.619	14259
896.74	14180
896.861	14183
896.982	14560
897.103	14727
897.224	14434
897.345	14377
897.466	14385
897.587	14450
897.708	14594
897.828	14503
897.949	14374
898.07	14305
898.19	14484
898.311	14587
898.431	14503
898.552	14575
898.672	14663
898.792	14613
898.913	14587
899.033	14377
899.153	14317
899.273	14313
899.393	14362
899.513	14404
899.633	14423
899.753	14450
899.873	14343
899.993	14358
900.113	14374
900.232	14374
900.352	14328
900.472	14294
900.591	14237
900.711	14240
900.83	14225
900.95	14362
901.069	14244
901.189	14206
901.308	13913
901.427	13993
901.546	13841
901.665	13890
901.784	13967
901.904	13818
902.023	13715
902.141	13544
902.26	13590
902.379	13537
902.498	13495
902.617	13403
902.735	13582
902.854	13445
902.973	13396
903.091	13263
903.21	13198
903.328	13266
903.446	13209
903.565	13031
903.683	13088
903.801	12985
903.919	13133
904.038	13095
904.156	12920
904.274	12996
904.392	12810
904.51	12909
904.627	12863
904.745	12939
904.863	12966
904.981	12711
905.098	12494
905.216	12604
905.334	12646
905.451	12528
905.569	12547
905.686	12627
905.803	12574
905.921	12445
906.038	12486
906.155	12437
906.272	12251
906.389	12330
906.506	12186
906.623	12121
906.74	12087
906.857	11977
906.974	12098
907.091	12083
907.208	12292
907.324	12239
907.441	12102
907.557	11935
907.674	11893
907.79	11863
907.907	11954
908.023	11874
908.139	11931
908.256	11847
908.372	11882
908.488	11794
908.604	11611
908.72	11539
908.836	11779
908.952	11642
909.068	11718
909.184	11809
909.3	11707
909.415	11737
909.531	11748
909.647	11474
909.762	11459
909.878	11467
909.993	11467
910.108	11455
910.224	11337
910.339	11387
910.454	11322
910.57	11223
910.685	11185
910.8	11551
910.915	11455
911.03	11436
911.145	11170
911.259	11090
911.374	11166
911.489	11109
911.604	10949
911.718	10911
911.833	10957
911.947	10911
912.062	10729
912.176	10854
912.291	10942
912.405	10911
912.519	11094
912.633	11079
912.748	10987
912.862	10938
912.976	10828
913.09	10744
913.204	10767
913.318	10793
913.431	10908
913.545	10854
913.659	10915
913.772	10755
913.886	10675
914	10618
914.113	10706
914.226	10805
914.34	10721
914.453	10630
914.566	10767
914.68	10531
914.793	10577
914.906	10470
915.019	10333
915.132	10318
915.245	10341
915.358	10440
915.47	10432
915.583	10508
915.696	10318
915.809	10558
915.921	10474
916.034	10386
916.146	10314
916.259	10341
916.371	10485
916.483	10459
916.595	10310
916.708	10382
916.82	10398
916.932	10295
917.044	10272
917.156	10249
917.268	10227
917.38	10234
917.491	10242
917.603	10230
917.715	10371
917.826	10325
917.938	10234
918.049	10162
918.161	10265
918.272	10394
918.384	10360
918.495	10230
918.606	10185
918.717	10173
918.828	10135
918.939	10116
919.05	10120
919.161	10097
919.272	9911
919.383	10013
919.494	10211
919.604	10394
919.715	10185
919.826	10082
919.936	10116
920.047	10219
920.157	10177
920.267	10333
920.378	10211
920.488	10128
920.598	10386
920.708	10516
920.818	10295
920.928	10348
921.038	10535
921.148	10493
921.258	10158
921.368	10162
921.477	10006
921.587	10002
921.697	9949
921.806	10002
921.916	9892
922.025	9770
922.134	9747
922.244	9698
922.353	9740
922.462	9553
922.571	9538
922.68	9374
922.789	9408
922.898	9466
923.007	9348
923.116	9481
923.224	9386
923.333	9401
923.442	9264
923.55	9275
923.659	9222
923.767	9363
923.876	9298
923.984	9412
924.092	9203
924.201	9317
924.309	9173
924.417	9249
924.525	9203
924.633	9241
924.741	10139
924.849	9058
924.956	9127
925.064	9089
925.172	8944
925.279	9036
925.387	9032
925.494	9062
925.602	9195
925.709	9169
925.816	9039
925.924	9081
926.031	9123
926.138	9100
926.245	9039
926.352	9032
926.459	9089
926.566	9207
926.673	8956
926.779	8979
926.886	8937
926.993	8739
927.099	8754
927.206	8724
927.312	8720
927.419	8792
927.525	8811
927.631	8781
927.737	8731
927.843	8636
927.95	8606
928.056	8693
928.162	8701
928.267	8716
928.373	9264
928.479	8750
928.585	8514
928.69	8617
928.796	8640
928.901	8533
929.007	8434
929.112	8571
929.218	8560
929.323	8434
929.428	8480
929.533	8644
929.638	8450
929.743	8503
929.848	8568
929.953	8495
930.058	8355
930.163	8347
930.267	8305
930.372	8389
930.477	8263
930.581	8461
930.685	8377
930.79	8202
930.894	8237
930.998	8180
931.103	8339
931.207	8031
931.311	7959
931.415	7989
931.519	7746
931.623	7738
