Data from test_V78500241_1795.txt Node
Date: Fri Mar 25 14:46:12 CST 2022
User: usil
Spectrometer: V785-0024
Trigger mode: 0
Integration Time (sec): 4.000000E-1
Scans to average: 1
Nonlinearity correction enabled: false
Boxcar width: 0
Storing dark spectrum: false
XAxis mode: Wavelengths
Number of Pixels in Spectrum: 1024
>>>>>Begin Spectral Data<<<<<
801.071	22344
801.214	22169
801.356	21857
801.499	21751
801.641	21549
801.783	21530
801.926	21599
802.068	21424
802.211	21393
802.353	21363
802.496	21173
802.638	21036
802.78	21028
802.923	20944
803.065	20861
803.208	20845
803.35	20834
803.492	21104
803.635	20960
803.777	20941
803.919	20921
804.061	21138
804.204	21039
804.346	20914
804.488	20712
804.63	20899
804.773	20674
804.915	20773
805.057	20933
805.199	20815
805.341	20853
805.483	20914
805.626	20807
805.768	20796
805.91	20804
806.052	20826
806.194	20689
806.336	20925
806.478	20743
806.62	20781
806.762	20872
806.904	20979
807.046	21211
807.188	21184
807.33	21165
807.472	21123
807.614	21017
807.756	20941
807.898	20921
808.04	20948
808.182	20975
808.324	20819
808.465	20899
808.607	21074
808.749	21313
808.891	21211
809.033	21218
809.174	21241
809.316	21211
809.458	21256
809.6	21173
809.741	21283
809.883	21176
810.025	21374
810.166	21351
810.308	21378
810.45	21195
810.591	21340
810.733	21154
810.875	20998
811.016	20883
811.158	20853
811.299	20929
811.441	21112
811.582	21070
811.724	21062
811.865	20925
812.007	20952
812.148	20979
812.29	20963
812.431	21127
812.573	21332
812.714	21344
812.855	21424
812.997	21583
813.138	21679
813.279	21519
813.421	21504
813.562	21378
813.703	21169
813.845	21188
813.986	20861
814.127	20598
814.268	20587
814.41	20552
814.551	20419
814.692	20560
814.833	20415
814.974	20499
815.115	20625
815.256	20343
815.397	20278
815.539	20400
815.68	20237
815.821	20191
815.962	20233
816.103	20164
816.244	20069
816.385	19978
816.526	20046
816.666	19772
816.807	19655
816.948	19761
817.089	19776
817.23	19632
817.371	19738
817.512	19605
817.653	19658
817.793	19586
817.934	19681
818.075	19655
818.216	19696
818.356	19742
818.497	19506
818.638	19358
818.778	19316
818.919	19301
819.06	19301
819.2	19544
819.341	19563
819.481	19552
819.622	19609
819.762	19833
819.903	19780
820.043	19738
820.184	19734
820.324	19487
820.465	19655
820.605	19647
820.746	19575
820.886	19632
821.026	19616
821.167	19616
821.307	19700
821.447	19502
821.588	19426
821.728	19346
821.868	19148
822.008	19053
822.149	19110
822.289	18981
822.429	18734
822.569	18760
822.709	18707
822.849	18509
822.99	18513
823.13	18517
823.27	18399
823.41	18357
823.55	18289
823.69	18319
823.83	18350
823.97	18311
824.11	18106
824.25	18072
824.389	18174
824.529	18174
824.669	18201
824.809	18285
824.949	18213
825.089	18258
825.228	18091
825.368	17999
825.508	17939
825.648	17954
825.787	17958
825.927	17893
826.067	17870
826.206	17889
826.346	17904
826.485	17958
826.625	17790
826.765	18079
826.904	17965
827.044	17710
827.183	17680
827.323	17516
827.462	17619
827.601	17619
827.741	17566
827.88	17630
828.02	17406
828.159	17611
828.298	17551
828.437	17672
828.577	17478
828.716	17710
828.855	17524
828.994	17425
829.134	17425
829.273	17372
829.412	17254
829.551	17265
829.69	17410
829.829	17337
829.968	17455
830.107	17455
830.246	17341
830.385	17246
830.524	17246
830.663	17117
830.802	17102
830.941	16991
831.08	16885
831.219	16995
831.357	17033
831.496	17193
831.635	16908
831.774	16972
831.913	16923
832.051	16725
832.19	16752
832.329	16881
832.467	16717
832.606	16615
832.744	16645
832.883	16615
833.022	16584
833.16	16740
833.299	16660
833.437	16752
833.576	16759
833.714	16694
833.852	16675
833.991	16774
834.129	16809
834.267	16782
834.406	16668
834.544	16763
834.682	16812
834.821	16767
834.959	16809
835.097	16774
835.235	16896
835.373	16824
835.511	16702
835.65	16615
835.788	16710
835.926	16504
836.064	16577
836.202	16531
836.34	16618
836.478	16653
836.615	16542
836.753	16645
836.891	16736
837.029	16774
837.167	16626
837.305	16565
837.443	16485
837.58	16466
837.718	16584
837.856	16485
837.993	16413
838.131	16500
838.269	16512
838.406	16402
838.544	16371
838.681	16131
838.819	16211
838.956	16120
839.094	16078
839.231	16105
839.369	16177
839.506	16478
839.643	16287
839.781	16109
839.918	16013
840.055	16090
840.193	16131
840.33	15979
840.467	15949
840.604	16040
840.742	16310
840.879	15979
841.016	16032
841.153	15895
841.29	16044
841.427	16071
841.564	16055
841.701	16074
841.838	16051
841.975	15960
842.112	15907
842.249	15899
842.385	15709
842.522	15968
842.659	15793
842.796	15717
842.933	15850
843.069	15812
843.206	15789
843.343	15907
843.479	15895
843.616	15846
843.752	15633
843.889	15599
844.025	15766
844.162	15614
844.298	15793
844.435	15580
844.571	15557
844.708	15698
844.844	15781
844.98	15759
845.117	15781
845.253	15530
845.389	15504
845.525	15587
845.661	15420
845.798	15431
845.934	15447
846.07	15428
846.206	15439
846.342	15477
846.478	15397
846.614	15241
846.75	15165
846.886	15108
847.022	15291
847.158	15275
847.294	15203
847.429	15233
847.565	15226
847.701	15454
847.837	14921
847.972	14933
848.108	14883
848.244	15055
848.379	14769
848.515	14785
848.65	14864
848.786	14785
848.921	14826
849.057	14891
849.192	14876
849.328	14785
849.463	14754
849.598	14648
849.734	14705
849.869	14575
850.004	14533
850.14	14556
850.275	14575
850.41	14537
850.545	14461
850.68	14423
850.815	14526
850.95	14583
851.085	14705
851.22	14579
851.355	14564
851.49	14476
851.625	14461
851.76	14427
851.895	14438
852.03	14465
852.165	14480
852.299	14613
852.434	14556
852.569	14587
852.703	14640
852.838	14640
852.973	14720
853.107	14735
853.242	14522
853.376	14381
853.511	14313
853.645	14385
853.78	14552
853.914	14396
854.048	14343
854.183	14446
854.317	14415
854.451	14488
854.585	14358
854.72	14343
854.854	14419
854.988	14370
855.122	14377
855.256	14244
855.39	14317
855.524	14469
855.658	14461
855.792	14484
855.926	14495
856.06	14530
856.194	14541
856.327	14408
856.461	14374
856.595	14286
856.729	14320
856.862	14495
856.996	14465
857.13	14503
857.263	14541
857.397	14541
857.53	14511
857.664	14461
857.797	14549
857.931	14533
858.064	14423
858.197	14518
858.331	14404
858.464	14374
858.597	14381
858.731	14461
858.864	14328
858.997	14381
859.13	14461
859.263	14389
859.396	14476
859.529	14355
859.662	14419
859.795	14290
859.928	14438
860.061	14518
860.194	14693
860.327	14423
860.46	14454
860.592	14499
860.725	14541
860.858	14507
860.99	14434
861.123	14343
861.256	14347
861.388	14408
861.521	15146
861.653	14320
861.786	14202
861.918	14313
862.05	14290
862.183	14358
862.315	14366
862.447	14450
862.58	14343
862.712	14210
862.844	14149
862.976	14202
863.108	14199
863.24	14594
863.372	14130
863.504	14187
863.636	14210
863.768	14191
863.9	14244
864.032	14088
864.164	14168
864.296	14267
864.428	14233
864.559	14248
864.691	14290
864.823	14202
864.954	14225
865.086	14176
865.217	14191
865.349	14100
865.48	14206
865.612	14145
865.743	14305
865.875	14191
866.006	14172
866.137	14145
866.269	14164
866.4	14145
866.531	14164
866.662	14073
866.793	14119
866.924	14142
867.055	14218
867.186	14084
867.317	14088
867.448	14084
867.579	14214
867.71	14096
867.841	14100
867.972	14214
868.103	14126
868.233	14244
868.364	14199
868.495	14358
868.625	14336
868.756	14465
868.886	14248
869.017	14351
869.147	14541
869.278	14484
869.408	14396
869.539	14385
869.669	14396
869.799	14438
869.929	14526
870.06	14549
870.19	14781
870.32	14758
870.45	14731
870.58	14895
870.71	14872
870.84	14963
870.97	14842
871.1	14914
871.23	15024
871.36	15051
871.489	14933
871.619	14960
871.749	15017
871.879	14998
872.008	15176
872.138	15017
872.267	15024
872.397	14899
872.526	14910
872.656	14750
872.785	14914
872.915	15020
873.044	15123
873.173	15112
873.303	15051
873.432	15199
873.561	15184
873.69	15051
873.819	15066
873.948	15176
874.077	15127
874.206	15116
874.335	15036
874.464	15279
874.593	15412
874.722	15351
874.851	15367
874.979	15370
875.108	15435
875.237	15268
875.365	15256
875.494	15367
875.623	15450
875.751	15275
875.88	15408
876.008	15523
876.136	15580
876.265	15751
876.393	15945
876.521	15831
876.65	15930
876.778	15831
876.906	15728
877.034	15694
877.162	15770
877.29	15675
877.418	15778
877.546	15679
877.674	15759
877.802	15819
877.93	15785
878.058	15705
878.185	15679
878.313	15774
878.441	15751
878.568	15568
878.696	15709
878.824	15922
878.951	15861
879.079	15953
879.206	16166
879.333	15850
879.461	15861
879.588	15892
879.715	15945
879.842	16086
879.97	15907
880.097	15599
880.224	15637
880.351	15576
880.478	15671
880.605	15610
880.732	15557
880.859	15812
880.986	15637
881.112	15682
881.239	15584
881.366	15382
881.493	15252
881.619	15329
881.746	15302
881.872	15142
881.999	15332
882.125	15325
882.252	15336
882.378	15348
882.505	15412
882.631	15256
882.757	15074
882.883	15226
883.01	15150
883.136	14994
883.262	15009
883.388	14929
883.514	15039
883.64	15100
883.766	15043
883.892	14929
884.018	15043
884.143	15070
884.269	15207
884.395	14861
884.52	14777
884.646	14823
884.772	14720
884.897	14727
885.023	14960
885.148	14891
885.274	14956
885.399	14887
885.524	14880
885.65	14819
885.775	14899
885.9	14773
886.025	14910
886.15	14921
886.275	14815
886.4	14689
886.525	14853
886.65	14602
886.775	14777
886.9	14887
887.025	15089
887.149	14849
887.274	14689
887.399	14674
887.523	14613
887.648	14613
887.773	14476
887.897	14826
888.021	14708
888.146	14587
888.27	14769
888.395	14701
888.519	14670
888.643	14689
888.767	14667
888.891	14552
889.015	14473
889.139	14552
889.263	14454
889.387	14594
889.511	14735
889.635	14583
889.759	14648
889.883	14507
890.006	14545
890.13	14682
890.254	14438
890.377	14362
890.501	14305
890.624	14305
890.748	14351
890.871	14214
890.995	14157
891.118	14145
891.241	14176
891.364	14134
891.488	14294
891.611	14149
891.734	14214
891.857	14286
891.98	14294
892.103	14221
892.226	14240
892.349	14115
892.471	14054
892.594	14134
892.717	14225
892.839	14180
892.962	14225
893.085	14252
893.207	14153
893.33	14069
893.452	14191
893.575	14206
893.697	14172
893.819	14263
893.941	14385
894.064	14343
894.186	14172
894.308	14081
894.43	14343
894.552	14294
894.674	14313
894.796	14176
894.918	14206
895.04	14191
895.161	14324
895.283	14370
895.405	14320
895.526	14332
895.648	14286
895.769	14355
895.891	14351
896.012	14412
896.134	14476
896.255	14366
896.376	14294
896.498	14351
896.619	14355
896.74	14438
896.861	14511
896.982	14762
897.103	14826
897.224	14655
897.345	14659
897.466	14545
897.587	14678
897.708	14754
897.828	14629
897.949	14552
898.07	14568
898.19	14575
898.311	14807
898.431	14678
898.552	14739
898.672	14834
898.792	14758
898.913	14777
899.033	14663
899.153	14655
899.273	14552
899.393	14549
899.513	14644
899.633	14655
899.753	14590
899.873	14549
899.993	14621
900.113	14598
900.232	14598
900.352	14621
900.472	14484
900.591	14389
900.711	14480
900.83	14438
900.95	14579
901.069	14476
901.189	14339
901.308	14180
901.427	14031
901.546	14149
901.665	14096
901.784	14142
901.904	14020
902.023	13837
902.141	13788
902.26	13655
902.379	13727
902.498	13700
902.617	13704
902.735	13753
902.854	13700
902.973	13624
903.091	13369
903.21	13400
903.328	13441
903.446	13373
903.565	13179
903.683	13263
903.801	13107
903.919	13126
904.038	13255
904.156	13099
904.274	13137
904.392	13027
904.51	13072
904.627	13031
904.745	13080
904.863	13145
904.981	12886
905.098	12753
905.216	12795
905.334	12768
905.451	12772
905.569	12669
905.686	12886
905.803	12776
905.921	12608
906.038	12646
906.155	12582
906.272	12456
906.389	12460
906.506	12357
906.623	12300
906.74	12372
906.857	12239
906.974	12285
907.091	12346
907.208	12452
907.324	12388
907.441	12281
907.557	12068
907.674	12129
907.79	11958
907.907	12095
908.023	12114
908.139	12030
908.256	12079
908.372	12076
908.488	11954
908.604	11901
908.72	11794
908.836	11863
908.952	11863
909.068	11828
909.184	11954
909.3	11836
909.415	11832
909.531	11863
909.647	11737
909.762	11661
909.878	11592
909.993	11558
910.108	11627
910.224	11509
910.339	11581
910.454	11497
910.57	11436
910.685	11395
910.8	11668
910.915	11630
911.03	11493
911.145	11353
911.259	11216
911.374	11303
911.489	11193
911.604	11136
911.718	11166
911.833	11022
911.947	10995
912.062	10915
912.176	10995
912.291	11006
912.405	10972
912.519	11170
912.633	11269
912.748	11090
912.862	11121
912.976	11006
913.09	10831
913.204	10881
913.318	10984
913.431	11056
913.545	10999
913.659	11067
913.772	11003
913.886	10752
914	10801
914.113	10919
914.226	10991
914.34	10915
914.453	10717
914.566	10866
914.68	10763
914.793	10812
914.906	10615
915.019	10561
915.132	10512
915.245	10573
915.358	10561
915.47	10683
915.583	10523
915.696	10584
915.809	10660
915.921	10733
916.034	10573
916.146	10440
916.259	10478
916.371	10554
916.483	10637
916.595	10455
916.708	10497
916.82	10489
916.932	10470
917.044	10455
917.156	10436
917.268	10352
917.38	10363
917.491	10325
917.603	10481
917.715	10447
917.826	10451
917.938	10375
918.049	10272
918.161	10432
918.272	10481
918.384	10470
918.495	10394
918.606	10265
918.717	10192
918.828	10295
918.939	10295
919.05	10135
919.161	10249
919.272	10112
919.383	10188
919.494	10341
919.604	10497
919.715	10215
919.826	10215
919.936	10188
920.047	10329
920.157	10322
920.267	10436
920.378	10360
920.488	10261
920.598	10474
920.708	10592
920.818	10432
920.928	10398
921.038	10683
921.148	10588
921.258	10261
921.368	10280
921.477	10185
921.587	10090
921.697	10036
921.806	10181
921.916	9945
922.025	9934
922.134	9873
922.244	9789
922.353	9915
922.462	9732
922.571	9698
922.68	9542
922.789	9523
922.898	9469
923.007	9473
923.116	9553
923.224	9481
923.333	9496
923.442	9355
923.55	9378
923.659	9405
923.767	9500
923.876	9336
923.984	9523
924.092	9302
924.201	9401
924.309	9473
924.417	9420
924.525	9431
924.633	9355
924.741	10295
924.849	9173
924.956	9302
925.064	9089
925.172	9074
925.279	9097
925.387	9192
925.494	9161
925.602	9253
925.709	9253
925.816	9127
925.924	9192
926.031	9222
926.138	9241
926.245	9237
926.352	9028
926.459	9192
926.566	9195
926.673	9104
926.779	9104
926.886	9043
926.993	8933
927.099	8796
927.206	8906
927.312	8826
927.419	8906
927.525	8899
927.631	8929
927.737	8815
927.843	8758
927.95	8663
928.056	8735
928.162	8834
928.267	8842
928.373	9454
928.479	8864
928.585	8594
928.69	8739
928.796	8773
928.901	8735
929.007	8537
929.112	8762
929.218	8727
929.323	8564
929.428	8575
929.533	8727
929.638	8579
929.743	8640
929.848	8644
929.953	8602
930.058	8537
930.163	8355
930.267	8336
930.372	8556
930.477	8324
930.581	8533
930.685	8461
930.79	8366
930.894	8370
930.998	8279
931.103	8434
931.207	8054
931.311	8012
931.415	7986
931.519	7856
931.623	7814
