Data from test_V78500241_2454.txt Node
Date: Fri Mar 25 14:50:48 CST 2022
User: usil
Spectrometer: V785-0024
Trigger mode: 0
Integration Time (sec): 4.000000E-1
Scans to average: 1
Nonlinearity correction enabled: false
Boxcar width: 0
Storing dark spectrum: false
XAxis mode: Wavelengths
Number of Pixels in Spectrum: 1024
>>>>>Begin Spectral Data<<<<<
801.071	22226
801.214	22032
801.356	21819
801.499	21618
801.641	21580
801.783	21431
801.926	21458
802.068	21431
802.211	21329
802.353	21249
802.496	21093
802.638	20887
802.78	20830
802.923	20857
803.065	20773
803.208	20708
803.35	20925
803.492	20891
803.635	21024
803.777	20845
803.919	20906
804.061	21230
804.204	20952
804.346	20758
804.488	20686
804.63	20792
804.773	20674
804.915	20629
805.057	20933
805.199	20651
805.341	20796
805.483	20971
805.626	20785
805.768	20716
805.91	20727
806.052	20853
806.194	20602
806.336	20906
806.478	20769
806.62	20781
806.762	20765
806.904	20880
807.046	21096
807.188	21123
807.33	21100
807.472	21062
807.614	20975
807.756	20906
807.898	20826
808.04	20686
808.182	20853
808.324	20849
808.465	20754
808.607	21058
808.749	21077
808.891	21272
809.033	21344
809.174	21222
809.316	20979
809.458	21161
809.6	21051
809.741	21154
809.883	21176
810.025	21283
810.166	21294
810.308	21211
810.45	21135
810.591	21214
810.733	20944
810.875	20956
811.016	20731
811.158	20853
811.299	21005
811.441	21131
811.582	20948
811.724	20971
811.865	20853
812.007	20887
812.148	20948
812.29	20891
812.431	21024
812.573	21268
812.714	21283
812.855	21447
812.997	21469
813.138	21549
813.279	21462
813.421	21294
813.562	21279
813.703	21169
813.845	20914
813.986	20712
814.127	20636
814.268	20499
814.41	20530
814.551	20427
814.692	20530
814.833	20355
814.974	20328
815.115	20423
815.256	20332
815.397	20267
815.539	20237
815.68	20096
815.821	20149
815.962	20100
816.103	20088
816.244	19997
816.385	19955
816.526	19879
816.666	19811
816.807	19616
816.948	19693
817.089	19696
817.23	19605
817.371	19582
817.512	19529
817.653	19438
817.793	19499
817.934	19571
818.075	19578
818.216	19567
818.356	19502
818.497	19419
818.638	19327
818.778	19228
818.919	19179
819.06	19244
819.2	19289
819.341	19411
819.481	19384
819.622	19719
819.762	19822
819.903	19651
820.043	19613
820.184	19521
820.324	19487
820.465	19655
820.605	19624
820.746	19483
820.886	19381
821.026	19495
821.167	19415
821.307	19594
821.447	19362
821.588	19422
821.728	19228
821.868	18981
822.008	18844
822.149	18966
822.289	18867
822.429	18707
822.569	18623
822.709	18677
822.849	18433
822.99	18445
823.13	18403
823.27	18395
823.41	18270
823.55	18117
823.69	18201
823.83	18167
823.97	18201
824.11	18060
824.25	17988
824.389	17969
824.529	18011
824.669	17996
824.809	17958
824.949	18106
825.089	18041
825.228	18019
825.368	17855
825.508	17695
825.648	17977
825.787	17874
825.927	17863
826.067	17592
826.206	17737
826.346	17737
826.485	17695
826.625	17847
826.765	17878
826.904	17752
827.044	17551
827.183	17425
827.323	17353
827.462	17596
827.601	17433
827.741	17539
827.88	17558
828.02	17478
828.159	17395
828.298	17455
828.437	17471
828.577	17391
828.716	17703
828.855	17406
828.994	17280
829.134	17227
829.273	17208
829.412	17212
829.551	17045
829.69	17208
829.829	17239
829.968	17337
830.107	17387
830.246	17170
830.385	17208
830.524	17033
830.663	17033
830.802	16900
830.941	16904
831.08	16805
831.219	16869
831.357	16930
831.496	17109
831.635	16862
831.774	16778
831.913	16717
832.051	16713
832.19	16611
832.329	16641
832.467	16538
832.606	16523
832.744	16497
832.883	16497
833.022	16451
833.16	16523
833.299	16459
833.437	16485
833.576	16649
833.714	16622
833.852	16550
833.991	16558
834.129	16599
834.267	16683
834.406	16554
834.544	16679
834.682	16649
834.821	16527
834.959	16778
835.097	16546
835.235	16588
835.373	16649
835.511	16527
835.65	16451
835.788	16424
835.926	16314
836.064	16219
836.202	16379
836.34	16546
836.478	16558
836.615	16538
836.753	16447
836.891	16565
837.029	16580
837.167	16405
837.305	16371
837.443	16337
837.58	16306
837.718	16394
837.856	16390
837.993	16238
838.131	16314
838.269	16246
838.406	16276
838.544	16169
838.681	16067
838.819	16082
838.956	15918
839.094	15899
839.231	15937
839.369	16029
839.506	16246
839.643	16124
839.781	15861
839.918	15873
840.055	15827
840.193	15884
840.33	15907
840.467	15895
840.604	15949
840.742	16207
840.879	15732
841.016	15819
841.153	15808
841.29	16048
841.427	15926
841.564	15865
841.701	15895
841.838	15956
841.975	15804
842.112	15690
842.249	15808
842.385	15736
842.522	15827
842.659	15774
842.796	15625
842.933	15610
843.069	15671
843.206	15690
843.343	15663
843.479	15618
843.616	15660
843.752	15458
843.889	15397
844.025	15690
844.162	15473
844.298	15713
844.435	15386
844.571	15344
844.708	15435
844.844	15572
844.98	15595
845.117	15572
845.253	15367
845.389	15302
845.525	15389
845.661	15412
845.798	15237
845.934	15313
846.07	15127
846.206	15317
846.342	15428
846.478	15256
846.614	15028
846.75	14967
846.886	15077
847.022	15104
847.158	14967
847.294	15032
847.429	15005
847.565	15013
847.701	15203
847.837	14788
847.972	14697
848.108	14925
848.244	14861
848.379	14571
848.515	14590
848.65	14564
848.786	14644
848.921	14575
849.057	14686
849.192	14686
849.328	14674
849.463	14617
849.598	14480
849.734	14636
849.869	14431
850.004	14374
850.14	14518
850.275	14370
850.41	14400
850.545	14336
850.68	14362
850.815	14434
850.95	14377
851.085	14590
851.22	14488
851.355	14393
851.49	14336
851.625	14347
851.76	14377
851.895	14294
852.03	14366
852.165	14370
852.299	14431
852.434	14511
852.569	14488
852.703	14336
852.838	14526
852.973	14514
853.107	14499
853.242	14252
853.376	14256
853.511	14069
853.645	14248
853.78	14389
853.914	14336
854.048	14252
854.183	14282
854.317	14271
854.451	14431
854.585	14305
854.72	14187
854.854	14256
854.988	14290
855.122	14233
855.256	14138
855.39	14278
855.524	14339
855.658	14362
855.792	14248
855.926	14206
856.06	14298
856.194	14396
856.327	14248
856.461	14176
856.595	14202
856.729	14176
856.862	14332
856.996	14320
857.13	14313
857.263	14362
857.397	14412
857.53	14362
857.664	14309
857.797	14305
857.931	14503
858.064	14248
858.197	14328
858.331	14290
858.464	14263
858.597	14248
858.731	14259
858.864	14275
858.997	14172
859.13	14294
859.263	14271
859.396	14313
859.529	14214
859.662	14172
859.795	14240
859.928	14351
860.061	14469
860.194	14320
860.327	14332
860.46	14275
860.592	14480
860.725	14366
860.858	14495
860.99	14278
861.123	14176
861.256	14313
861.388	14259
861.521	14781
861.653	14221
861.786	14081
861.918	14054
862.05	14248
862.183	14214
862.315	14206
862.447	14305
862.58	14202
862.712	14031
862.844	13989
862.976	14149
863.108	14103
863.24	14442
863.372	13963
863.504	13959
863.636	14039
863.768	14035
863.9	13993
864.032	14035
864.164	14020
864.296	14153
864.428	14149
864.559	14043
864.691	14149
864.823	14065
864.954	14084
865.086	14077
865.217	13997
865.349	13928
865.48	14024
865.612	14092
865.743	14164
865.875	14043
866.006	13932
866.137	14024
866.269	14043
866.4	14001
866.531	14012
866.662	13993
866.793	13974
866.924	13921
867.055	14153
867.186	14062
867.317	13978
867.448	13986
867.579	13986
867.71	13868
867.841	13879
867.972	14046
868.103	14081
868.233	14046
868.364	13982
868.495	14103
868.625	14332
868.756	14351
868.886	14164
869.017	14199
869.147	14389
869.278	14438
869.408	14229
869.539	14275
869.669	14415
869.799	14282
869.929	14362
870.06	14404
870.19	14621
870.32	14560
870.45	14667
870.58	14667
870.71	14804
870.84	14815
870.97	14750
871.1	14743
871.23	14918
871.36	14819
871.489	14785
871.619	14788
871.749	14944
871.879	14899
872.008	14929
872.138	14864
872.267	14876
872.397	14807
872.526	14640
872.656	14674
872.785	14670
872.915	14937
873.044	14990
873.173	14956
873.303	14994
873.432	15001
873.561	14967
873.69	14998
873.819	14967
873.948	15131
874.077	14925
874.206	14861
874.335	14941
874.464	15142
874.593	15214
874.722	15211
874.851	15355
874.979	15401
875.108	15260
875.237	15256
875.365	15207
875.494	15176
875.623	15302
875.751	15135
875.88	15340
876.008	15447
876.136	15458
876.265	15679
876.393	15804
876.521	15732
876.65	15774
876.778	15720
876.906	15553
877.034	15682
877.162	15644
877.29	15542
877.418	15606
877.546	15644
877.674	15557
877.802	15720
877.93	15606
878.058	15637
878.185	15549
878.313	15641
878.441	15671
878.568	15515
878.696	15542
878.824	15671
878.951	15819
879.079	15880
879.206	15983
879.333	15838
879.461	15686
879.588	15857
879.715	15781
879.842	15994
879.97	15747
880.097	15488
880.224	15439
880.351	15545
880.478	15564
880.605	15496
880.732	15496
880.859	15774
880.986	15435
881.112	15564
881.239	15397
881.366	15241
881.493	15264
881.619	15138
881.746	15203
881.872	15142
881.999	15104
882.125	15211
882.252	15116
882.378	15230
882.505	15351
882.631	15066
882.757	14872
882.883	14956
883.01	15009
883.136	14994
883.262	14861
883.388	14785
883.514	14914
883.64	14986
883.766	14895
883.892	14796
884.018	14883
884.143	14986
884.269	15001
884.395	14769
884.52	14743
884.646	14644
884.772	14537
884.897	14625
885.023	14773
885.148	14876
885.274	14956
885.399	14762
885.524	14705
885.65	14670
885.775	14727
885.9	14640
886.025	14819
886.15	14659
886.275	14575
886.4	14552
886.525	14655
886.65	14678
886.775	14602
886.9	14792
887.025	14868
887.149	14712
887.274	14511
887.399	14575
887.523	14545
887.648	14324
887.773	14415
887.897	14556
888.021	14518
888.146	14499
888.27	14659
888.395	14632
888.519	14530
888.643	14503
888.767	14648
888.891	14389
889.015	14381
889.139	14370
889.263	14358
889.387	14381
889.511	14632
889.635	14495
889.759	14305
889.883	14362
890.006	14412
890.13	14488
890.254	14263
890.377	14290
890.501	14202
890.624	14077
890.748	14225
890.871	14130
890.995	14092
891.118	14012
891.241	14088
891.364	14111
891.488	14206
891.611	14088
891.734	14069
891.857	14084
891.98	14142
892.103	14138
892.226	14111
892.349	14081
892.471	13951
892.594	14027
892.717	14092
892.839	14001
892.962	14065
893.085	14145
893.207	14020
893.33	14020
893.452	14062
893.575	14199
893.697	14043
893.819	14229
893.941	14347
894.064	14294
894.186	14107
894.308	14103
894.43	14157
894.552	14328
894.674	14199
894.796	14088
894.918	14088
895.04	14183
895.161	14256
895.283	14210
895.405	14130
895.526	14134
895.648	14210
895.769	14187
895.891	14320
896.012	14419
896.134	14294
896.255	14259
896.376	14157
896.498	14202
896.619	14271
896.74	14275
896.861	14305
896.982	14594
897.103	14842
897.224	14511
897.345	14541
897.466	14480
897.587	14457
897.708	14613
897.828	14560
897.949	14461
898.07	14320
898.19	14514
898.311	14686
898.431	14518
898.552	14587
898.672	14686
898.792	14701
898.913	14682
899.033	14564
899.153	14385
899.273	14355
899.393	14484
899.513	14492
899.633	14507
899.753	14522
899.873	14450
899.993	14537
900.113	14404
900.232	14541
900.352	14423
900.472	14400
900.591	14336
900.711	14400
900.83	14377
900.95	14511
901.069	14423
901.189	14282
901.308	14138
901.427	14016
901.546	14016
901.665	13913
901.784	14043
901.904	13909
902.023	13799
902.141	13639
902.26	13666
902.379	13708
902.498	13575
902.617	13540
902.735	13537
902.854	13487
902.973	13559
903.091	13263
903.21	13293
903.328	13369
903.446	13175
903.565	13103
903.683	13171
903.801	13031
903.919	13183
904.038	13091
904.156	12932
904.274	13038
904.392	12958
904.51	12943
904.627	12890
904.745	13031
904.863	12981
904.981	12654
905.098	12589
905.216	12631
905.334	12703
905.451	12654
905.569	12658
905.686	12658
905.803	12696
905.921	12494
906.038	12563
906.155	12414
906.272	12323
906.389	12365
906.506	12254
906.623	12247
906.74	12228
906.857	12121
906.974	12098
907.091	12254
907.208	12403
907.324	12258
907.441	12110
907.557	12068
907.674	12019
907.79	11935
907.907	11927
908.023	11984
908.139	11935
908.256	11916
908.372	11965
908.488	11878
908.604	11752
908.72	11733
908.836	11828
908.952	11657
909.068	11748
909.184	11790
909.3	11809
909.415	11855
909.531	11764
909.647	11482
909.762	11524
909.878	11573
909.993	11570
910.108	11512
910.224	11482
910.339	11467
910.454	11455
910.57	11345
910.685	11307
910.8	11570
910.915	11440
911.03	11448
911.145	11143
911.259	11189
911.374	11174
911.489	11181
911.604	11117
911.718	10965
911.833	10915
911.947	10915
912.062	10797
912.176	11018
912.291	11025
912.405	10892
912.519	11147
912.633	11166
912.748	10999
912.862	10965
912.976	10858
913.09	10717
913.204	10801
913.318	10862
913.431	10953
913.545	10915
913.659	10980
913.772	10946
913.886	10698
914	10675
914.113	10839
914.226	10911
914.34	10869
914.453	10615
914.566	10797
914.68	10687
914.793	10618
914.906	10535
915.019	10424
915.132	10284
915.245	10485
915.358	10527
915.47	10462
915.583	10512
915.696	10500
915.809	10660
915.921	10577
916.034	10455
916.146	10417
916.259	10394
916.371	10588
916.483	10489
916.595	10360
916.708	10447
916.82	10413
916.932	10432
917.044	10371
917.156	10360
917.268	10249
917.38	10257
917.491	10265
917.603	10371
917.715	10348
917.826	10402
917.938	10227
918.049	10234
918.161	10268
918.272	10478
918.384	10424
918.495	10402
918.606	10204
918.717	10150
918.828	10204
918.939	10177
919.05	10181
919.161	10185
919.272	9968
919.383	10002
919.494	10192
919.604	10371
919.715	10268
919.826	10044
919.936	10150
920.047	10295
920.157	10219
920.267	10424
920.378	10230
920.488	10211
920.598	10447
920.708	10596
920.818	10417
920.928	10390
921.038	10508
921.148	10546
921.258	10223
921.368	10230
921.477	10067
921.587	10074
921.697	9922
921.806	10074
921.916	9903
922.025	9865
922.134	9785
922.244	9720
922.353	9793
922.462	9648
922.571	9610
922.68	9481
922.789	9450
922.898	9462
923.007	9428
923.116	9443
923.224	9466
923.333	9431
923.442	9359
923.55	9256
923.659	9405
923.767	9439
923.876	9237
923.984	9454
924.092	9256
924.201	9359
924.309	9310
924.417	9275
924.525	9226
924.633	9207
924.741	9979
924.849	9165
924.956	9226
925.064	9074
925.172	9032
925.279	9085
925.387	9218
925.494	9077
925.602	9283
925.709	9154
925.816	9032
925.924	9112
926.031	9150
926.138	9150
926.245	9165
926.352	9001
926.459	9203
926.566	9161
926.673	9020
926.779	9017
926.886	8941
926.993	8815
927.099	8800
927.206	8750
927.312	8811
927.419	8918
927.525	8796
927.631	8811
927.737	8781
927.843	8750
927.95	8606
928.056	8682
928.162	8629
928.267	8769
928.373	9405
928.479	8823
928.585	8568
928.69	8682
928.796	8720
928.901	8621
929.007	8473
929.112	8590
929.218	8610
929.323	8560
929.428	8518
929.533	8632
929.638	8499
929.743	8495
929.848	8571
929.953	8484
930.058	8427
930.163	8370
930.267	8339
930.372	8434
930.477	8244
930.581	8530
930.685	8400
930.79	8233
930.894	8290
930.998	8244
931.103	8427
931.207	8001
931.311	8039
931.415	7944
931.519	7746
931.623	7776
