Data from test_V78500241_534.txt Node
Date: Fri Mar 25 14:37:26 CST 2022
User: usil
Spectrometer: V785-0024
Trigger mode: 0
Integration Time (sec): 4.000000E-1
Scans to average: 1
Nonlinearity correction enabled: false
Boxcar width: 0
Storing dark spectrum: false
XAxis mode: Wavelengths
Number of Pixels in Spectrum: 1024
>>>>>Begin Spectral Data<<<<<
801.071	27424
801.214	27150
801.356	26914
801.499	26868
801.641	26678
801.783	26842
801.926	26895
802.068	26743
802.211	26598
802.353	26579
802.496	26298
802.638	26271
802.78	26199
802.923	26309
803.065	26050
803.208	26214
803.35	26199
803.492	26233
803.635	26324
803.777	26252
803.919	26351
804.061	26606
804.204	26400
804.346	26240
804.488	26103
804.63	26176
804.773	26176
804.915	26336
805.057	26362
805.199	26385
805.341	26370
805.483	26545
805.626	26419
805.768	26351
805.91	26507
806.052	26533
806.194	26476
806.336	26762
806.478	26651
806.62	26651
806.762	26967
806.904	27108
807.046	27370
807.188	27488
807.33	27561
807.472	27732
807.614	27953
807.756	28150
807.898	28470
808.04	28911
808.182	29440
808.324	30254
808.465	31316
808.607	32233
808.749	33112
808.891	33701
809.033	33793
809.174	33055
809.316	32100
809.458	31141
809.6	30148
809.741	29341
809.883	28847
810.025	28694
810.166	28257
810.308	27953
810.45	27690
810.591	27652
810.733	27218
810.875	27142
811.016	26963
811.158	27039
811.299	27043
811.441	27123
811.582	26883
811.724	26804
811.865	26750
812.007	26705
812.148	26606
812.29	26712
812.431	26823
812.573	26979
812.714	27005
812.855	27085
812.997	27233
813.138	27332
813.279	27116
813.421	27214
813.562	26891
813.703	26830
813.845	26651
813.986	26218
814.127	26309
814.268	26103
814.41	26161
814.551	26103
814.692	26168
814.833	25955
814.974	25997
815.115	25966
815.256	25875
815.397	25913
815.539	25879
815.68	25742
815.821	25597
815.962	25624
816.103	25696
816.244	25495
816.385	25392
816.526	25346
816.666	25129
816.807	25183
816.948	25164
817.089	25225
817.23	25110
817.371	25122
817.512	25072
817.653	24939
817.793	25099
817.934	24924
818.075	24992
818.216	25038
818.356	24981
818.497	24894
818.638	24719
818.778	24677
818.919	24882
819.06	24817
819.2	24821
819.341	24943
819.481	25012
819.622	25099
819.762	25362
819.903	25118
820.043	25072
820.184	25034
820.324	25080
820.465	25114
820.605	25057
820.746	24973
820.886	24913
821.026	24901
821.167	24894
821.307	24966
821.447	24871
821.588	24730
821.728	24555
821.868	24429
822.008	24319
822.149	24258
822.289	24311
822.429	23927
822.569	23931
822.709	24038
822.849	23718
822.99	23779
823.13	23600
823.27	23707
823.41	23501
823.55	23551
823.69	23509
823.83	23474
823.97	23452
824.11	23212
824.25	23330
824.389	23258
824.529	23402
824.669	23288
824.809	23360
824.949	23383
825.089	23303
825.228	23223
825.368	23216
825.508	23102
825.648	23029
825.787	23136
825.927	23079
826.067	23025
826.206	23147
826.346	23113
826.485	23140
826.625	23037
826.765	23284
826.904	23136
827.044	22786
827.183	22778
827.323	22584
827.462	22660
827.601	22816
827.741	22702
827.88	22774
828.02	22622
828.159	22778
828.298	22736
828.437	22759
828.577	22691
828.716	22812
828.855	22706
828.994	22497
829.134	22485
829.273	22489
829.412	22268
829.551	22367
829.69	22402
829.829	22417
829.968	22516
830.107	22447
830.246	22386
830.385	22261
830.524	22150
830.663	22261
830.802	22112
830.941	21979
831.08	21953
831.219	22078
831.357	22105
831.496	22143
831.635	21876
831.774	21770
831.913	21903
832.051	21720
832.19	21861
832.329	21720
832.467	21648
832.606	21675
832.744	21583
832.883	21762
833.022	21701
833.16	21850
833.299	21888
833.437	21880
833.576	21934
833.714	21907
833.852	22040
833.991	22055
834.129	22147
834.267	22044
834.406	21945
834.544	22044
834.682	21930
834.821	22036
834.959	22013
835.097	21789
835.235	21812
835.373	21823
835.511	21785
835.65	21542
835.788	21580
835.926	21420
836.064	21370
836.202	21378
836.34	21447
836.478	21553
836.615	21504
836.753	21553
836.891	21530
837.029	21564
837.167	21428
837.305	21439
837.443	21355
837.58	21302
837.718	21393
837.856	21344
837.993	21302
838.131	21173
838.269	21062
838.406	21142
838.544	21222
838.681	20910
838.819	20921
838.956	20712
839.094	20746
839.231	20716
839.369	20944
839.506	21116
839.643	20967
839.781	20598
839.918	20670
840.055	20705
840.193	20762
840.33	20678
840.467	20667
840.604	20765
840.742	20876
840.879	20731
841.016	20560
841.153	20571
841.29	20735
841.427	20606
841.564	20693
841.701	20667
841.838	20648
841.975	20526
842.112	20454
842.249	20381
842.385	20419
842.522	20590
842.659	20396
842.796	20343
842.933	20488
843.069	20454
843.206	20476
843.343	20522
843.479	20358
843.616	20476
843.752	20298
843.889	20263
844.025	20351
844.162	20176
844.298	20404
844.435	20366
844.571	20370
844.708	20613
844.844	20724
844.98	20678
845.117	21058
845.253	21199
845.389	21485
845.525	22512
845.661	24292
845.798	26324
845.934	27838
846.07	28443
846.206	28295
846.342	27127
846.478	24924
846.614	22976
846.75	21728
846.886	21146
847.022	20682
847.158	20336
847.294	20195
847.429	20058
847.565	19890
847.701	20096
847.837	19590
847.972	19590
848.108	19578
848.244	19613
848.379	19365
848.515	19266
848.65	19274
848.786	19297
848.921	19278
849.057	19396
849.192	19468
849.328	19282
849.463	19148
849.598	19213
849.734	19069
849.869	19156
850.004	18924
850.14	19072
850.275	19053
850.41	18776
850.545	18951
850.68	18871
850.815	18958
850.95	18875
851.085	19050
851.22	19110
851.355	19015
851.49	18859
851.625	18810
851.76	18958
851.895	18840
852.03	18916
852.165	18973
852.299	18871
852.434	19053
852.569	18913
852.703	19053
852.838	19050
852.973	19122
853.107	19050
853.242	18863
853.376	18848
853.511	18726
853.645	18882
853.78	18981
853.914	18939
854.048	18932
854.183	18909
854.317	18875
854.451	19050
854.585	18863
854.72	18947
854.854	18932
854.988	18863
855.122	18859
855.256	18696
855.39	18825
855.524	18840
855.658	18837
855.792	18886
855.926	18837
856.06	18909
856.194	18882
856.327	18722
856.461	18795
856.595	18646
856.729	18753
856.862	18901
856.996	18677
857.13	18817
857.263	18867
857.397	18863
857.53	18623
857.664	18783
857.797	18787
857.931	18802
858.064	18730
858.197	18783
858.331	18715
858.464	18768
858.597	18635
858.731	18677
858.864	18604
858.997	18669
859.13	18650
859.263	18722
859.396	18844
859.529	18760
859.662	18719
859.795	18688
859.928	18646
860.061	18730
860.194	18829
860.327	18722
860.46	18635
860.592	18738
860.725	18795
860.858	18795
860.99	18776
861.123	18627
861.256	18574
861.388	18669
861.521	19510
861.653	18555
861.786	18528
861.918	18486
862.05	18589
862.183	18719
862.315	18604
862.447	18738
862.58	18623
862.712	18407
862.844	18391
862.976	18441
863.108	18384
863.24	18863
863.372	18418
863.504	18323
863.636	18429
863.768	18426
863.9	18323
864.032	18311
864.164	18350
864.296	18422
864.428	18479
864.559	18486
864.691	18490
864.823	18410
864.954	18361
865.086	18338
865.217	18388
865.349	18254
865.48	18277
865.612	18353
865.743	18426
865.875	18376
866.006	18277
866.137	18273
866.269	18361
866.4	18277
866.531	18311
866.662	18254
866.793	18194
866.924	18216
867.055	18254
867.186	18266
867.317	18277
867.448	18190
867.579	18152
867.71	18129
867.841	18216
867.972	18235
868.103	18308
868.233	18315
868.364	18311
868.495	18361
868.625	18464
868.756	18555
868.886	18330
869.017	18494
869.147	18665
869.278	18627
869.408	18528
869.539	18513
869.669	18525
869.799	18517
869.929	18631
870.06	18566
870.19	18856
870.32	18783
870.45	18768
870.58	18814
870.71	18993
870.84	18913
870.97	18913
871.1	18924
871.23	19118
871.36	19133
871.489	18966
871.619	19072
871.749	18993
871.879	19099
872.008	19206
872.138	19160
872.267	19072
872.397	18981
872.526	18905
872.656	18981
872.785	19008
872.915	19244
873.044	19228
873.173	19228
873.303	19285
873.432	19164
873.561	19343
873.69	19206
873.819	19183
873.948	19327
874.077	19175
874.206	19141
874.335	19270
874.464	19453
874.593	19453
874.722	19407
874.851	19605
874.979	19605
875.108	19533
875.237	19616
875.365	19499
875.494	19525
875.623	19655
875.751	19613
875.88	19655
876.008	19746
876.136	19925
876.265	20020
876.393	20199
876.521	20084
876.65	20126
876.778	20035
876.906	20069
877.034	20077
877.162	20202
877.29	20126
877.418	20206
877.546	20237
877.674	20153
877.802	20267
877.93	20309
878.058	20400
878.185	20385
878.313	20606
878.441	20720
878.568	20632
878.696	20815
878.824	21123
878.951	21481
879.079	22063
879.206	22771
879.333	23368
879.461	23874
879.588	24251
879.715	24144
879.842	24171
879.97	23387
880.097	22519
880.224	22097
880.351	21561
880.478	21275
880.605	21180
880.732	20975
880.859	21214
880.986	20998
881.112	20800
881.239	20777
881.366	20663
881.493	20594
881.619	20434
881.746	20606
881.872	20473
881.999	20495
882.125	20446
882.252	20617
882.378	20549
882.505	20644
882.631	20545
882.757	20415
882.883	20480
883.01	20347
883.136	20389
883.262	20214
883.388	20202
883.514	20347
883.64	20358
883.766	20271
883.892	20138
884.018	20172
884.143	20256
884.269	20309
884.395	20043
884.52	19902
884.646	19936
884.772	19909
884.897	19936
885.023	20069
885.148	20088
885.274	20122
885.399	20142
885.524	19761
885.65	19944
885.775	19894
885.9	19780
886.025	19791
886.15	19750
886.275	19525
886.4	19586
886.525	19544
886.65	19415
886.775	19514
886.9	19609
887.025	19708
887.149	19430
887.274	19289
887.399	19187
887.523	19145
887.648	18966
887.773	18989
887.897	19232
888.021	19156
888.146	19084
888.27	19156
888.395	19179
888.519	19084
888.643	19038
888.767	19099
888.891	18829
889.015	18726
889.139	18878
889.263	18783
889.387	18821
889.511	18886
889.635	18791
889.759	18711
889.883	18696
890.006	18726
890.13	18749
890.254	18559
890.377	18551
890.501	18528
890.624	18369
890.748	18418
890.871	18292
890.995	18254
891.118	18125
891.241	18224
891.364	18247
891.488	18197
891.611	18095
891.734	18216
891.857	18285
891.98	18262
892.103	18129
892.226	18239
892.349	18155
892.471	17977
892.594	18083
892.717	18117
892.839	18053
892.962	18053
893.085	18110
893.207	17969
893.33	18003
893.452	18011
893.575	18053
893.697	18015
893.819	18121
893.941	18201
894.064	18209
894.186	17946
894.308	17878
894.43	18007
894.552	18091
894.674	18041
894.796	17901
894.918	17901
895.04	18019
895.161	18034
895.283	18026
895.405	17939
895.526	17904
895.648	17988
895.769	17916
895.891	18026
896.012	18049
896.134	17946
896.255	17958
896.376	18011
896.498	17908
896.619	18079
896.74	18003
896.861	17988
896.982	18388
897.103	18490
897.224	18334
897.345	18091
897.466	18155
897.587	18167
897.708	18346
897.828	18262
897.949	18171
898.07	18072
898.19	18140
898.311	18220
898.431	18144
898.552	18171
898.672	18323
898.792	18300
898.913	18194
899.033	18148
899.153	17996
899.273	17908
899.393	17904
899.513	17946
899.633	17889
899.753	18079
899.873	17927
899.993	17946
900.113	17901
900.232	17942
900.352	17809
900.472	17920
900.591	17779
900.711	17817
900.83	17680
900.95	17973
901.069	17939
901.189	17687
901.308	17501
901.427	17501
901.546	17440
901.665	17406
901.784	17425
901.904	17379
902.023	17200
902.141	16930
902.26	16923
902.379	17124
902.498	16927
902.617	16889
902.735	16869
902.854	16915
902.973	16831
903.091	16645
903.21	16538
903.328	16622
903.446	16443
903.565	16455
903.683	16402
903.801	16333
903.919	16261
904.038	16284
904.156	16162
904.274	16200
904.392	16105
904.51	16223
904.627	16150
904.745	16169
904.863	16230
904.981	15907
905.098	15922
905.216	15819
905.334	15861
905.451	15888
905.569	15861
905.686	15751
905.803	15686
905.921	15614
906.038	15736
906.155	15656
906.272	15393
906.389	15428
906.506	15321
906.623	15294
906.74	15279
906.857	15252
906.974	15203
907.091	15336
907.208	15435
907.324	15336
907.441	15203
907.557	15005
907.674	14975
907.79	14956
907.907	15005
908.023	14971
908.139	14998
908.256	14899
908.372	14933
908.488	14834
908.604	14823
908.72	14689
908.836	14613
908.952	14701
909.068	14750
909.184	14918
909.3	14663
909.415	14693
909.531	14689
909.647	14533
909.762	14419
909.878	14419
909.993	14507
910.108	14339
910.224	14404
910.339	14511
910.454	14313
910.57	14286
910.685	14176
910.8	14526
910.915	14476
911.03	14263
911.145	14077
911.259	14027
911.374	14077
911.489	14024
911.604	14024
911.718	13868
911.833	13841
911.947	13715
912.062	13693
912.176	13776
912.291	13814
912.405	13795
912.519	13925
912.633	13989
912.748	13803
912.862	13845
912.976	13563
913.09	13403
913.204	13605
913.318	13578
913.431	13658
913.545	13708
913.659	13769
913.772	13700
913.886	13499
914	13407
914.113	13563
914.226	13636
914.34	13529
914.453	13403
914.566	13533
914.68	13422
914.793	13403
914.906	13240
915.019	13133
915.132	13152
915.245	13168
915.358	13168
915.47	13164
915.583	13168
915.696	13278
915.809	13156
915.921	13282
916.034	13133
916.146	13038
916.259	13015
916.371	13149
916.483	13168
916.595	13061
916.708	12973
916.82	13034
916.932	12977
917.044	13008
917.156	12993
917.268	12867
917.38	12856
917.491	12814
917.603	12810
917.715	12985
917.826	12875
917.938	12768
918.049	12726
918.161	12890
918.272	12890
918.384	13034
918.495	12871
918.606	12711
918.717	12589
918.828	12681
918.939	12703
919.05	12620
919.161	12650
919.272	12399
919.383	12551
919.494	12741
919.604	12810
919.715	12650
919.826	12513
919.936	12589
920.047	12665
920.157	12582
920.267	12833
920.378	12608
920.488	12639
920.598	12806
920.708	12993
920.818	12741
920.928	12738
921.038	12966
921.148	12863
921.258	12608
921.368	12460
921.477	12342
921.587	12407
921.697	12296
921.806	12407
921.916	12201
922.025	12102
922.134	12068
922.244	12053
922.353	12041
922.462	11942
922.571	11855
922.68	11794
922.789	11634
922.898	11619
923.007	11638
923.116	11752
923.224	11745
923.333	11771
923.442	11665
923.55	11581
923.659	11566
923.767	11649
923.876	11551
923.984	11551
924.092	11410
924.201	11566
924.309	11520
924.417	11509
924.525	11410
924.633	11493
924.741	12216
924.849	11261
924.956	11436
925.064	11261
925.172	11121
925.279	11235
925.387	11261
925.494	11254
925.602	11353
925.709	11231
925.816	11204
925.924	11132
926.031	11269
926.138	11216
926.245	11239
926.352	11147
926.459	11315
926.566	11258
926.673	11105
926.779	11033
926.886	11056
926.993	10908
927.099	10831
927.206	10866
927.312	10866
927.419	10839
927.525	10843
927.631	10961
927.737	10763
927.843	10759
927.95	10660
928.056	10710
928.162	10679
928.267	10759
928.373	11345
928.479	10748
928.585	10599
928.69	10679
928.796	10729
928.901	10577
929.007	10470
929.112	10721
929.218	10558
929.323	10497
929.428	10459
929.533	10626
929.638	10470
929.743	10436
929.848	10413
929.953	10459
930.058	10428
930.163	10238
930.267	10173
930.372	10417
930.477	10200
930.581	10379
930.685	10257
930.79	10105
930.894	10040
930.998	10051
931.103	10230
931.207	9804
931.311	9816
931.415	9759
931.519	9504
931.623	9515
