Data from test_V78500241_1141.txt Node
Date: Fri Mar 25 14:41:39 CST 2022
User: usil
Spectrometer: V785-0024
Trigger mode: 0
Integration Time (sec): 4.000000E-1
Scans to average: 1
Nonlinearity correction enabled: false
Boxcar width: 0
Storing dark spectrum: false
XAxis mode: Wavelengths
Number of Pixels in Spectrum: 1024
>>>>>Begin Spectral Data<<<<<
801.071	22588
801.214	22519
801.356	22253
801.499	22124
801.641	21991
801.783	21895
801.926	21899
802.068	21884
802.211	21816
802.353	21804
802.496	21481
802.638	21412
802.78	21374
802.923	21344
803.065	21340
803.208	21279
803.35	21332
803.492	21344
803.635	21454
803.777	21252
803.919	21256
804.061	21576
804.204	21332
804.346	21131
804.488	21199
804.63	21199
804.773	21135
804.915	21249
805.057	21325
805.199	21173
805.341	21199
805.483	21382
805.626	21317
805.768	21112
805.91	21100
806.052	21214
806.194	21180
806.336	21287
806.478	21203
806.62	21306
806.762	21192
806.904	21416
807.046	21610
807.188	21633
807.33	21603
807.472	21458
807.614	21401
807.756	21606
807.898	21538
808.04	21447
808.182	21386
808.324	21439
808.465	21405
808.607	21679
808.749	21865
808.891	21857
809.033	22105
809.174	21899
809.316	21728
809.458	21766
809.6	21644
809.741	21827
809.883	21713
810.025	21816
810.166	21743
810.308	21869
810.45	21766
810.591	21614
810.733	21622
810.875	21431
811.016	21260
811.158	21302
811.299	21428
811.441	21424
811.582	21549
811.724	21424
811.865	21397
812.007	21405
812.148	21359
812.29	21450
812.431	21561
812.573	21629
812.714	21797
812.855	21911
812.997	21975
813.138	22120
813.279	21956
813.421	21892
813.562	21854
813.703	21660
813.845	21591
813.986	21363
814.127	21070
814.268	21020
814.41	21005
814.551	20921
814.692	21001
814.833	20914
814.974	20925
815.115	20807
815.256	20716
815.397	20788
815.539	20746
815.68	20667
815.821	20629
815.962	20552
816.103	20541
816.244	20522
816.385	20454
816.526	20495
816.666	20355
816.807	20016
816.948	20115
817.089	20244
817.23	20043
817.371	20084
817.512	20050
817.653	19986
817.793	20001
817.934	20153
818.075	20157
818.216	20157
818.356	19970
818.497	19909
818.638	19700
818.778	19814
818.919	19803
819.06	19852
819.2	19906
819.341	19887
819.481	19955
819.622	20111
819.762	20317
819.903	20229
820.043	20088
820.184	20153
820.324	20062
820.465	20176
820.605	20153
820.746	20046
820.886	19868
821.026	20046
821.167	20020
821.307	20100
821.447	19959
821.588	20001
821.728	19807
821.868	19559
822.008	19518
822.149	19559
822.289	19552
822.429	19308
822.569	19164
822.709	19126
822.849	19050
822.99	18981
823.13	18890
823.27	18806
823.41	18715
823.55	18745
823.69	18734
823.83	18787
823.97	18791
824.11	18608
824.25	18437
824.389	18528
824.529	18650
824.669	18585
824.809	18681
824.949	18711
825.089	18639
825.228	18612
825.368	18372
825.508	18395
825.648	18353
825.787	18422
825.927	18426
826.067	18258
826.206	18182
826.346	18308
826.485	18380
826.625	18338
826.765	18445
826.904	18369
827.044	18125
827.183	18076
827.323	18106
827.462	18121
827.601	18011
827.741	17965
827.88	18091
828.02	17889
828.159	18072
828.298	18022
828.437	18083
828.577	17920
828.716	18121
828.855	17863
828.994	17756
829.134	17764
829.273	17866
829.412	17760
829.551	17786
829.69	17752
829.829	17817
829.968	17851
830.107	17946
830.246	17798
830.385	17676
830.524	17695
830.663	17646
830.802	17592
830.941	17353
831.08	17349
831.219	17455
831.357	17391
831.496	17539
831.635	17383
831.774	17391
831.913	17265
832.051	17265
832.19	17147
832.329	17307
832.467	17189
832.606	17045
832.744	17003
832.883	17060
833.022	17067
833.16	17067
833.299	17083
833.437	17151
833.576	17220
833.714	17117
833.852	17212
833.991	17223
834.129	17376
834.267	17178
834.406	17231
834.544	17299
834.682	17185
834.821	17162
834.959	17254
835.097	17189
835.235	17391
835.373	17189
835.511	17216
835.65	17037
835.788	17109
835.926	16972
836.064	16850
836.202	16900
836.34	17071
836.478	17121
836.615	16991
836.753	17151
836.891	17204
837.029	17102
837.167	17117
837.305	16919
837.443	16881
837.58	16858
837.718	17014
837.856	16896
837.993	16831
838.131	16896
838.269	16797
838.406	16805
838.544	16790
838.681	16622
838.819	16531
838.956	16561
839.094	16455
839.231	16481
839.369	16607
839.506	16862
839.643	16793
839.781	16352
839.918	16390
840.055	16519
840.193	16459
840.33	16329
840.467	16379
840.604	16485
840.742	16847
840.879	16352
841.016	16322
841.153	16363
841.29	16580
841.427	16565
841.564	16504
841.701	16447
841.838	16352
841.975	16421
842.112	16398
842.249	16261
842.385	16162
842.522	16462
842.659	16398
842.796	16200
842.933	16166
843.069	16215
843.206	16173
843.343	16261
843.479	16242
843.616	16272
843.752	16032
843.889	16059
844.025	16238
844.162	16055
844.298	16196
844.435	16036
844.571	16036
844.708	16029
844.844	16253
844.98	16306
845.117	16109
845.253	15998
845.389	15899
845.525	16143
845.661	16093
845.798	15911
845.934	16219
846.07	16074
846.206	16177
846.342	16158
846.478	16051
846.614	15781
846.75	15580
846.886	15614
847.022	15789
847.158	15584
847.294	15595
847.429	15625
847.565	15603
847.701	15838
847.837	15317
847.972	15306
848.108	15447
848.244	15386
848.379	15256
848.515	15195
848.65	15119
848.786	15150
848.921	15230
849.057	15279
849.192	15336
849.328	15272
849.463	15260
849.598	15131
849.734	15165
849.869	15123
850.004	14975
850.14	14925
850.275	14979
850.41	14849
850.545	14918
850.68	14937
850.815	14963
850.95	14994
851.085	15013
851.22	15001
851.355	14960
851.49	14971
851.625	14868
851.76	14868
851.895	14815
852.03	14788
852.165	14864
852.299	15055
852.434	15051
852.569	14933
852.703	15001
852.838	15074
852.973	15005
853.107	15176
853.242	14921
853.376	14868
853.511	14724
853.645	14769
853.78	15017
853.914	14830
854.048	14792
854.183	14788
854.317	14861
854.451	15058
854.585	14830
854.72	14708
854.854	14800
854.988	14743
855.122	14811
855.256	14651
855.39	14739
855.524	14933
855.658	14864
855.792	14891
855.926	14845
856.06	14823
856.194	14967
856.327	14853
856.461	14792
856.595	14830
856.729	14815
856.862	14960
856.996	14842
857.13	14868
857.263	14948
857.397	14975
857.53	14849
857.664	14842
857.797	14933
857.931	14918
858.064	14800
858.197	14986
858.331	14788
858.464	14750
858.597	14716
858.731	14727
858.864	14773
858.997	14792
859.13	14864
859.263	14807
859.396	14826
859.529	14762
859.662	14826
859.795	14758
859.928	14883
860.061	14918
860.194	15017
860.327	14948
860.46	14883
860.592	14998
860.725	14994
860.858	14921
860.99	14849
861.123	14807
861.256	14819
861.388	14773
861.521	15492
861.653	14815
861.786	14697
861.918	14720
862.05	14606
862.183	14758
862.315	14788
862.447	14868
862.58	14819
862.712	14613
862.844	14522
862.976	14594
863.108	14644
863.24	14990
863.372	14503
863.504	14659
863.636	14613
863.768	14625
863.9	14575
864.032	14488
864.164	14431
864.296	14469
864.428	14758
864.559	14602
864.691	14659
864.823	14689
864.954	14556
865.086	14522
865.217	14621
865.349	14450
865.48	14526
865.612	14587
865.743	14716
865.875	14518
866.006	14579
866.137	14511
866.269	14396
866.4	14541
866.531	14495
866.662	14476
866.793	14495
866.924	14511
867.055	14503
867.186	14587
867.317	14461
867.448	14434
867.579	14480
867.71	14427
867.841	14495
867.972	14575
868.103	14602
868.233	14488
868.364	14598
868.495	14610
868.625	14788
868.756	14796
868.886	14750
869.017	14754
869.147	14925
869.278	14906
869.408	14834
869.539	14796
869.669	14872
869.799	14815
869.929	14979
870.06	14921
870.19	15142
870.32	15089
870.45	15131
870.58	15207
870.71	15351
870.84	15298
870.97	15294
871.1	15150
871.23	15363
871.36	15431
871.489	15298
871.619	15329
871.749	15405
871.879	15428
872.008	15485
872.138	15412
872.267	15412
872.397	15237
872.526	15245
872.656	15192
872.785	15291
872.915	15306
873.044	15488
873.173	15428
873.303	15443
873.432	15469
873.561	15564
873.69	15504
873.819	15545
873.948	15515
874.077	15485
874.206	15443
874.335	15401
874.464	15667
874.593	15739
874.722	15686
874.851	15804
874.979	15789
875.108	15842
875.237	15637
875.365	15709
875.494	15823
875.623	15911
875.751	15793
875.88	15793
876.008	15888
876.136	15918
876.265	16188
876.393	16295
876.521	16257
876.65	16284
876.778	16143
876.906	16185
877.034	16067
877.162	16139
877.29	16074
877.418	16219
877.546	16204
877.674	16230
877.802	16105
877.93	16074
878.058	16166
878.185	16074
878.313	16196
878.441	16295
878.568	16051
878.696	16131
878.824	16226
878.951	16265
879.079	16421
879.206	16656
879.333	16504
879.461	16424
879.588	16466
879.715	16535
879.842	16546
879.97	16371
880.097	16112
880.224	16185
880.351	16154
880.478	16040
880.605	16109
880.732	15975
880.859	16261
880.986	16078
881.112	16044
881.239	15869
881.366	15808
881.493	15751
881.619	15766
881.746	15717
881.872	15652
881.999	15618
882.125	15652
882.252	15793
882.378	15755
882.505	15865
882.631	15675
882.757	15523
882.883	15519
883.01	15519
883.136	15488
883.262	15382
883.388	15435
883.514	15572
883.64	15580
883.766	15507
883.892	15298
884.018	15340
884.143	15473
884.269	15576
884.395	15279
884.52	15207
884.646	15192
884.772	15093
884.897	15070
885.023	15176
885.148	15344
885.274	15412
885.399	15260
885.524	15169
885.65	15214
885.775	15161
885.9	15325
886.025	15298
886.15	15359
886.275	15199
886.4	15169
886.525	15218
886.65	15161
886.775	15058
886.9	15294
887.025	15431
887.149	15222
887.274	15093
887.399	14990
887.523	15017
887.648	14948
887.773	14941
887.897	15032
888.021	15104
888.146	14880
888.27	15131
888.395	15104
888.519	14998
888.643	15100
888.767	15169
888.891	14956
889.015	14880
889.139	14937
889.263	14845
889.387	15017
889.511	15123
889.635	15017
889.759	14815
889.883	14815
890.006	14899
890.13	15066
890.254	14800
890.377	14762
890.501	14743
890.624	14678
890.748	14758
890.871	14583
890.995	14541
891.118	14503
891.241	14579
891.364	14484
891.488	14724
891.611	14415
891.734	14530
891.857	14625
891.98	14651
892.103	14716
892.226	14545
892.349	14480
892.471	14404
892.594	14518
892.717	14610
892.839	14503
892.962	14583
893.085	14568
893.207	14613
893.33	14454
893.452	14583
893.575	14594
893.697	14533
893.819	14678
893.941	14746
894.064	14758
894.186	14488
894.308	14533
894.43	14682
894.552	14667
894.674	14712
894.796	14404
894.918	14610
895.04	14522
895.161	14674
895.283	14629
895.405	14530
895.526	14610
895.648	14571
895.769	14632
895.891	14682
896.012	14731
896.134	14720
896.255	14697
896.376	14590
896.498	14727
896.619	14785
896.74	14701
896.861	14746
896.982	15157
897.103	15256
897.224	15009
897.345	14933
897.466	14880
897.587	15001
897.708	15154
897.828	15017
897.949	14948
898.07	14880
898.19	14899
898.311	15157
898.431	14952
898.552	15013
898.672	15127
898.792	15188
898.913	15043
899.033	14994
899.153	14861
899.273	14777
899.393	14937
899.513	14883
899.633	14880
899.753	14864
899.873	14777
899.993	14887
900.113	14807
900.232	14906
900.352	14819
900.472	14815
900.591	14667
900.711	14750
900.83	14762
900.95	14804
901.069	14872
901.189	14636
901.308	14404
901.427	14450
901.546	14377
901.665	14438
901.784	14484
901.904	14267
902.023	14221
902.141	14020
902.26	14005
902.379	14008
902.498	14016
902.617	13986
902.735	13993
902.854	14005
902.973	13986
903.091	13791
903.21	13712
903.328	13746
903.446	13613
903.565	13487
903.683	13605
903.801	13422
903.919	13411
904.038	13476
904.156	13346
904.274	13415
904.392	13403
904.51	13327
904.627	13400
904.745	13350
904.863	13396
904.981	13107
905.098	13012
905.216	13015
905.334	13103
905.451	13088
905.569	13023
905.686	12989
905.803	13072
905.921	12924
906.038	13027
906.155	12787
906.272	12700
906.389	12856
906.506	12650
906.623	12604
906.74	12635
906.857	12460
906.974	12601
907.091	12635
907.208	12753
907.324	12642
907.441	12551
907.557	12357
907.674	12384
907.79	12224
907.907	12273
908.023	12315
908.139	12391
908.256	12220
908.372	12289
908.488	12292
908.604	12228
908.72	12114
908.836	12076
908.952	12026
909.068	12098
909.184	12224
909.3	12144
909.415	12102
909.531	12175
909.647	11977
909.762	11889
909.878	11935
909.993	11863
910.108	11904
910.224	11847
910.339	11935
910.454	11836
910.57	11695
910.685	11722
910.8	12007
910.915	11836
911.03	11771
911.145	11642
911.259	11539
911.374	11619
911.489	11493
911.604	11463
911.718	11356
911.833	11376
911.947	11242
912.062	11132
912.176	11311
912.291	11372
912.405	11368
912.519	11501
912.633	11554
912.748	11364
912.862	11379
912.976	11185
913.09	11155
913.204	11128
913.318	11174
913.431	11307
913.545	11337
913.659	11326
913.772	11258
913.886	11109
914	11109
914.113	11132
914.226	11178
914.34	11223
914.453	10942
914.566	11174
914.68	11105
914.793	10934
914.906	10847
915.019	10854
915.132	10801
915.245	10843
915.358	10839
915.47	10847
915.583	10866
915.696	10820
915.809	10968
915.921	11025
916.034	10774
916.146	10736
916.259	10744
916.371	10843
916.483	10831
916.595	10763
916.708	10850
916.82	10679
916.932	10740
917.044	10771
917.156	10778
917.268	10649
917.38	10729
917.491	10588
917.603	10634
917.715	10714
917.826	10786
917.938	10584
918.049	10577
918.161	10691
918.272	10759
918.384	10744
918.495	10660
918.606	10493
918.717	10474
918.828	10573
918.939	10558
919.05	10348
919.161	10478
919.272	10295
919.383	10375
919.494	10603
919.604	10752
919.715	10485
919.826	10432
919.936	10546
920.047	10561
920.157	10573
920.267	10694
920.378	10603
920.488	10546
920.598	10725
920.708	10889
920.818	10706
920.928	10839
921.038	10949
921.148	10854
921.258	10550
921.368	10508
921.477	10421
921.587	10394
921.697	10310
921.806	10348
921.916	10188
922.025	10112
922.134	10051
922.244	10059
922.353	10128
922.462	9994
922.571	9892
922.68	9694
922.789	9720
922.898	9766
923.007	9663
923.116	9774
923.224	9740
923.333	9701
923.442	9610
923.55	9671
923.659	9622
923.767	9770
923.876	9606
923.984	9595
924.092	9496
924.201	9591
924.309	9648
924.417	9701
924.525	9549
924.633	9629
924.741	10337
924.849	9279
924.956	9526
925.064	9401
925.172	9332
925.279	9363
925.387	9412
925.494	9397
925.602	9496
925.709	9507
925.816	9389
925.924	9408
926.031	9496
926.138	9458
926.245	9469
926.352	9260
926.459	9496
926.566	9500
926.673	9340
926.779	9249
926.886	9211
926.993	9157
927.099	9085
927.206	9074
927.312	8990
927.419	9123
927.525	9142
927.631	9116
927.737	9070
927.843	9024
927.95	8933
928.056	8986
928.162	9020
928.267	9058
928.373	9629
928.479	9108
928.585	8842
928.69	8944
928.796	9093
928.901	8941
929.007	8781
929.112	8910
929.218	8880
929.323	8823
929.428	8769
929.533	8876
929.638	8724
929.743	8739
929.848	8800
929.953	8712
930.058	8727
930.163	8575
930.267	8606
930.372	8724
930.477	8564
930.581	8754
930.685	8594
930.79	8579
930.894	8549
930.998	8533
931.103	8670
931.207	8286
931.311	8271
931.415	8252
931.519	8008
931.623	7963
