Data from test_V78500241_2425.txt Node
Date: Fri Mar 25 14:50:35 CST 2022
User: usil
Spectrometer: V785-0024
Trigger mode: 0
Integration Time (sec): 4.000000E-1
Scans to average: 1
Nonlinearity correction enabled: false
Boxcar width: 0
Storing dark spectrum: false
XAxis mode: Wavelengths
Number of Pixels in Spectrum: 1024
>>>>>Begin Spectral Data<<<<<
801.071	22147
801.214	22131
801.356	21812
801.499	21679
801.641	21523
801.783	21382
801.926	21545
802.068	21504
802.211	21511
802.353	21340
802.496	21058
802.638	20853
802.78	20956
802.923	20883
803.065	20727
803.208	20720
803.35	20925
803.492	20986
803.635	20902
803.777	20876
803.919	20823
804.061	21184
804.204	20963
804.346	20823
804.488	20640
804.63	20792
804.773	20598
804.915	20663
805.057	20933
805.199	20712
805.341	20762
805.483	20982
805.626	20895
805.768	20724
805.91	20838
806.052	20830
806.194	20613
806.336	20963
806.478	20788
806.62	20686
806.762	20800
806.904	20906
807.046	21047
807.188	21043
807.33	21100
807.472	20975
807.614	20998
807.756	20960
807.898	20925
808.04	20705
808.182	20667
808.324	20895
808.465	20982
808.607	20944
808.749	21199
808.891	21203
809.033	21287
809.174	21173
809.316	21104
809.458	21169
809.6	21051
809.741	21203
809.883	21199
810.025	21332
810.166	21447
810.308	21279
810.45	21119
810.591	21241
810.733	21051
810.875	20975
811.016	20826
811.158	20830
811.299	21005
811.441	21001
811.582	21036
811.724	20868
811.865	20830
812.007	20857
812.148	20952
812.29	20982
812.431	21119
812.573	21157
812.714	21222
812.855	21431
812.997	21561
813.138	21587
813.279	21485
813.421	21454
813.562	21287
813.703	21089
813.845	21062
813.986	20876
814.127	20495
814.268	20480
814.41	20434
814.551	20537
814.692	20492
814.833	20423
814.974	20412
815.115	20404
815.256	20313
815.397	20332
815.539	20434
815.68	20317
815.821	20138
815.962	20259
816.103	20153
816.244	20035
816.385	20016
816.526	19925
816.666	19674
816.807	19639
816.948	19696
817.089	19609
817.23	19635
817.371	19605
817.512	19556
817.653	19567
817.793	19495
817.934	19460
818.075	19613
818.216	19575
818.356	19548
818.497	19388
818.638	19331
818.778	19175
818.919	19289
819.06	19285
819.2	19331
819.341	19369
819.481	19590
819.622	19635
819.762	19757
819.903	19715
820.043	19704
820.184	19377
820.324	19499
820.465	19670
820.605	19567
820.746	19411
820.886	19327
821.026	19514
821.167	19518
821.307	19586
821.447	19415
821.588	19304
821.728	19282
821.868	19099
822.008	18947
822.149	18970
822.289	18977
822.429	18688
822.569	18661
822.709	18684
822.849	18494
822.99	18334
823.13	18475
823.27	18369
823.41	18239
823.55	18121
823.69	18304
823.83	18232
823.97	18213
824.11	18026
824.25	17958
824.389	18083
824.529	18148
824.669	18026
824.809	18106
824.949	18076
825.089	18091
825.228	17969
825.368	17870
825.508	17691
825.648	17893
825.787	17878
825.927	17832
826.067	17824
826.206	17764
826.346	17729
826.485	17828
826.625	17767
826.765	17870
826.904	17809
827.044	17558
827.183	17634
827.323	17509
827.462	17532
827.601	17532
827.741	17490
827.88	17646
828.02	17368
828.159	17467
828.298	17398
828.437	17573
828.577	17547
828.716	17573
828.855	17398
828.994	17265
829.134	17246
829.273	17292
829.412	17151
829.551	17223
829.69	17204
829.829	17147
829.968	17299
830.107	17318
830.246	17303
830.385	17132
830.524	17098
830.663	17143
830.802	16995
830.941	16858
831.08	16782
831.219	16866
831.357	16938
831.496	17083
831.635	16949
831.774	16626
831.913	16660
832.051	16736
832.19	16584
832.329	16569
832.467	16611
832.606	16535
832.744	16447
832.883	16618
833.022	16455
833.16	16504
833.299	16516
833.437	16611
833.576	16607
833.714	16558
833.852	16615
833.991	16702
834.129	16664
834.267	16618
834.406	16641
834.544	16596
834.682	16637
834.821	16607
834.959	16713
835.097	16565
835.235	16710
835.373	16664
835.511	16599
835.65	16489
835.788	16440
835.926	16291
836.064	16299
836.202	16268
836.34	16565
836.478	16493
836.615	16382
836.753	16504
836.891	16516
837.029	16508
837.167	16493
837.305	16306
837.443	16341
837.58	16413
837.718	16394
837.856	16443
837.993	16318
838.131	16455
838.269	16253
838.406	16280
838.544	16253
838.681	16040
838.819	16032
838.956	15857
839.094	15857
839.231	16032
839.369	15991
839.506	16211
839.643	16150
839.781	15926
839.918	15907
840.055	15854
840.193	15831
840.33	15831
840.467	15884
840.604	15918
840.742	16071
840.879	15873
841.016	15755
841.153	15778
841.29	15960
841.427	15854
841.564	16055
841.701	15895
841.838	15819
841.975	15854
842.112	15759
842.249	15770
842.385	15682
842.522	15918
842.659	15686
842.796	15641
842.933	15751
843.069	15561
843.206	15557
843.343	15698
843.479	15652
843.616	15797
843.752	15504
843.889	15431
844.025	15530
844.162	15462
844.298	15511
844.435	15488
844.571	15435
844.708	15553
844.844	15675
844.98	15564
845.117	15675
845.253	15382
845.389	15443
845.525	15378
845.661	15370
845.798	15230
845.934	15283
846.07	15199
846.206	15298
846.342	15435
846.478	15268
846.614	15085
846.75	15055
846.886	14986
847.022	15157
847.158	15020
847.294	14979
847.429	15119
847.565	15055
847.701	15161
847.837	14792
847.972	14785
848.108	14887
848.244	14857
848.379	14659
848.515	14590
848.65	14644
848.786	14602
848.921	14552
849.057	14754
849.192	14655
849.328	14686
849.463	14655
849.598	14568
849.734	14575
849.869	14438
850.004	14408
850.14	14446
850.275	14431
850.41	14385
850.545	14412
850.68	14355
850.815	14446
850.95	14267
851.085	14579
851.22	14446
851.355	14339
851.49	14358
851.625	14469
851.76	14328
851.895	14176
852.03	14191
852.165	14305
852.299	14389
852.434	14514
852.569	14374
852.703	14423
852.838	14454
852.973	14552
853.107	14465
853.242	14423
853.376	14309
853.511	14065
853.645	14317
853.78	14358
853.914	14294
854.048	14225
854.183	14229
854.317	14263
854.451	14377
854.585	14278
854.72	14275
854.854	14385
854.988	14202
855.122	14172
855.256	14119
855.39	14172
855.524	14358
855.658	14343
855.792	14259
855.926	14290
856.06	14389
856.194	14336
856.327	14286
856.461	14206
856.595	14191
856.729	14202
856.862	14259
856.996	14317
857.13	14267
857.263	14484
857.397	14412
857.53	14263
857.664	14317
857.797	14336
857.931	14385
858.064	14377
858.197	14396
858.331	14294
858.464	14183
858.597	14134
858.731	14244
858.864	14240
858.997	14309
859.13	14195
859.263	14225
859.396	14381
859.529	14183
859.662	14164
859.795	14298
859.928	14278
860.061	14396
860.194	14450
860.327	14351
860.46	14317
860.592	14423
860.725	14366
860.858	14465
860.99	14271
861.123	14157
861.256	14233
861.388	14275
861.521	15039
861.653	14145
861.786	14191
861.918	14084
862.05	14149
862.183	14259
862.315	14237
862.447	14252
862.58	14271
862.712	14024
862.844	13997
862.976	14138
863.108	14164
863.24	14347
863.372	14031
863.504	13974
863.636	14058
863.768	14145
863.9	14069
864.032	14035
864.164	14001
864.296	14123
864.428	14138
864.559	14176
864.691	14062
864.823	13959
864.954	14043
865.086	14077
865.217	13982
865.349	13921
865.48	14054
865.612	13970
865.743	14130
865.875	13997
866.006	14027
866.137	14084
866.269	14088
866.4	14012
866.531	14024
866.662	13951
866.793	13928
866.924	14027
867.055	14062
867.186	13967
867.317	13928
867.448	13909
867.579	13967
867.71	13868
867.841	13917
867.972	14069
868.103	14077
868.233	13967
868.364	13925
868.495	14096
868.625	14244
868.756	14358
868.886	14267
869.017	14286
869.147	14450
869.278	14355
869.408	14210
869.539	14305
869.669	14366
869.799	14252
869.929	14389
870.06	14377
870.19	14602
870.32	14594
870.45	14632
870.58	14769
870.71	14800
870.84	14735
870.97	14667
871.1	14659
871.23	14777
871.36	14800
871.489	14773
871.619	14830
871.749	14716
871.879	14887
872.008	14899
872.138	14887
872.267	14781
872.397	14861
872.526	14708
872.656	14636
872.785	14697
872.915	14952
873.044	15009
873.173	14868
873.303	14971
873.432	14956
873.561	15028
873.69	14956
873.819	14918
873.948	14960
874.077	14838
874.206	14921
874.335	14918
874.464	15100
874.593	15233
874.722	15100
874.851	15344
874.979	15245
875.108	15351
875.237	15272
875.365	15195
875.494	15233
875.623	15302
875.751	15195
875.88	15298
876.008	15359
876.136	15424
876.265	15717
876.393	15819
876.521	15759
876.65	15785
876.778	15526
876.906	15584
877.034	15557
877.162	15606
877.29	15469
877.418	15701
877.546	15663
877.674	15587
877.802	15660
877.93	15633
878.058	15587
878.185	15500
878.313	15701
878.441	15652
878.568	15424
878.696	15599
878.824	15671
878.951	15724
879.079	15819
879.206	15937
879.333	15785
879.461	15603
879.588	15743
879.715	15812
879.842	15960
879.97	15667
880.097	15481
880.224	15568
880.351	15462
880.478	15534
880.605	15473
880.732	15477
880.859	15759
880.986	15515
881.112	15667
881.239	15397
881.366	15214
881.493	15138
881.619	15233
881.746	15081
881.872	15188
881.999	15047
882.125	15108
882.252	15218
882.378	15211
882.505	15256
882.631	14994
882.757	14937
882.883	15089
883.01	15013
883.136	14883
883.262	14796
883.388	14891
883.514	14952
883.64	14990
883.766	14838
883.892	14796
884.018	14773
884.143	15039
884.269	15017
884.395	14739
884.52	14663
884.646	14697
884.772	14610
884.897	14678
885.023	14682
885.148	14815
885.274	14891
885.399	14838
885.524	14735
885.65	14625
885.775	14697
885.9	14594
886.025	14807
886.15	14705
886.275	14686
886.4	14606
886.525	14640
886.65	14560
886.775	14564
886.9	14708
887.025	14910
887.149	14659
887.274	14568
887.399	14556
887.523	14400
887.648	14412
887.773	14461
887.897	14495
888.021	14545
888.146	14370
888.27	14579
888.395	14682
888.519	14541
888.643	14560
888.767	14636
888.891	14408
889.015	14290
889.139	14454
889.263	14366
889.387	14393
889.511	14636
889.635	14530
889.759	14400
889.883	14396
890.006	14499
890.13	14530
890.254	14336
890.377	14347
890.501	14214
890.624	14130
890.748	14195
890.871	14142
890.995	14081
891.118	14024
891.241	14145
891.364	14088
891.488	14233
891.611	14020
891.734	14065
891.857	14073
891.98	14024
892.103	14103
892.226	14145
892.349	14054
892.471	13856
892.594	14039
892.717	13993
892.839	14050
892.962	14096
893.085	14126
893.207	14111
893.33	13986
893.452	13982
893.575	14103
893.697	13986
893.819	14248
893.941	14267
894.064	14309
894.186	14115
894.308	14115
894.43	14214
894.552	14282
894.674	14145
894.796	14081
894.918	14103
895.04	14119
895.161	14221
895.283	14275
895.405	14149
895.526	14123
895.648	14221
895.769	14195
895.891	14339
896.012	14240
896.134	14229
896.255	14267
896.376	14202
896.498	14157
896.619	14324
896.74	14229
896.861	14271
896.982	14598
897.103	14678
897.224	14556
897.345	14495
897.466	14454
897.587	14587
897.708	14610
897.828	14629
897.949	14499
898.07	14366
898.19	14427
898.311	14689
898.431	14552
898.552	14587
898.672	14701
898.792	14708
898.913	14720
899.033	14514
899.153	14488
899.273	14362
899.393	14396
899.513	14533
899.633	14495
899.753	14427
899.873	14450
899.993	14469
900.113	14431
900.232	14434
900.352	14438
900.472	14396
900.591	14301
900.711	14377
900.83	14267
900.95	14461
901.069	14454
901.189	14385
901.308	14043
901.427	14027
901.546	14065
901.665	13989
901.784	14001
901.904	13967
902.023	13784
902.141	13632
902.26	13590
902.379	13628
902.498	13605
902.617	13514
902.735	13605
902.854	13586
902.973	13495
903.091	13350
903.21	13320
903.328	13297
903.446	13278
903.565	13160
903.683	13046
903.801	13023
903.919	13076
904.038	13110
904.156	12928
904.274	13034
904.392	12966
904.51	13053
904.627	12932
904.745	13057
904.863	12993
904.981	12798
905.098	12707
905.216	12627
905.334	12654
905.451	12597
905.569	12597
905.686	12703
905.803	12677
905.921	12456
906.038	12589
906.155	12426
906.272	12372
906.389	12426
906.506	12296
906.623	12232
906.74	12186
906.857	12076
906.974	12171
907.091	12372
907.208	12330
907.324	12323
907.441	12121
907.557	11954
907.674	11988
907.79	11939
907.907	11931
908.023	11992
908.139	11904
908.256	11939
908.372	11866
908.488	11847
908.604	11741
908.72	11760
908.836	11653
908.952	11703
909.068	11737
909.184	11878
909.3	11760
909.415	11893
909.531	11676
909.647	11566
909.762	11493
909.878	11478
909.993	11532
910.108	11520
910.224	11497
910.339	11596
910.454	11334
910.57	11364
910.685	11311
910.8	11646
910.915	11471
911.03	11402
911.145	11235
911.259	11140
911.374	11128
911.489	11086
911.604	11071
911.718	10911
911.833	10953
911.947	10889
912.062	10812
912.176	10908
912.291	10968
912.405	11014
912.519	11143
912.633	11140
912.748	11113
912.862	10968
912.976	10873
913.09	10683
913.204	10744
913.318	10850
913.431	10873
913.545	10820
913.659	10987
913.772	10862
913.886	10740
914	10733
914.113	10816
914.226	10816
914.34	10866
914.453	10683
914.566	10797
914.68	10706
914.793	10599
914.906	10538
915.019	10440
915.132	10322
915.245	10436
915.358	10512
915.47	10455
915.583	10459
915.696	10504
915.809	10603
915.921	10596
916.034	10413
916.146	10409
916.259	10382
916.371	10512
916.483	10447
916.595	10394
916.708	10360
916.82	10424
916.932	10398
917.044	10382
917.156	10436
917.268	10272
917.38	10280
917.491	10325
917.603	10299
917.715	10432
917.826	10398
917.938	10291
918.049	10253
918.161	10306
918.272	10443
918.384	10424
918.495	10291
918.606	10158
918.717	10139
918.828	10131
918.939	10219
919.05	10158
919.161	10169
919.272	9972
919.383	10032
919.494	10291
919.604	10421
919.715	10276
919.826	10185
919.936	10139
920.047	10265
920.157	10188
920.267	10519
920.378	10253
920.488	10150
920.598	10367
920.708	10459
920.818	10405
920.928	10405
921.038	10538
921.148	10440
921.258	10227
921.368	10185
921.477	10044
921.587	9998
921.697	9876
921.806	10112
921.916	9956
922.025	9774
922.134	9766
922.244	9652
922.353	9789
922.462	9701
922.571	9557
922.68	9504
922.789	9389
922.898	9469
923.007	9424
923.116	9500
923.224	9435
923.333	9416
923.442	9359
923.55	9317
923.659	9389
923.767	9401
923.876	9332
923.984	9408
924.092	9184
924.201	9336
924.309	9245
924.417	9294
924.525	9241
924.633	9241
924.741	10044
924.849	9127
924.956	9253
925.064	9150
925.172	9074
925.279	9097
925.387	9131
925.494	9108
925.602	9233
925.709	9161
925.816	9047
925.924	9104
926.031	9218
926.138	9112
926.245	9127
926.352	9028
926.459	9237
926.566	9169
926.673	9047
926.779	8963
926.886	8986
926.993	8880
927.099	8853
927.206	8720
927.312	8785
927.419	8929
927.525	8883
927.631	8876
927.737	8720
927.843	8750
927.95	8625
928.056	8606
928.162	8769
928.267	8754
928.373	9397
928.479	8777
928.585	8621
928.69	8674
928.796	8754
928.901	8583
929.007	8514
929.112	8625
929.218	8617
929.323	8613
929.428	8556
929.533	8663
929.638	8530
929.743	8541
929.848	8602
929.953	8541
930.058	8393
930.163	8282
930.267	8240
930.372	8473
930.477	8221
930.581	8427
930.685	8385
930.79	8244
930.894	8347
930.998	8225
931.103	8396
931.207	8069
931.311	8035
931.415	7955
931.519	7734
931.623	7765
