Data from test_V78500241_1453.txt Node
Date: Fri Mar 25 14:43:49 CST 2022
User: usil
Spectrometer: V785-0024
Trigger mode: 0
Integration Time (sec): 4.000000E-1
Scans to average: 1
Nonlinearity correction enabled: false
Boxcar width: 0
Storing dark spectrum: false
XAxis mode: Wavelengths
Number of Pixels in Spectrum: 1024
>>>>>Begin Spectral Data<<<<<
801.071	22356
801.214	22310
801.356	22124
801.499	21934
801.641	21793
801.783	21781
801.926	21850
802.068	21705
802.211	21603
802.353	21519
802.496	21340
802.638	21310
802.78	21264
802.923	21195
803.065	21188
803.208	21138
803.35	21093
803.492	21332
803.635	21264
803.777	21039
803.919	21154
804.061	21370
804.204	21116
804.346	21150
804.488	21009
804.63	21142
804.773	20971
804.915	21085
805.057	21279
805.199	21051
805.341	21055
805.483	21146
805.626	21245
805.768	20883
805.91	20967
806.052	21142
806.194	20899
806.336	21230
806.478	20994
806.62	20918
806.762	21127
806.904	21256
807.046	21389
807.188	21329
807.33	21458
807.472	21450
807.614	21397
807.756	21405
807.898	21184
808.04	21237
808.182	21306
808.324	21302
808.465	21207
808.607	21549
808.749	21736
808.891	21743
809.033	21941
809.174	21759
809.316	21591
809.458	21671
809.6	21603
809.741	21591
809.883	21568
810.025	21713
810.166	21789
810.308	21663
810.45	21694
810.591	21587
810.733	21241
810.875	21336
811.016	21184
811.158	21176
811.299	21260
811.441	21370
811.582	21306
811.724	21298
811.865	21218
812.007	21241
812.148	21192
812.29	21226
812.431	21428
812.573	21568
812.714	21637
812.855	21736
812.997	21838
813.138	21873
813.279	21800
813.421	21751
813.562	21690
813.703	21405
813.845	21351
813.986	21055
814.127	20982
814.268	20895
814.41	20883
814.551	20762
814.692	20849
814.833	20659
814.974	20792
815.115	20842
815.256	20693
815.397	20613
815.539	20545
815.68	20583
815.821	20514
815.962	20511
816.103	20461
816.244	20393
816.385	20225
816.526	20267
816.666	20058
816.807	19925
816.948	20065
817.089	20065
817.23	19917
817.371	19906
817.512	19849
817.653	19864
817.793	19879
817.934	19913
818.075	19890
818.216	19898
818.356	19791
818.497	19734
818.638	19537
818.778	19575
818.919	19647
819.06	19620
819.2	19830
819.341	19799
819.481	19906
819.622	19890
819.762	20221
819.903	20027
820.043	19967
820.184	19852
820.324	19917
820.465	19887
820.605	19959
820.746	19917
820.886	19799
821.026	19780
821.167	19868
821.307	19860
821.447	19769
821.588	19605
821.728	19613
821.868	19586
822.008	19335
822.149	19354
822.289	19175
822.429	19015
822.569	18977
822.709	19000
822.849	18837
822.99	18840
823.13	18882
823.27	18768
823.41	18589
823.55	18464
823.69	18532
823.83	18738
823.97	18506
824.11	18376
824.25	18323
824.389	18475
824.529	18498
824.669	18315
824.809	18369
824.949	18506
825.089	18429
825.228	18437
825.368	18174
825.508	18129
825.648	18205
825.787	18182
825.927	18232
826.067	18228
826.206	18022
826.346	18292
826.485	18201
826.625	18087
826.765	18152
826.904	18243
827.044	17863
827.183	17863
827.323	17786
827.462	17942
827.601	17764
827.741	17836
827.88	17824
828.02	17771
828.159	17843
828.298	17840
828.437	17992
828.577	17824
828.716	17885
828.855	17843
828.994	17638
829.134	17600
829.273	17646
829.412	17558
829.551	17543
829.69	17539
829.829	17558
829.968	17672
830.107	17589
830.246	17687
830.385	17581
830.524	17497
830.663	17395
830.802	17235
830.941	17296
831.08	17143
831.219	17315
831.357	17258
831.496	17440
831.635	17064
831.774	17136
831.913	17022
832.051	16942
832.19	17037
832.329	17056
832.467	16930
832.606	16831
832.744	16957
832.883	16797
833.022	16881
833.16	16889
833.299	16934
833.437	16877
833.576	16942
833.714	17014
833.852	17022
833.991	17029
834.129	16984
834.267	17064
834.406	16995
834.544	16953
834.682	16953
834.821	16793
834.959	16927
835.097	16873
835.235	17056
835.373	16976
835.511	16984
835.65	16812
835.788	16816
835.926	16725
836.064	16664
836.202	16630
836.34	16946
836.478	16965
836.615	16847
836.753	16896
836.891	16949
837.029	16854
837.167	16831
837.305	16675
837.443	16626
837.58	16725
837.718	16710
837.856	16793
837.993	16725
838.131	16615
838.269	16516
838.406	16516
838.544	16546
838.681	16466
838.819	16310
838.956	16280
839.094	16249
839.231	16261
839.369	16348
839.506	16618
839.643	16577
839.781	16211
839.918	16234
840.055	16185
840.193	16200
840.33	16185
840.467	16261
840.604	16219
840.742	16516
840.879	15998
841.016	16158
841.153	16131
841.29	16310
841.427	16310
841.564	16226
841.701	16219
841.838	16211
841.975	16166
842.112	16116
842.249	16067
842.385	16120
842.522	16135
842.659	16032
842.796	15915
842.933	15991
843.069	16025
843.206	16002
843.343	16051
843.479	15975
843.616	16032
843.752	15789
843.889	15739
844.025	15911
844.162	15739
844.298	15911
844.435	15785
844.571	15755
844.708	15816
844.844	15945
844.98	16006
845.117	16040
845.253	15854
845.389	15671
845.525	15888
845.661	15823
845.798	15842
845.934	15972
846.07	15850
846.206	15895
846.342	16025
846.478	15701
846.614	15568
846.75	15389
846.886	15393
847.022	15496
847.158	15462
847.294	15336
847.429	15382
847.565	15374
847.701	15553
847.837	15116
847.972	15028
848.108	15226
848.244	15176
848.379	15024
848.515	15005
848.65	14956
848.786	15001
848.921	14929
849.057	15081
849.192	15093
849.328	14994
849.463	14982
849.598	14925
849.734	14937
849.869	14792
850.004	14720
850.14	14807
850.275	14765
850.41	14674
850.545	14674
850.68	14773
850.815	14750
850.95	14708
851.085	15009
851.22	14823
851.355	14842
851.49	14735
851.625	14735
851.76	14651
851.895	14716
852.03	14659
852.165	14758
852.299	14750
852.434	14746
852.569	14815
852.703	14735
852.838	14743
852.973	14743
853.107	14845
853.242	14720
853.376	14644
853.511	14507
853.645	14556
853.78	14811
853.914	14549
854.048	14610
854.183	14560
854.317	14568
854.451	14773
854.585	14530
854.72	14606
854.854	14796
854.988	14465
855.122	14556
855.256	14476
855.39	14587
855.524	14560
855.658	14644
855.792	14667
855.926	14629
856.06	14663
856.194	14659
856.327	14678
856.461	14522
856.595	14465
856.729	14560
856.862	14663
856.996	14648
857.13	14651
857.263	14735
857.397	14743
857.53	14621
857.664	14648
857.797	14590
857.931	14670
858.064	14716
858.197	14670
858.331	14552
858.464	14533
858.597	14412
858.731	14545
858.864	14583
858.997	14602
859.13	14670
859.263	14625
859.396	14610
859.529	14598
859.662	14579
859.795	14560
859.928	14670
860.061	14750
860.194	14724
860.327	14590
860.46	14549
860.592	14674
860.725	14693
860.858	14769
860.99	14644
861.123	14454
861.256	14518
861.388	14640
861.521	15298
861.653	14446
861.786	14457
861.918	14476
862.05	14541
862.183	14488
862.315	14629
862.447	14655
862.58	14530
862.712	14438
862.844	14282
862.976	14503
863.108	14366
863.24	14807
863.372	14294
863.504	14389
863.636	14313
863.768	14389
863.9	14366
864.032	14320
864.164	14355
864.296	14412
864.428	14473
864.559	14465
864.691	14389
864.823	14415
864.954	14465
865.086	14408
865.217	14362
865.349	14259
865.48	14336
865.612	14450
865.743	14473
865.875	14336
866.006	14343
866.137	14427
866.269	14355
866.4	14355
866.531	14324
866.662	14301
866.793	14244
866.924	14256
867.055	14320
867.186	14294
867.317	14259
867.448	14237
867.579	14339
867.71	14298
867.841	14263
867.972	14423
868.103	14324
868.233	14301
868.364	14324
868.495	14434
868.625	14587
868.756	14621
868.886	14473
869.017	14518
869.147	14648
869.278	14796
869.408	14590
869.539	14625
869.669	14670
869.799	14670
869.929	14686
870.06	14651
870.19	14880
870.32	14849
870.45	14902
870.58	15013
870.71	15009
870.84	14994
870.97	15001
871.1	15024
871.23	15055
871.36	15207
871.489	15028
871.619	15157
871.749	15192
871.879	15184
872.008	15279
872.138	15222
872.267	15150
872.397	15077
872.526	15070
872.656	15112
872.785	15051
872.915	15146
873.044	15279
873.173	15249
873.303	15310
873.432	15325
873.561	15401
873.69	15233
873.819	15230
873.948	15264
874.077	15233
874.206	15154
874.335	15344
874.464	15355
874.593	15496
874.722	15458
874.851	15572
874.979	15507
875.108	15591
875.237	15473
875.365	15424
875.494	15500
875.623	15595
875.751	15492
875.88	15534
876.008	15660
876.136	15728
876.265	15930
876.393	16074
876.521	16036
876.65	16006
876.778	15991
876.906	15953
877.034	15926
877.162	15911
877.29	16002
877.418	16036
877.546	15918
877.674	15960
877.802	15991
877.93	15964
878.058	15903
878.185	15945
878.313	15949
878.441	16032
878.568	15838
878.696	15857
878.824	15945
878.951	16219
879.079	16265
879.206	16344
879.333	16154
879.461	16143
879.588	16177
879.715	16299
879.842	16447
879.97	16090
880.097	16048
880.224	15937
880.351	15960
880.478	15823
880.605	15797
880.732	15854
880.859	16032
880.986	15873
881.112	15827
881.239	15766
881.366	15584
881.493	15542
881.619	15500
881.746	15488
881.872	15500
881.999	15408
882.125	15469
882.252	15481
882.378	15473
882.505	15682
882.631	15458
882.757	15279
882.883	15367
883.01	15374
883.136	15272
883.262	15237
883.388	15199
883.514	15237
883.64	15325
883.766	15313
883.892	15214
884.018	15127
884.143	15291
884.269	15431
884.395	15127
884.52	15100
884.646	15085
884.772	15043
884.897	14971
885.023	15009
885.148	15138
885.274	15233
885.399	15131
885.524	14963
885.65	15039
885.775	15017
885.9	15024
886.025	15180
886.15	15074
886.275	14941
886.4	14834
886.525	15013
886.65	15036
886.775	14948
886.9	15157
887.025	15203
887.149	15058
887.274	14853
887.399	14758
887.523	14777
887.648	14689
887.773	14762
887.897	14887
888.021	14929
888.146	14765
888.27	14921
888.395	14975
888.519	14895
888.643	14800
888.767	14956
888.891	14834
889.015	14590
889.139	14705
889.263	14625
889.387	14800
889.511	14769
889.635	14842
889.759	14651
889.883	14575
890.006	14758
890.13	14796
890.254	14587
890.377	14556
890.501	14499
890.624	14320
890.748	14579
890.871	14393
890.995	14320
891.118	14324
891.241	14332
891.364	14317
891.488	14488
891.611	14294
891.734	14286
891.857	14358
891.98	14339
892.103	14389
892.226	14446
892.349	14336
892.471	14229
892.594	14290
892.717	14362
892.839	14339
892.962	14309
893.085	14419
893.207	14370
893.33	14286
893.452	14351
893.575	14545
893.697	14248
893.819	14537
893.941	14556
894.064	14541
894.186	14324
894.308	14294
894.43	14503
894.552	14575
894.674	14473
894.796	14301
894.918	14434
895.04	14343
895.161	14579
895.283	14461
895.405	14412
895.526	14381
895.648	14450
895.769	14396
895.891	14454
896.012	14598
896.134	14457
896.255	14594
896.376	14389
896.498	14587
896.619	14556
896.74	14358
896.861	14689
896.982	14876
897.103	15001
897.224	14842
897.345	14834
897.466	14724
897.587	14826
897.708	14918
897.828	14773
897.949	14781
898.07	14667
898.19	14804
898.311	14899
898.431	14785
898.552	14781
898.672	15005
898.792	14963
898.913	14910
899.033	14804
899.153	14746
899.273	14549
899.393	14693
899.513	14800
899.633	14731
899.753	14762
899.873	14750
899.993	14823
900.113	14701
900.232	14773
900.352	14640
900.472	14632
900.591	14552
900.711	14674
900.83	14598
900.95	14701
901.069	14781
901.189	14499
901.308	14267
901.427	14259
901.546	14278
901.665	14233
901.784	14263
901.904	14199
902.023	14058
902.141	13921
902.26	13849
902.379	13890
902.498	13803
902.617	13712
902.735	13864
902.854	13830
902.973	13727
903.091	13582
903.21	13521
903.328	13651
903.446	13430
903.565	13445
903.683	13464
903.801	13285
903.919	13369
904.038	13388
904.156	13228
904.274	13164
904.392	13114
904.51	13225
904.627	13179
904.745	13270
904.863	13171
904.981	12962
905.098	12863
905.216	12909
905.334	12875
905.451	12844
905.569	12859
905.686	12932
905.803	12932
905.921	12722
906.038	12806
906.155	12715
906.272	12597
906.389	12513
906.506	12445
906.623	12452
906.74	12490
906.857	12410
906.974	12441
907.091	12536
907.208	12616
907.324	12547
907.441	12330
907.557	12277
907.674	12315
907.79	12114
907.907	12220
908.023	12266
908.139	12254
908.256	12155
908.372	12163
908.488	12110
908.604	11961
908.72	11942
908.836	12022
908.952	11992
909.068	11958
909.184	12019
909.3	11996
909.415	12026
909.531	12038
909.647	11729
909.762	11737
909.878	11714
909.993	11733
910.108	11649
910.224	11726
910.339	11737
910.454	11695
910.57	11547
910.685	11524
910.8	11741
910.915	11752
911.03	11638
911.145	11425
911.259	11429
911.374	11425
911.489	11311
911.604	11376
911.718	11227
911.833	11204
911.947	10999
912.062	10995
912.176	11132
912.291	11212
912.405	11178
912.519	11398
912.633	11421
912.748	11273
912.862	11178
912.976	11075
913.09	11010
913.204	11029
913.318	11102
913.431	11197
913.545	11136
913.659	11212
913.772	11162
913.886	11045
914	10900
914.113	11060
914.226	11117
914.34	11048
914.453	10877
914.566	11079
914.68	10873
914.793	10839
914.906	10725
915.019	10679
915.132	10611
915.245	10675
915.358	10653
915.47	10725
915.583	10782
915.696	10843
915.809	10767
915.921	10866
916.034	10725
916.146	10675
916.259	10599
916.371	10755
916.483	10668
916.595	10618
916.708	10641
916.82	10603
916.932	10607
917.044	10611
917.156	10615
917.268	10459
917.38	10535
917.491	10470
917.603	10497
917.715	10550
917.826	10675
917.938	10470
918.049	10360
918.161	10550
918.272	10698
918.384	10611
918.495	10478
918.606	10375
918.717	10268
918.828	10379
918.939	10318
919.05	10287
919.161	10314
919.272	10143
919.383	10265
919.494	10409
919.604	10565
919.715	10436
919.826	10344
919.936	10325
920.047	10462
920.157	10417
920.267	10653
920.378	10413
920.488	10337
920.598	10637
920.708	10778
920.818	10580
920.928	10554
921.038	10710
921.148	10626
921.258	10470
921.368	10265
921.477	10284
921.587	10192
921.697	10040
921.806	10223
921.916	10116
922.025	9922
922.134	10010
922.244	9865
922.353	9926
922.462	9835
922.571	9785
922.68	9671
922.789	9576
922.898	9690
923.007	9618
923.116	9740
923.224	9644
923.333	9599
923.442	9519
923.55	9458
923.659	9637
923.767	9530
923.876	9504
923.984	9587
924.092	9424
924.201	9481
924.309	9523
924.417	9587
924.525	9447
924.633	9450
924.741	10363
924.849	9306
924.956	9424
925.064	9279
925.172	9253
925.279	9264
925.387	9279
925.494	9294
925.602	9435
925.709	9382
925.816	9150
925.924	9233
926.031	9325
926.138	9325
926.245	9370
926.352	9226
926.459	9291
926.566	9363
926.673	9310
926.779	9146
926.886	9093
926.993	8963
927.099	8979
927.206	8921
927.312	8880
927.419	9055
927.525	8971
927.631	9039
927.737	8883
927.843	8880
927.95	8773
928.056	8849
928.162	8925
928.267	8921
928.373	9580
928.479	8960
928.585	8739
928.69	8857
928.796	8872
928.901	8758
929.007	8701
929.112	8861
929.218	8735
929.323	8819
929.428	8708
929.533	8883
929.638	8648
929.743	8655
929.848	8651
929.953	8701
930.058	8598
930.163	8488
930.267	8484
930.372	8640
930.477	8473
930.581	8670
930.685	8594
930.79	8415
930.894	8454
930.998	8358
931.103	8522
931.207	8191
931.311	8157
931.415	8134
931.519	7993
931.623	7860
