Data from test_V78500241_2076.txt Node
Date: Fri Mar 25 14:48:10 CST 2022
User: usil
Spectrometer: V785-0024
Trigger mode: 0
Integration Time (sec): 4.000000E-1
Scans to average: 1
Nonlinearity correction enabled: false
Boxcar width: 0
Storing dark spectrum: false
XAxis mode: Wavelengths
Number of Pixels in Spectrum: 1024
>>>>>Begin Spectral Data<<<<<
801.071	22185
801.214	21945
801.356	21701
801.499	21591
801.641	21504
801.783	21496
801.926	21447
802.068	21397
802.211	21496
802.353	21336
802.496	20994
802.638	20944
802.78	20895
802.923	20891
803.065	20785
803.208	20781
803.35	20807
803.492	20925
803.635	21009
803.777	20849
803.919	20899
804.061	21127
804.204	20941
804.346	20819
804.488	20769
804.63	20743
804.773	20697
804.915	20750
805.057	20823
805.199	20750
805.341	20842
805.483	20868
805.626	20807
805.768	20674
805.91	20769
806.052	20708
806.194	20621
806.336	20746
806.478	20693
806.62	20735
806.762	20811
806.904	20929
807.046	21249
807.188	21070
807.33	21062
807.472	21154
807.614	20960
807.756	21043
807.898	20914
808.04	20792
808.182	20781
808.324	20887
808.465	20910
808.607	20948
808.749	21222
808.891	21275
809.033	21370
809.174	21154
809.316	21096
809.458	21123
809.6	21058
809.741	21176
809.883	21184
810.025	21287
810.166	21397
810.308	21264
810.45	21275
810.591	21131
810.733	20990
810.875	20914
811.016	20807
811.158	20807
811.299	20994
811.441	21020
811.582	20910
811.724	20891
811.865	20921
812.007	20864
812.148	20948
812.29	20872
812.431	21013
812.573	21131
812.714	21233
812.855	21378
812.997	21561
813.138	21648
813.279	21618
813.421	21363
813.562	21386
813.703	21252
813.845	21024
813.986	20804
814.127	20552
814.268	20461
814.41	20457
814.551	20556
814.692	20442
814.833	20396
814.974	20351
815.115	20374
815.256	20381
815.397	20438
815.539	20221
815.68	20317
815.821	20161
815.962	20233
816.103	20153
816.244	20054
816.385	19970
816.526	19944
816.666	19662
816.807	19704
816.948	19712
817.089	19696
817.23	19674
817.371	19540
817.512	19540
817.653	19518
817.793	19476
817.934	19499
818.075	19582
818.216	19597
818.356	19502
818.497	19472
818.638	19225
818.778	19202
818.919	19251
819.06	19244
819.2	19369
819.341	19453
819.481	19483
819.622	19693
819.762	19727
819.903	19715
820.043	19719
820.184	19571
820.324	19594
820.465	19662
820.605	19559
820.746	19419
820.886	19373
821.026	19453
821.167	19639
821.307	19643
821.447	19506
821.588	19449
821.728	19278
821.868	19228
822.008	19069
822.149	18981
822.289	18958
822.429	18700
822.569	18673
822.709	18692
822.849	18433
822.99	18422
823.13	18544
823.27	18403
823.41	18319
823.55	18235
823.69	18319
823.83	18247
823.97	18186
824.11	18057
824.25	17980
824.389	18117
824.529	18087
824.669	18064
824.809	18098
824.949	18087
825.089	18087
825.228	18087
825.368	17901
825.508	17832
825.648	17901
825.787	17824
825.927	17912
826.067	17790
826.206	17703
826.346	17805
826.485	17722
826.625	17790
826.765	17870
826.904	17916
827.044	17615
827.183	17634
827.323	17482
827.462	17611
827.601	17463
827.741	17509
827.88	17577
828.02	17368
828.159	17554
828.298	17497
828.437	17520
828.577	17387
828.716	17627
828.855	17493
828.994	17258
829.134	17288
829.273	17368
829.412	17277
829.551	17307
829.69	17212
829.829	17265
829.968	17345
830.107	17330
830.246	17326
830.385	17200
830.524	17220
830.663	17185
830.802	17006
830.941	16850
831.08	16866
831.219	17037
831.357	16881
831.496	17162
831.635	16866
831.774	16858
831.913	16763
832.051	16694
832.19	16622
832.329	16809
832.467	16679
832.606	16516
832.744	16519
832.883	16569
833.022	16584
833.16	16664
833.299	16599
833.437	16577
833.576	16706
833.714	16637
833.852	16713
833.991	16656
834.129	16752
834.267	16668
834.406	16618
834.544	16721
834.682	16687
834.821	16637
834.959	16778
835.097	16531
835.235	16729
835.373	16801
835.511	16694
835.65	16535
835.788	16478
835.926	16470
836.064	16344
836.202	16398
836.34	16531
836.478	16569
836.615	16599
836.753	16584
836.891	16702
837.029	16561
837.167	16459
837.305	16497
837.443	16360
837.58	16443
837.718	16497
837.856	16360
837.993	16363
838.131	16379
838.269	16299
838.406	16466
838.544	16295
838.681	16116
838.819	16067
838.956	15934
839.094	15937
839.231	16006
839.369	16147
839.506	16306
839.643	16226
839.781	16040
839.918	15945
840.055	15922
840.193	15937
840.33	15915
840.467	15915
840.604	15918
840.742	16139
840.879	15857
841.016	15930
841.153	15846
841.29	15987
841.427	16013
841.564	16055
841.701	16048
841.838	15915
841.975	15846
842.112	15827
842.249	15838
842.385	15660
842.522	15861
842.659	15713
842.796	15622
842.933	15797
843.069	15690
843.206	15599
843.343	15892
843.479	15770
843.616	15816
843.752	15542
843.889	15534
844.025	15705
844.162	15511
844.298	15625
844.435	15637
844.571	15526
844.708	15473
844.844	15663
844.98	15694
845.117	15606
845.253	15564
845.389	15435
845.525	15405
845.661	15504
845.798	15268
845.934	15416
846.07	15195
846.206	15439
846.342	15439
846.478	15348
846.614	15131
846.75	15142
846.886	15028
847.022	15264
847.158	15154
847.294	15112
847.429	15275
847.565	15081
847.701	15401
847.837	14777
847.972	14807
848.108	14933
848.244	14883
848.379	14796
848.515	14739
848.65	14632
848.786	14724
848.921	14606
849.057	14701
849.192	14743
849.328	14640
849.463	14701
849.598	14629
849.734	14674
849.869	14579
850.004	14412
850.14	14476
850.275	14549
850.41	14366
850.545	14374
850.68	14480
850.815	14480
850.95	14385
851.085	14644
851.22	14610
851.355	14537
851.49	14442
851.625	14389
851.76	14457
851.895	14347
852.03	14381
852.165	14393
852.299	14427
852.434	14552
852.569	14412
852.703	14511
852.838	14518
852.973	14613
853.107	14545
853.242	14385
853.376	14343
853.511	14317
853.645	14339
853.78	14446
853.914	14393
854.048	14225
854.183	14233
854.317	14347
854.451	14465
854.585	14301
854.72	14233
854.854	14328
854.988	14267
855.122	14237
855.256	14153
855.39	14282
855.524	14347
855.658	14389
855.792	14374
855.926	14381
856.06	14393
856.194	14473
856.327	14374
856.461	14248
856.595	14324
856.729	14423
856.862	14469
856.996	14294
857.13	14351
857.263	14434
857.397	14385
857.53	14294
857.664	14324
857.797	14374
857.931	14450
858.064	14385
858.197	14461
858.331	14317
858.464	14267
858.597	14229
858.731	14313
858.864	14313
858.997	14275
859.13	14434
859.263	14324
859.396	14480
859.529	14339
859.662	14305
859.795	14206
859.928	14263
860.061	14530
860.194	14419
860.327	14358
860.46	14282
860.592	14412
860.725	14499
860.858	14415
860.99	14290
861.123	14317
861.256	14263
861.388	14465
861.521	14998
861.653	14233
861.786	14195
861.918	14214
862.05	14290
862.183	14324
862.315	14305
862.447	14381
862.58	14275
862.712	14145
862.844	14065
862.976	14195
863.108	14126
863.24	14427
863.372	14035
863.504	14065
863.636	14046
863.768	14218
863.9	14149
864.032	14005
864.164	14020
864.296	14115
864.428	14180
864.559	14096
864.691	14221
864.823	14145
864.954	14115
865.086	14214
865.217	14069
865.349	14153
865.48	14107
865.612	14039
865.743	14278
865.875	14001
866.006	14065
866.137	14142
866.269	13993
866.4	14084
866.531	14027
866.662	13963
866.793	14077
866.924	13986
867.055	14058
867.186	14092
867.317	14058
867.448	14027
867.579	13997
867.71	14008
867.841	13989
867.972	14115
868.103	13997
868.233	14176
868.364	14111
868.495	14191
868.625	14404
868.756	14457
868.886	14309
869.017	14206
869.147	14290
869.278	14476
869.408	14423
869.539	14351
869.669	14469
869.799	14358
869.929	14461
870.06	14412
870.19	14670
870.32	14655
870.45	14746
870.58	14743
870.71	14815
870.84	14815
870.97	14651
871.1	14651
871.23	14845
871.36	14971
871.489	14788
871.619	14861
871.749	14895
871.879	14937
872.008	15013
872.138	14971
872.267	14880
872.397	14754
872.526	14792
872.656	14739
872.785	14819
872.915	15039
873.044	14986
873.173	15009
873.303	14994
873.432	14944
873.561	15024
873.69	14990
873.819	14918
873.948	15123
874.077	14921
874.206	14960
874.335	14994
874.464	15150
874.593	15237
874.722	15272
874.851	15313
874.979	15207
875.108	15359
875.237	15287
875.365	15157
875.494	15241
875.623	15317
875.751	15272
875.88	15355
876.008	15401
876.136	15477
876.265	15701
876.393	15857
876.521	15751
876.65	15835
876.778	15656
876.906	15671
877.034	15587
877.162	15789
877.29	15561
877.418	15736
877.546	15717
877.674	15720
877.802	15690
877.93	15637
878.058	15694
878.185	15625
878.313	15755
878.441	15728
878.568	15603
878.696	15694
878.824	15713
878.951	15831
879.079	15876
879.206	16006
879.333	15861
879.461	15827
879.588	15854
879.715	15903
879.842	15972
879.97	15888
880.097	15618
880.224	15568
880.351	15549
880.478	15572
880.605	15564
880.732	15507
880.859	15827
880.986	15603
881.112	15603
881.239	15469
881.366	15447
881.493	15169
881.619	15268
881.746	15188
881.872	15260
881.999	15203
882.125	15272
882.252	15321
882.378	15260
882.505	15340
882.631	15131
882.757	15108
882.883	15188
883.01	15100
883.136	15085
883.262	14864
883.388	15017
883.514	15154
883.64	15165
883.766	15017
883.892	14933
884.018	14834
884.143	15074
884.269	15176
884.395	14887
884.52	14735
884.646	14834
884.772	14819
884.897	14765
885.023	14777
885.148	14830
885.274	14868
885.399	14918
885.524	14754
885.65	14735
885.775	14849
885.9	14781
886.025	14925
886.15	14918
886.275	14655
886.4	14750
886.525	14712
886.65	14659
886.775	14674
886.9	14944
887.025	14937
887.149	14716
887.274	14629
887.399	14530
887.523	14579
887.648	14423
887.773	14457
887.897	14720
888.021	14610
888.146	14571
888.27	14640
888.395	14678
888.519	14670
888.643	14651
888.767	14674
888.891	14480
889.015	14484
889.139	14571
889.263	14503
889.387	14663
889.511	14648
889.635	14560
889.759	14457
889.883	14522
890.006	14507
890.13	14552
890.254	14347
890.377	14362
890.501	14191
890.624	14259
890.748	14328
890.871	14259
890.995	14100
891.118	14024
891.241	14092
891.364	14161
891.488	14237
891.611	14115
891.734	14126
891.857	14221
891.98	14088
892.103	14233
892.226	14187
892.349	14172
892.471	14035
892.594	14172
892.717	14065
892.839	14123
892.962	14233
893.085	14317
893.207	14256
893.33	14050
893.452	14103
893.575	14191
893.697	14073
893.819	14278
893.941	14358
894.064	14339
894.186	14054
894.308	14103
894.43	14309
894.552	14374
894.674	14248
894.796	14119
894.918	14176
895.04	14138
895.161	14290
895.283	14290
895.405	14142
895.526	14328
895.648	14164
895.769	14263
895.891	14358
896.012	14324
896.134	14278
896.255	14389
896.376	14343
896.498	14355
896.619	14389
896.74	14343
896.861	14415
896.982	14655
897.103	14849
897.224	14659
897.345	14533
897.466	14495
897.587	14568
897.708	14720
897.828	14590
897.949	14522
898.07	14488
898.19	14590
898.311	14727
898.431	14556
898.552	14625
898.672	14701
898.792	14640
898.913	14720
899.033	14678
899.153	14571
899.273	14370
899.393	14503
899.513	14450
899.633	14568
899.753	14526
899.873	14419
899.993	14590
900.113	14488
900.232	14587
900.352	14408
900.472	14446
900.591	14362
900.711	14499
900.83	14240
900.95	14522
901.069	14541
901.189	14328
901.308	14058
901.427	14046
901.546	13997
901.665	14138
901.784	14088
901.904	13860
902.023	13837
902.141	13662
902.26	13658
902.379	13757
902.498	13662
902.617	13571
902.735	13731
902.854	13639
902.973	13616
903.091	13324
903.21	13343
903.328	13354
903.446	13285
903.565	13225
903.683	13194
903.801	13069
903.919	13168
904.038	13217
904.156	12966
904.274	13050
904.392	13015
904.51	12989
904.627	12989
904.745	13126
904.863	13046
904.981	12825
905.098	12722
905.216	12700
905.334	12833
905.451	12677
905.569	12707
905.686	12654
905.803	12810
905.921	12601
906.038	12646
906.155	12540
906.272	12452
906.389	12460
906.506	12247
906.623	12289
906.74	12315
906.857	12171
906.974	12258
907.091	12365
907.208	12414
907.324	12304
907.441	12201
907.557	12041
907.674	12015
907.79	11965
907.907	11992
908.023	12087
908.139	12049
908.256	12015
908.372	11961
908.488	11882
908.604	11836
908.72	11779
908.836	11805
908.952	11771
909.068	11722
909.184	11916
909.3	11764
909.415	11798
909.531	11691
909.647	11630
909.762	11630
909.878	11452
909.993	11600
910.108	11577
910.224	11524
910.339	11604
910.454	11497
910.57	11444
910.685	11452
910.8	11615
910.915	11619
911.03	11406
911.145	11269
911.259	11239
911.374	11311
911.489	11147
911.604	11185
911.718	10999
911.833	11022
911.947	10877
912.062	10824
912.176	11029
912.291	11033
912.405	11056
912.519	11265
912.633	11216
912.748	11113
912.862	11003
912.976	10877
913.09	10877
913.204	10835
913.318	10877
913.431	10987
913.545	10999
913.659	10972
913.772	10949
913.886	10820
914	10721
914.113	10885
914.226	10869
914.34	10805
914.453	10672
914.566	10976
914.68	10744
914.793	10786
914.906	10550
915.019	10481
915.132	10466
915.245	10523
915.358	10554
915.47	10622
915.583	10584
915.696	10577
915.809	10664
915.921	10641
916.034	10451
916.146	10523
916.259	10432
916.371	10512
916.483	10645
916.595	10527
916.708	10417
916.82	10459
916.932	10360
917.044	10398
917.156	10409
917.268	10398
917.38	10341
917.491	10318
917.603	10432
917.715	10421
917.826	10493
917.938	10314
918.049	10299
918.161	10386
918.272	10436
918.384	10523
918.495	10352
918.606	10242
918.717	10154
918.828	10192
918.939	10242
919.05	10166
919.161	10177
919.272	10063
919.383	10120
919.494	10280
919.604	10504
919.715	10322
919.826	10154
919.936	10200
920.047	10291
920.157	10303
920.267	10436
920.378	10348
920.488	10185
920.598	10535
920.708	10611
920.818	10386
920.928	10497
921.038	10637
921.148	10588
921.258	10272
921.368	10242
921.477	10105
921.587	10074
921.697	10013
921.806	10135
921.916	9934
922.025	9850
922.134	9781
922.244	9804
922.353	9873
922.462	9728
922.571	9595
922.68	9584
922.789	9595
922.898	9538
923.007	9511
923.116	9538
923.224	9526
923.333	9500
923.442	9408
923.55	9351
923.659	9416
923.767	9424
923.876	9336
923.984	9488
924.092	9275
924.201	9420
924.309	9443
924.417	9332
924.525	9256
924.633	9386
924.741	10253
924.849	9169
924.956	9249
925.064	9184
925.172	9154
925.279	9154
925.387	9188
925.494	9135
925.602	9332
925.709	9287
925.816	9058
925.924	9165
926.031	9222
926.138	9180
926.245	9233
926.352	9058
926.459	9230
926.566	9195
926.673	9131
926.779	8982
926.886	8956
926.993	8937
927.099	8861
927.206	8895
927.312	8823
927.419	8902
927.525	8948
927.631	8941
927.737	8868
927.843	8800
927.95	8648
928.056	8678
928.162	8826
928.267	8823
928.373	9386
928.479	8826
928.585	8693
928.69	8667
928.796	8815
928.901	8659
929.007	8625
929.112	8701
929.218	8644
929.323	8549
929.428	8625
929.533	8682
929.638	8526
929.743	8552
929.848	8632
929.953	8549
930.058	8484
930.163	8370
930.267	8355
930.372	8473
930.477	8229
930.581	8552
930.685	8400
930.79	8332
930.894	8343
930.998	8298
931.103	8362
931.207	8035
931.311	8088
931.415	8035
931.519	7784
931.623	7776
