Data from test_V78500241_2646.txt Node
Date: Fri Mar 25 14:52:08 CST 2022
User: usil
Spectrometer: V785-0024
Trigger mode: 0
Integration Time (sec): 4.000000E-1
Scans to average: 1
Nonlinearity correction enabled: false
Boxcar width: 0
Storing dark spectrum: false
XAxis mode: Wavelengths
Number of Pixels in Spectrum: 1024
>>>>>Begin Spectral Data<<<<<
801.071	21865
801.214	21941
801.356	21534
801.499	21534
801.641	21439
801.783	21481
801.926	21424
802.068	21306
802.211	21272
802.353	21192
802.496	20918
802.638	20906
802.78	20834
802.923	20823
803.065	20644
803.208	20602
803.35	20625
803.492	20887
803.635	20845
803.777	20712
803.919	20754
804.061	21081
804.204	20956
804.346	20564
804.488	20549
804.63	20689
804.773	20621
804.915	20629
805.057	20667
805.199	20571
805.341	20648
805.483	20758
805.626	20731
805.768	20560
805.91	20648
806.052	20594
806.194	20499
806.336	20857
806.478	20678
806.62	20606
806.762	20697
806.904	20842
807.046	21028
807.188	21020
807.33	20986
807.472	20998
807.614	20823
807.756	20914
807.898	20739
808.04	20564
808.182	20659
808.324	20632
808.465	20781
808.607	20880
808.749	20979
808.891	21085
809.033	21142
809.174	21089
809.316	20990
809.458	20929
809.6	20868
809.741	21173
809.883	20975
810.025	21176
810.166	21218
810.308	21081
810.45	21116
810.591	20921
810.733	20838
810.875	20746
811.016	20724
811.158	20609
811.299	20811
811.441	20701
811.582	20819
811.724	20701
811.865	20724
812.007	20743
812.148	20686
812.29	20724
812.431	21066
812.573	21024
812.714	21081
812.855	21287
812.997	21462
813.138	21412
813.279	21355
813.421	21161
813.562	20990
813.703	21024
813.845	20902
813.986	20648
814.127	20423
814.268	20381
814.41	20404
814.551	20298
814.692	20377
814.833	20134
814.974	20290
815.115	20317
815.256	20081
815.397	20145
815.539	20145
815.68	19928
815.821	19982
815.962	20024
816.103	19993
816.244	19795
816.385	19784
816.526	19784
816.666	19586
816.807	19502
816.948	19521
817.089	19544
817.23	19514
817.371	19392
817.512	19403
817.653	19415
817.793	19339
817.934	19419
818.075	19483
818.216	19411
818.356	19324
818.497	19282
818.638	19110
818.778	19091
818.919	19042
819.06	19061
819.2	19198
819.341	19255
819.481	19285
819.622	19449
819.762	19624
819.903	19514
820.043	19483
820.184	19449
820.324	19419
820.465	19422
820.605	19316
820.746	19396
820.886	19221
821.026	19453
821.167	19365
821.307	19350
821.447	19377
821.588	19247
821.728	19118
821.868	18916
822.008	18810
822.149	18791
822.289	18757
822.429	18585
822.569	18566
822.709	18513
822.849	18441
822.99	18292
823.13	18319
823.27	18273
823.41	18155
823.55	18030
823.69	18117
823.83	18026
823.97	17942
824.11	17950
824.25	17866
824.389	17950
824.529	17977
824.669	17802
824.809	17988
824.949	18064
825.089	18022
825.228	17908
825.368	17661
825.508	17646
825.648	17665
825.787	17668
825.927	17794
826.067	17543
826.206	17672
826.346	17741
826.485	17699
826.625	17680
826.765	17741
826.904	17630
827.044	17528
827.183	17573
827.323	17280
827.462	17391
827.601	17455
827.741	17360
827.88	17326
828.02	17151
828.159	17299
828.298	17334
828.437	17444
828.577	17353
828.716	17474
828.855	17258
828.994	17235
829.134	17102
829.273	17197
829.412	17041
829.551	17048
829.69	17022
829.829	17102
829.968	17128
830.107	17178
830.246	17102
830.385	17094
830.524	16987
830.663	16946
830.802	16858
830.941	16774
831.08	16752
831.219	16816
831.357	16786
831.496	16999
831.635	16664
831.774	16656
831.913	16542
832.051	16523
832.19	16485
832.329	16634
832.467	16382
832.606	16299
832.744	16428
832.883	16436
833.022	16352
833.16	16489
833.299	16478
833.437	16497
833.576	16474
833.714	16546
833.852	16500
833.991	16371
834.129	16478
834.267	16462
834.406	16432
834.544	16516
834.682	16432
834.821	16497
834.959	16668
835.097	16417
835.235	16626
835.373	16535
835.511	16565
835.65	16474
835.788	16443
835.926	16207
836.064	16207
836.202	16303
836.34	16379
836.478	16523
836.615	16375
836.753	16390
836.891	16489
837.029	16485
837.167	16261
837.305	16352
837.443	16440
837.58	16226
837.718	16310
837.856	16291
837.993	16131
838.131	16329
838.269	16242
838.406	16215
838.544	16150
838.681	16086
838.819	16010
838.956	15781
839.094	15842
839.231	15941
839.369	15892
839.506	16284
839.643	16131
839.781	15846
839.918	15953
840.055	15812
840.193	15751
840.33	15838
840.467	15709
840.604	15804
840.742	16112
840.879	15838
841.016	15701
841.153	15629
841.29	15873
841.427	15857
841.564	15876
841.701	15918
841.838	15827
841.975	15774
842.112	15675
842.249	15701
842.385	15644
842.522	15793
842.659	15713
842.796	15542
842.933	15561
843.069	15572
843.206	15599
843.343	15720
843.479	15663
843.616	15584
843.752	15382
843.889	15462
844.025	15485
844.162	15500
844.298	15564
844.435	15382
844.571	15291
844.708	15424
844.844	15553
844.98	15667
845.117	15538
845.253	15313
845.389	15272
845.525	15252
845.661	15393
845.798	15298
845.934	15291
846.07	15226
846.206	15226
846.342	15332
846.478	15157
846.614	15108
846.75	14937
846.886	14998
847.022	15097
847.158	14956
847.294	14990
847.429	14910
847.565	15043
847.701	15237
847.837	14785
847.972	14754
848.108	14754
848.244	14807
848.379	14648
848.515	14492
848.65	14480
848.786	14594
848.921	14575
849.057	14689
849.192	14632
849.328	14629
849.463	14606
849.598	14651
849.734	14507
849.869	14476
850.004	14389
850.14	14427
850.275	14389
850.41	14343
850.545	14366
850.68	14214
850.815	14393
850.95	14480
851.085	14541
851.22	14549
851.355	14328
851.49	14278
851.625	14301
851.76	14332
851.895	14153
852.03	14202
852.165	14199
852.299	14419
852.434	14427
852.569	14324
852.703	14328
852.838	14442
852.973	14469
853.107	14457
853.242	14267
853.376	14305
853.511	14046
853.645	14195
853.78	14419
853.914	14252
854.048	14111
854.183	14180
854.317	14305
854.451	14355
854.585	14180
854.72	14157
854.854	14271
854.988	14119
855.122	14229
855.256	14062
855.39	14210
855.524	14282
855.658	14267
855.792	14317
855.926	14214
856.06	14286
856.194	14339
856.327	14221
856.461	14233
856.595	14157
856.729	14161
856.862	14301
856.996	14214
857.13	14214
857.263	14294
857.397	14370
857.53	14180
857.664	14294
857.797	14362
857.931	14286
858.064	14199
858.197	14385
858.331	14290
858.464	14221
858.597	14092
858.731	14176
858.864	14309
858.997	14286
859.13	14256
859.263	14309
859.396	14317
859.529	14221
859.662	14199
859.795	14191
859.928	14233
860.061	14336
860.194	14442
860.327	14317
860.46	14218
860.592	14385
860.725	14336
860.858	14355
860.99	14176
861.123	14027
861.256	14183
861.388	14233
861.521	14914
861.653	14145
861.786	14027
861.918	14111
862.05	14126
862.183	14195
862.315	14267
862.447	14100
862.58	14180
862.712	14005
862.844	13951
862.976	14103
863.108	14065
863.24	14469
863.372	13925
863.504	14065
863.636	13967
863.768	14012
863.9	14084
864.032	13860
864.164	13982
864.296	14008
864.428	14119
864.559	14077
864.691	14164
864.823	14084
864.954	14020
865.086	14065
865.217	13951
865.349	13951
865.48	14008
865.612	14065
865.743	14081
865.875	14043
866.006	13947
866.137	14065
866.269	14005
866.4	14027
866.531	13860
866.662	13944
866.793	13909
866.924	13940
867.055	14020
867.186	13997
867.317	14008
867.448	13978
867.579	13932
867.71	13955
867.841	13932
867.972	13978
868.103	14016
868.233	14062
868.364	14005
868.495	14005
868.625	14233
868.756	14381
868.886	14123
869.017	14210
869.147	14332
869.278	14309
869.408	14244
869.539	14168
869.669	14336
869.799	14324
869.929	14332
870.06	14191
870.19	14541
870.32	14594
870.45	14541
870.58	14575
870.71	14868
870.84	14807
870.97	14648
871.1	14659
871.23	14834
871.36	14811
871.489	14731
871.619	14785
871.749	14887
871.879	14861
872.008	15001
872.138	14902
872.267	14811
872.397	14758
872.526	14678
872.656	14667
872.785	14746
872.915	14819
873.044	14914
873.173	14933
873.303	14864
873.432	14887
873.561	15017
873.69	14895
873.819	14918
873.948	14982
874.077	14910
874.206	14864
874.335	14849
874.464	15051
874.593	15146
874.722	15123
874.851	15279
874.979	15252
875.108	15249
875.237	15127
875.365	15123
875.494	15184
875.623	15317
875.751	15188
875.88	15275
876.008	15363
876.136	15454
876.265	15671
876.393	15724
876.521	15622
876.65	15701
876.778	15720
876.906	15606
877.034	15625
877.162	15473
877.29	15557
877.418	15580
877.546	15652
877.674	15709
877.802	15622
877.93	15644
878.058	15561
878.185	15553
878.313	15488
878.441	15644
878.568	15447
878.696	15519
878.824	15610
878.951	15698
879.079	15762
879.206	15819
879.333	15789
879.461	15625
879.588	15694
879.715	15800
879.842	15937
879.97	15644
880.097	15500
880.224	15416
880.351	15466
880.478	15561
880.605	15431
880.732	15519
880.859	15766
880.986	15595
881.112	15519
881.239	15306
881.366	15291
881.493	15260
881.619	15108
881.746	15131
881.872	15138
881.999	15108
882.125	15165
882.252	15203
882.378	15135
882.505	15260
882.631	15077
882.757	14876
882.883	14982
883.01	14933
883.136	14982
883.262	14777
883.388	14762
883.514	14906
883.64	14918
883.766	14986
883.892	14777
884.018	14743
884.143	14944
884.269	15036
884.395	14632
884.52	14625
884.646	14648
884.772	14552
884.897	14473
885.023	14678
885.148	14880
885.274	14800
885.399	14693
885.524	14644
885.65	14564
885.775	14682
885.9	14613
886.025	14712
886.15	14594
886.275	14602
886.4	14537
886.525	14575
886.65	14579
886.775	14564
886.9	14686
887.025	14838
887.149	14712
887.274	14473
887.399	14358
887.523	14434
887.648	14503
887.773	14423
887.897	14537
888.021	14632
888.146	14423
888.27	14552
888.395	14594
888.519	14556
888.643	14602
888.767	14590
888.891	14465
889.015	14301
889.139	14438
889.263	14202
889.387	14351
889.511	14564
889.635	14522
889.759	14366
889.883	14423
890.006	14415
890.13	14469
890.254	14298
890.377	14332
890.501	14103
890.624	14176
890.748	14301
890.871	14130
890.995	13989
891.118	13940
891.241	13997
891.364	14062
891.488	14142
891.611	13989
891.734	14039
891.857	14103
891.98	13993
892.103	14134
892.226	14027
892.349	14081
892.471	13871
892.594	13955
892.717	14103
892.839	14027
892.962	14050
893.085	14176
893.207	14046
893.33	13955
893.452	13967
893.575	14138
893.697	14027
893.819	14081
893.941	14202
894.064	14275
894.186	14012
894.308	14027
894.43	14111
894.552	14263
894.674	14206
894.796	14001
894.918	14035
895.04	14077
895.161	14210
895.283	14123
895.405	14088
895.526	14206
895.648	14149
895.769	14183
895.891	14172
896.012	14248
896.134	14275
896.255	14210
896.376	14282
896.498	14210
896.619	14244
896.74	14263
896.861	14328
896.982	14492
897.103	14659
897.224	14446
897.345	14469
897.466	14339
897.587	14476
897.708	14678
897.828	14476
897.949	14480
898.07	14393
898.19	14473
898.311	14537
898.431	14537
898.552	14541
898.672	14674
898.792	14667
898.913	14575
899.033	14530
899.153	14404
899.273	14389
899.393	14400
899.513	14511
899.633	14473
899.753	14522
899.873	14351
899.993	14396
900.113	14511
900.232	14404
900.352	14408
900.472	14271
900.591	14142
900.711	14290
900.83	14225
900.95	14320
901.069	14457
901.189	14187
901.308	13986
901.427	14031
901.546	13887
901.665	13955
901.784	13974
901.904	13856
902.023	13769
902.141	13571
902.26	13483
902.379	13559
902.498	13556
902.617	13499
902.735	13434
902.854	13590
902.973	13422
903.091	13263
903.21	13255
903.328	13244
903.446	13141
903.565	13107
903.683	13110
903.801	12966
903.919	13160
904.038	13050
904.156	12825
904.274	12985
904.392	12913
904.51	12924
904.627	12951
904.745	12951
904.863	12996
904.981	12795
905.098	12684
905.216	12662
905.334	12608
905.451	12616
905.569	12658
905.686	12688
905.803	12738
905.921	12437
906.038	12479
906.155	12441
906.272	12338
906.389	12308
906.506	12228
906.623	12190
906.74	12262
906.857	12163
906.974	12087
907.091	12228
907.208	12300
907.324	12235
907.441	12064
907.557	11912
907.674	11984
907.79	11817
907.907	11870
908.023	11977
908.139	12038
908.256	11935
908.372	11847
908.488	11843
908.604	11726
908.72	11634
908.836	11794
908.952	11699
909.068	11745
909.184	11790
909.3	11714
909.415	11726
909.531	11691
909.647	11505
909.762	11455
909.878	11429
909.993	11516
910.108	11493
910.224	11554
910.339	11452
910.454	11318
910.57	11315
910.685	11318
910.8	11547
910.915	11467
911.03	11303
911.145	11166
911.259	11220
911.374	11166
911.489	11155
911.604	11025
911.718	10984
911.833	10934
911.947	10911
912.062	10767
912.176	10873
912.291	10942
912.405	10961
912.519	11109
912.633	11174
912.748	11048
912.862	10915
912.976	10835
913.09	10774
913.204	10767
913.318	10869
913.431	10904
913.545	10946
913.659	10946
913.772	10927
913.886	10664
914	10675
914.113	10835
914.226	10858
914.34	10858
914.453	10668
914.566	10862
914.68	10694
914.793	10615
914.906	10466
915.019	10402
915.132	10367
915.245	10424
915.358	10409
915.47	10497
915.583	10531
915.696	10512
915.809	10542
915.921	10577
916.034	10402
916.146	10398
916.259	10310
916.371	10436
916.483	10386
916.595	10363
916.708	10386
916.82	10348
916.932	10310
917.044	10371
917.156	10367
917.268	10272
917.38	10306
917.491	10207
917.603	10318
917.715	10382
917.826	10459
917.938	10242
918.049	10097
918.161	10333
918.272	10428
918.384	10352
918.495	10265
918.606	10227
918.717	10105
918.828	10181
918.939	10166
919.05	10044
919.161	10109
919.272	9960
919.383	10063
919.494	10230
919.604	10375
919.715	10120
919.826	10093
919.936	10257
920.047	10219
920.157	10105
920.267	10352
920.378	10211
920.488	10143
920.598	10390
920.708	10523
920.818	10405
920.928	10337
921.038	10497
921.148	10527
921.258	10314
921.368	10169
921.477	10040
921.587	10048
921.697	9880
921.806	10048
921.916	9930
922.025	9816
922.134	9816
922.244	9682
922.353	9831
922.462	9564
922.571	9572
922.68	9504
922.789	9424
922.898	9447
923.007	9336
923.116	9492
923.224	9462
923.333	9473
923.442	9393
923.55	9313
923.659	9355
923.767	9473
923.876	9321
923.984	9332
924.092	9253
924.201	9302
924.309	9325
924.417	9317
924.525	9203
924.633	9287
924.741	10006
924.849	9020
924.956	9169
925.064	9055
925.172	9058
925.279	8994
925.387	9093
925.494	9074
925.602	9222
925.709	9218
925.816	8971
925.924	8990
926.031	9188
926.138	9051
926.245	9077
926.352	9119
926.459	9237
926.566	9180
926.673	9020
926.779	8975
926.886	8956
926.993	8880
927.099	8834
927.206	8724
927.312	8823
927.419	8925
927.525	8868
927.631	8925
927.737	8739
927.843	8682
927.95	8545
928.056	8712
928.162	8724
928.267	8769
928.373	9389
928.479	8845
928.585	8533
928.69	8678
928.796	8807
928.901	8640
929.007	8465
929.112	8678
929.218	8610
929.323	8568
929.428	8560
929.533	8583
929.638	8431
929.743	8503
929.848	8564
929.953	8469
930.058	8434
930.163	8252
930.267	8294
930.372	8454
930.477	8233
930.581	8530
930.685	8313
930.79	8206
930.894	8309
930.998	8240
931.103	8381
931.207	8024
931.311	7982
931.415	7875
931.519	7792
931.623	7830
