Data from test_V78500241_2700.txt Node
Date: Fri Mar 25 14:52:30 CST 2022
User: usil
Spectrometer: V785-0024
Trigger mode: 0
Integration Time (sec): 4.000000E-1
Scans to average: 1
Nonlinearity correction enabled: false
Boxcar width: 0
Storing dark spectrum: false
XAxis mode: Wavelengths
Number of Pixels in Spectrum: 1024
>>>>>Begin Spectral Data<<<<<
801.071	22116
801.214	21869
801.356	21572
801.499	21633
801.641	21492
801.783	21378
801.926	21374
802.068	21454
802.211	21367
802.353	21150
802.496	21009
802.638	20933
802.78	20781
802.923	20758
803.065	20644
803.208	20686
803.35	20777
803.492	20678
803.635	20823
803.777	20579
803.919	20918
804.061	21058
804.204	20876
804.346	20769
804.488	20583
804.63	20701
804.773	20655
804.915	20686
805.057	20720
805.199	20518
805.341	20701
805.483	20804
805.626	20731
805.768	20598
805.91	20743
806.052	20568
806.194	20461
806.336	20693
806.478	20804
806.62	20674
806.762	20750
806.904	20880
807.046	21024
807.188	20887
807.33	20971
807.472	20952
807.614	20792
807.756	20857
807.898	20773
808.04	20629
808.182	20693
808.324	20765
808.465	20708
808.607	20830
808.749	21146
808.891	21070
809.033	21138
809.174	21066
809.316	20815
809.458	21070
809.6	20796
809.741	21024
809.883	21020
810.025	21135
810.166	21226
810.308	21108
810.45	21081
810.591	20952
810.733	20895
810.875	20758
811.016	20617
811.158	20636
811.299	20842
811.441	20880
811.582	20906
811.724	20769
811.865	20686
812.007	20739
812.148	20708
812.29	20765
812.431	20937
812.573	21062
812.714	21230
812.855	21249
812.997	21393
813.138	21458
813.279	21420
813.421	21195
813.562	21264
813.703	20952
813.845	20857
813.986	20537
814.127	20511
814.268	20252
814.41	20317
814.551	20370
814.692	20377
814.833	20298
814.974	20259
815.115	20286
815.256	20180
815.397	20191
815.539	20202
815.68	20081
815.821	19879
815.962	20012
816.103	20077
816.244	19883
816.385	19772
816.526	19803
816.666	19510
816.807	19407
816.948	19613
817.089	19575
817.23	19525
817.371	19430
817.512	19506
817.653	19472
817.793	19350
817.934	19274
818.075	19430
818.216	19438
818.356	19324
818.497	19232
818.638	19004
818.778	19015
818.919	19114
819.06	19095
819.2	19259
819.341	19228
819.481	19358
819.622	19487
819.762	19693
819.903	19556
820.043	19514
820.184	19472
820.324	19495
820.465	19521
820.605	19491
820.746	19426
820.886	19236
821.026	19449
821.167	19392
821.307	19415
821.447	19362
821.588	19228
821.728	19145
821.868	19000
822.008	18806
822.149	18871
822.289	18802
822.429	18715
822.569	18551
822.709	18589
822.849	18327
822.99	18353
823.13	18319
823.27	18296
823.41	18133
823.55	18049
823.69	18224
823.83	18121
823.97	18125
824.11	17920
824.25	17908
824.389	17878
824.529	18068
824.669	17939
824.809	17870
824.949	17969
825.089	17817
825.228	17950
825.368	17821
825.508	17760
825.648	17790
825.787	17760
825.927	17661
826.067	17627
826.206	17634
826.346	17729
826.485	17775
826.625	17771
826.765	17779
826.904	17676
827.044	17490
827.183	17376
827.323	17406
827.462	17425
827.601	17444
827.741	17318
827.88	17379
828.02	17299
828.159	17402
828.298	17379
828.437	17440
828.577	17337
828.716	17566
828.855	17414
828.994	17254
829.134	17117
829.273	17170
829.412	17071
829.551	17117
829.69	17048
829.829	17242
829.968	17273
830.107	17197
830.246	17208
830.385	17105
830.524	16972
830.663	16949
830.802	16828
830.941	16835
831.08	16790
831.219	16869
831.357	16904
831.496	16942
831.635	16816
831.774	16710
831.913	16698
832.051	16538
832.19	16618
832.329	16653
832.467	16558
832.606	16500
832.744	16371
832.883	16451
833.022	16481
833.16	16554
833.299	16504
833.437	16489
833.576	16531
833.714	16466
833.852	16447
833.991	16577
834.129	16573
834.267	16577
834.406	16535
834.544	16596
834.682	16542
834.821	16485
834.959	16744
835.097	16455
835.235	16649
835.373	16554
835.511	16546
835.65	16451
835.788	16474
835.926	16196
836.064	16219
836.202	16268
836.34	16470
836.478	16478
836.615	16493
836.753	16504
836.891	16577
837.029	16535
837.167	16405
837.305	16310
837.443	16344
837.58	16325
837.718	16322
837.856	16325
837.993	16360
838.131	16291
838.269	16257
838.406	16234
838.544	16211
838.681	15945
838.819	16036
838.956	15770
839.094	15846
839.231	15861
839.369	15991
839.506	16158
839.643	16086
839.781	15934
839.918	15880
840.055	15861
840.193	15861
840.33	15835
840.467	15781
840.604	15964
840.742	16090
840.879	15671
841.016	15778
841.153	15793
841.29	15956
841.427	15895
841.564	15960
841.701	15903
841.838	15819
841.975	15846
842.112	15743
842.249	15762
842.385	15656
842.522	15823
842.659	15747
842.796	15614
842.933	15625
843.069	15610
843.206	15595
843.343	15755
843.479	15705
843.616	15679
843.752	15507
843.889	15473
844.025	15485
844.162	15439
844.298	15595
844.435	15450
844.571	15458
844.708	15587
844.844	15580
844.98	15572
845.117	15504
845.253	15332
845.389	15256
845.525	15302
845.661	15382
845.798	15184
845.934	15363
846.07	15138
846.206	15306
846.342	15401
846.478	15169
846.614	15138
846.75	15058
846.886	15093
847.022	15157
847.158	15085
847.294	14982
847.429	15020
847.565	15024
847.701	15287
847.837	14788
847.972	14739
848.108	14796
848.244	14887
848.379	14712
848.515	14594
848.65	14621
848.786	14613
848.921	14636
849.057	14701
849.192	14693
849.328	14632
849.463	14689
849.598	14636
849.734	14545
849.869	14476
850.004	14412
850.14	14370
850.275	14431
850.41	14202
850.545	14282
850.68	14385
850.815	14476
850.95	14336
851.085	14587
851.22	14473
851.355	14415
851.49	14339
851.625	14366
851.76	14370
851.895	14271
852.03	14259
852.165	14313
852.299	14419
852.434	14438
852.569	14278
852.703	14465
852.838	14476
852.973	14533
853.107	14518
853.242	14396
853.376	14267
853.511	14054
853.645	14176
853.78	14328
853.914	14263
854.048	14161
854.183	14168
854.317	14294
854.451	14408
854.585	14202
854.72	14172
854.854	14290
854.988	14195
855.122	14237
855.256	14065
855.39	14210
855.524	14351
855.658	14309
855.792	14301
855.926	14309
856.06	14267
856.194	14446
856.327	14221
856.461	14191
856.595	14183
856.729	14225
856.862	14442
856.996	14244
857.13	14180
857.263	14374
857.397	14465
857.53	14233
857.664	14347
857.797	14370
857.931	14393
858.064	14389
858.197	14351
858.331	14309
858.464	14218
858.597	14229
858.731	14263
858.864	14214
858.997	14259
859.13	14317
859.263	14328
859.396	14271
859.529	14202
859.662	14172
859.795	14271
859.928	14290
860.061	14412
860.194	14454
860.327	14290
860.46	14180
860.592	14294
860.725	14419
860.858	14400
860.99	14218
861.123	14187
861.256	14210
861.388	14221
861.521	14815
861.653	14153
861.786	14096
861.918	14210
862.05	14237
862.183	14199
862.315	14286
862.447	14343
862.58	14187
862.712	14035
862.844	13909
862.976	14005
863.108	14084
863.24	14545
863.372	14008
863.504	14046
863.636	14058
863.768	14126
863.9	14005
864.032	13951
864.164	14043
864.296	14035
864.428	14096
864.559	14195
864.691	14153
864.823	14069
864.954	14024
865.086	14046
865.217	13970
865.349	13974
865.48	14024
865.612	13978
865.743	14180
865.875	14046
866.006	14027
866.137	14077
866.269	14039
866.4	14005
866.531	14012
866.662	13963
866.793	13982
866.924	13936
867.055	14024
867.186	14035
867.317	13982
867.448	13826
867.579	13894
867.71	13947
867.841	13940
867.972	14123
868.103	13993
868.233	14081
868.364	14088
868.495	14069
868.625	14191
868.756	14320
868.886	14256
869.017	14218
869.147	14446
869.278	14473
869.408	14263
869.539	14332
869.669	14332
869.799	14404
869.929	14362
870.06	14419
870.19	14644
870.32	14522
870.45	14617
870.58	14693
870.71	14754
870.84	14777
870.97	14655
871.1	14571
871.23	14887
871.36	14777
871.489	14811
871.619	14838
871.749	14902
871.879	14963
872.008	14906
872.138	14872
872.267	14868
872.397	14762
872.526	14743
872.656	14682
872.785	14708
872.915	14937
873.044	14967
873.173	14769
873.303	15020
873.432	14975
873.561	15051
873.69	14933
873.819	14876
873.948	15047
874.077	14963
874.206	14902
874.335	14941
874.464	15062
874.593	15214
874.722	15184
874.851	15142
874.979	15207
875.108	15199
875.237	15127
875.365	15184
875.494	15241
875.623	15283
875.751	15226
875.88	15313
876.008	15317
876.136	15355
876.265	15709
876.393	15785
876.521	15732
876.65	15732
876.778	15751
876.906	15610
877.034	15675
877.162	15667
877.29	15584
877.418	15694
877.546	15572
877.674	15644
877.802	15663
877.93	15698
878.058	15675
878.185	15561
878.313	15606
878.441	15675
878.568	15485
878.696	15618
878.824	15652
878.951	15724
879.079	15774
879.206	15975
879.333	15793
879.461	15690
879.588	15800
879.715	15918
879.842	15884
879.97	15720
880.097	15504
880.224	15439
880.351	15507
880.478	15538
880.605	15477
880.732	15485
880.859	15732
880.986	15481
881.112	15584
881.239	15302
881.366	15389
881.493	15154
881.619	15100
881.746	15161
881.872	15154
881.999	15154
882.125	15169
882.252	15222
882.378	15195
882.505	15321
882.631	15058
882.757	15032
882.883	15039
883.01	14975
883.136	14937
883.262	14826
883.388	14853
883.514	14933
883.64	14990
883.766	14823
883.892	14678
884.018	14739
884.143	14998
884.269	15013
884.395	14708
884.52	14705
884.646	14686
884.772	14663
884.897	14541
885.023	14739
885.148	14838
885.274	14861
885.399	14754
885.524	14724
885.65	14708
885.775	14724
885.9	14701
886.025	14796
886.15	14842
886.275	14564
886.4	14530
886.525	14545
886.65	14568
886.775	14575
886.9	14773
887.025	14956
887.149	14682
887.274	14518
887.399	14507
887.523	14514
887.648	14480
887.773	14484
887.897	14549
888.021	14511
888.146	14503
888.27	14552
888.395	14644
888.519	14568
888.643	14621
888.767	14598
888.891	14442
889.015	14370
889.139	14469
889.263	14362
889.387	14431
889.511	14571
889.635	14560
889.759	14366
889.883	14332
890.006	14434
890.13	14450
890.254	14282
890.377	14358
890.501	14183
890.624	14142
890.748	14180
890.871	14134
890.995	14027
891.118	13906
891.241	14069
891.364	14119
891.488	14161
891.611	14161
891.734	14069
891.857	14149
891.98	14073
892.103	14153
892.226	14088
892.349	14100
892.471	13902
892.594	14016
892.717	14103
892.839	13997
892.962	14058
893.085	14153
893.207	14088
893.33	13940
893.452	14001
893.575	14142
893.697	14065
893.819	14210
893.941	14332
894.064	14267
894.186	14161
894.308	14005
894.43	14191
894.552	14221
894.674	14305
894.796	14092
894.918	14115
895.04	14065
895.161	14157
895.283	14290
895.405	14134
895.526	14176
895.648	14142
895.769	14183
895.891	14252
896.012	14305
896.134	14358
896.255	14214
896.376	14225
896.498	14248
896.619	14396
896.74	14275
896.861	14267
896.982	14530
897.103	14720
897.224	14545
897.345	14408
897.466	14427
897.587	14568
897.708	14473
897.828	14617
897.949	14522
898.07	14351
898.19	14450
898.311	14682
898.431	14537
898.552	14613
898.672	14724
898.792	14606
898.913	14564
899.033	14530
899.153	14431
899.273	14408
899.393	14374
899.513	14484
899.633	14351
899.753	14404
899.873	14454
899.993	14545
900.113	14434
900.232	14438
900.352	14396
900.472	14400
900.591	14278
900.711	14358
900.83	14286
900.95	14332
901.069	14362
901.189	14164
901.308	14100
901.427	13932
901.546	14024
901.665	14031
901.784	13978
901.904	13864
902.023	13822
902.141	13586
902.26	13563
902.379	13636
902.498	13529
902.617	13449
902.735	13594
902.854	13533
902.973	13400
903.091	13266
903.21	13289
903.328	13259
903.446	13168
903.565	13129
903.683	13149
903.801	13069
903.919	13091
904.038	12985
904.156	12935
904.274	12981
904.392	12852
904.51	12977
904.627	12901
904.745	12977
904.863	13000
904.981	12776
905.098	12665
905.216	12593
905.334	12688
905.451	12623
905.569	12597
905.686	12654
905.803	12681
905.921	12445
906.038	12517
906.155	12490
906.272	12315
906.389	12376
906.506	12201
906.623	12194
906.74	12205
906.857	12194
906.974	12076
907.091	12281
907.208	12338
907.324	12292
907.441	12140
907.557	11992
907.674	11897
907.79	11859
907.907	11984
908.023	11969
908.139	11946
908.256	11840
908.372	11870
908.488	12038
908.604	11809
908.72	11695
908.836	11771
908.952	11718
909.068	11733
909.184	11802
909.3	11741
909.415	11802
909.531	11691
909.647	11516
909.762	11547
909.878	11478
909.993	11410
910.108	11440
910.224	11463
910.339	11493
910.454	11349
910.57	11368
910.685	11288
910.8	11528
910.915	11604
911.03	11311
911.145	11231
911.259	11193
911.374	11185
911.489	11071
911.604	11060
911.718	10991
911.833	10953
911.947	10729
912.062	10793
912.176	10984
912.291	10957
912.405	10984
912.519	11181
912.633	11189
912.748	11098
912.862	10987
912.976	10854
913.09	10717
913.204	10816
913.318	10885
913.431	10915
913.545	10911
913.659	10999
913.772	10877
913.886	10736
914	10698
914.113	10896
914.226	10866
914.34	10759
914.453	10672
914.566	10847
914.68	10668
914.793	10653
914.906	10569
915.019	10394
915.132	10402
915.245	10459
915.358	10485
915.47	10398
915.583	10462
915.696	10500
915.809	10615
915.921	10664
916.034	10421
916.146	10443
916.259	10375
916.371	10516
916.483	10455
916.595	10325
916.708	10394
916.82	10409
916.932	10398
917.044	10337
917.156	10310
917.268	10234
917.38	10287
917.491	10257
917.603	10329
917.715	10371
917.826	10398
917.938	10253
918.049	10234
918.161	10371
918.272	10417
918.384	10466
918.495	10257
918.606	10204
918.717	10067
918.828	10147
918.939	10181
919.05	10097
919.161	10124
919.272	9930
919.383	9991
919.494	10230
919.604	10459
919.715	10227
919.826	10143
919.936	10238
920.047	10204
920.157	10230
920.267	10382
920.378	10276
920.488	10147
920.598	10352
920.708	10478
920.818	10417
920.928	10375
921.038	10497
921.148	10504
921.258	10211
921.368	10158
921.477	10040
921.587	10074
921.697	9918
921.806	10093
921.916	9991
922.025	9743
922.134	9774
922.244	9660
922.353	9789
922.462	9663
922.571	9641
922.68	9424
922.789	9378
922.898	9397
923.007	9412
923.116	9473
923.224	9504
923.333	9412
923.442	9332
923.55	9283
923.659	9329
923.767	9321
923.876	9260
923.984	9340
924.092	9310
924.201	9294
924.309	9214
924.417	9298
924.525	9283
924.633	9207
924.741	9983
924.849	9081
924.956	9230
925.064	9154
925.172	9058
925.279	9062
925.387	9131
925.494	9093
925.602	9279
925.709	9154
925.816	9081
925.924	9135
926.031	9207
926.138	9089
926.245	9123
926.352	9028
926.459	9230
926.566	9188
926.673	9081
926.779	8990
926.886	9017
926.993	8819
927.099	8807
927.206	8785
927.312	8769
927.419	8857
927.525	8720
927.631	8921
927.737	8743
927.843	8705
927.95	8610
928.056	8724
928.162	8678
928.267	8807
928.373	9340
928.479	8743
928.585	8575
928.69	8693
928.796	8785
928.901	8640
929.007	8473
929.112	8625
929.218	8629
929.323	8537
929.428	8522
929.533	8648
929.638	8438
929.743	8476
929.848	8602
929.953	8541
930.058	8427
930.163	8195
930.267	8324
930.372	8457
930.477	8218
930.581	8480
930.685	8370
930.79	8259
930.894	8271
930.998	8168
931.103	8438
931.207	8001
931.311	8024
931.415	7906
931.519	7723
931.623	7719
