Data from test_V78500241_2973.txt Node
Date: Fri Mar 25 14:54:24 CST 2022
User: usil
Spectrometer: V785-0024
Trigger mode: 0
Integration Time (sec): 4.000000E-1
Scans to average: 1
Nonlinearity correction enabled: false
Boxcar width: 0
Storing dark spectrum: false
XAxis mode: Wavelengths
Number of Pixels in Spectrum: 1024
>>>>>Begin Spectral Data<<<<<
801.071	22059
801.214	22010
801.356	21793
801.499	21736
801.641	21443
801.783	21515
801.926	21321
802.068	21348
802.211	21272
802.353	21207
802.496	21070
802.638	20941
802.78	20975
802.923	20800
803.065	20815
803.208	20602
803.35	20712
803.492	20918
803.635	21013
803.777	20777
803.919	20948
804.061	21108
804.204	20785
804.346	20640
804.488	20659
804.63	20861
804.773	20686
804.915	20678
805.057	20625
805.199	20648
805.341	20727
805.483	20693
805.626	20686
805.768	20594
805.91	20705
806.052	20716
806.194	20609
806.336	20804
806.478	20701
806.62	20606
806.762	20773
806.904	20880
807.046	21157
807.188	20994
807.33	21032
807.472	21005
807.614	20861
807.756	21001
807.898	20834
808.04	20727
808.182	20800
808.324	20804
808.465	20811
808.607	20990
808.749	21081
808.891	21203
809.033	21268
809.174	21066
809.316	21077
809.458	21089
809.6	21070
809.741	21157
809.883	21070
810.025	21260
810.166	21241
810.308	21344
810.45	21176
810.591	21226
810.733	20937
810.875	20876
811.016	20781
811.158	20708
811.299	20811
811.441	20956
811.582	20944
811.724	20849
811.865	20815
812.007	20823
812.148	20895
812.29	20819
812.431	20990
812.573	21100
812.714	21226
812.855	21283
812.997	21420
813.138	21538
813.279	21500
813.421	21359
813.562	21252
813.703	21100
813.845	20994
813.986	20640
814.127	20518
814.268	20404
814.41	20450
814.551	20377
814.692	20457
814.833	20229
814.974	20469
815.115	20290
815.256	20294
815.397	20248
815.539	20221
815.68	20142
815.821	20027
815.962	20122
816.103	20142
816.244	19940
816.385	19898
816.526	19807
816.666	19628
816.807	19537
816.948	19605
817.089	19666
817.23	19491
817.371	19559
817.512	19354
817.653	19514
817.793	19362
817.934	19373
818.075	19468
818.216	19487
818.356	19502
818.497	19327
818.638	19148
818.778	19209
818.919	19228
819.06	19270
819.2	19373
819.341	19350
819.481	19350
819.622	19590
819.762	19757
819.903	19693
820.043	19597
820.184	19403
820.324	19483
820.465	19540
820.605	19510
820.746	19514
820.886	19293
821.026	19312
821.167	19373
821.307	19483
821.447	19400
821.588	19301
821.728	19129
821.868	19008
822.008	18840
822.149	18798
822.289	18894
822.429	18570
822.569	18642
822.709	18608
822.849	18414
822.99	18395
823.13	18323
823.27	18296
823.41	18167
823.55	18114
823.69	18057
823.83	18159
823.97	18026
824.11	17893
824.25	17874
824.389	17870
824.529	17931
824.669	17786
824.809	18041
824.949	18057
825.089	17977
825.228	17969
825.368	17817
825.508	17737
825.648	17775
825.787	17771
825.927	17764
826.067	17775
826.206	17695
826.346	17619
826.485	17783
826.625	17634
826.765	17817
826.904	17783
827.044	17623
827.183	17512
827.323	17379
827.462	17436
827.601	17421
827.741	17376
827.88	17330
828.02	17402
828.159	17376
828.298	17303
828.437	17505
828.577	17356
828.716	17474
828.855	17395
828.994	17208
829.134	17151
829.273	17235
829.412	17121
829.551	17029
829.69	17098
829.829	17140
829.968	17216
830.107	17060
830.246	17083
830.385	17067
830.524	17060
830.663	16980
830.802	16900
830.941	16835
831.08	16797
831.219	16911
831.357	16763
831.496	16976
831.635	16755
831.774	16645
831.913	16691
832.051	16577
832.19	16421
832.329	16599
832.467	16459
832.606	16409
832.744	16417
832.883	16432
833.022	16443
833.16	16535
833.299	16451
833.437	16478
833.576	16390
833.714	16523
833.852	16516
833.991	16508
834.129	16561
834.267	16577
834.406	16493
834.544	16428
834.682	16611
834.821	16546
834.959	16672
835.097	16497
835.235	16527
835.373	16626
835.511	16512
835.65	16390
835.788	16325
835.926	16318
836.064	16173
836.202	16306
836.34	16459
836.478	16481
836.615	16409
836.753	16363
836.891	16421
837.029	16394
837.167	16341
837.305	16306
837.443	16272
837.58	16299
837.718	16333
837.856	16344
837.993	16287
838.131	16295
838.269	16158
838.406	16253
838.544	16105
838.681	15964
838.819	15960
838.956	15808
839.094	15831
839.231	15800
839.369	16044
839.506	16234
839.643	16215
839.781	15743
839.918	15751
840.055	15888
840.193	15762
840.33	15808
840.467	15835
840.604	15812
840.742	16059
840.879	15675
841.016	15724
841.153	15819
841.29	15968
841.427	15899
841.564	15819
841.701	15759
841.838	15762
841.975	15648
842.112	15755
842.249	15606
842.385	15557
842.522	15793
842.659	15622
842.796	15557
842.933	15587
843.069	15435
843.206	15481
843.343	15652
843.479	15580
843.616	15633
843.752	15370
843.889	15332
844.025	15534
844.162	15359
844.298	15561
844.435	15351
844.571	15408
844.708	15283
844.844	15523
844.98	15481
845.117	15481
845.253	15412
845.389	15226
845.525	15431
845.661	15275
845.798	15093
845.934	15211
846.07	15119
846.206	15176
846.342	15321
846.478	15138
846.614	15017
846.75	14990
846.886	14967
847.022	14982
847.158	14990
847.294	15020
847.429	14952
847.565	14826
847.701	15131
847.837	14712
847.972	14556
848.108	14754
848.244	14724
848.379	14568
848.515	14552
848.65	14518
848.786	14598
848.921	14488
849.057	14545
849.192	14686
849.328	14579
849.463	14579
849.598	14602
849.734	14446
849.869	14347
850.004	14317
850.14	14324
850.275	14332
850.41	14259
850.545	14278
850.68	14336
850.815	14252
850.95	14271
851.085	14465
851.22	14408
851.355	14412
851.49	14267
851.625	14351
851.76	14298
851.895	14149
852.03	14157
852.165	14347
852.299	14290
852.434	14343
852.569	14404
852.703	14377
852.838	14408
852.973	14412
853.107	14438
853.242	14256
853.376	14149
853.511	14027
853.645	14138
853.78	14225
853.914	14180
854.048	14172
854.183	14218
854.317	14172
854.451	14377
854.585	14218
854.72	14191
854.854	14248
854.988	14153
855.122	14142
855.256	14027
855.39	14199
855.524	14298
855.658	14271
855.792	14248
855.926	14195
856.06	14229
856.194	14187
856.327	14221
856.461	14107
856.595	14100
856.729	14199
856.862	14199
856.996	14256
857.13	14301
857.263	14305
857.397	14290
857.53	14092
857.664	14206
857.797	14298
857.931	14328
858.064	14195
858.197	14278
858.331	14103
858.464	14206
858.597	13989
858.731	14214
858.864	14161
858.997	14103
859.13	14244
859.263	14172
859.396	14237
859.529	14195
859.662	14168
859.795	14172
859.928	14153
860.061	14309
860.194	14233
860.327	14176
860.46	14180
860.592	14343
860.725	14358
860.858	14286
860.99	14096
861.123	14161
861.256	14126
861.388	14172
861.521	14918
861.653	14096
861.786	14062
861.918	14027
862.05	14031
862.183	14130
862.315	14206
862.447	14244
862.58	14168
862.712	13921
862.844	13917
862.976	14058
863.108	14111
863.24	14404
863.372	13811
863.504	13993
863.636	13906
863.768	14005
863.9	13963
864.032	13947
864.164	13871
864.296	13974
864.428	14043
864.559	14054
864.691	13993
864.823	14046
864.954	13913
865.086	13986
865.217	13890
865.349	13909
865.48	14012
865.612	13852
865.743	14119
865.875	13928
866.006	13841
866.137	13986
866.269	13951
866.4	13970
866.531	13928
866.662	13944
866.793	13955
866.924	13909
867.055	14001
867.186	13936
867.317	13860
867.448	13849
867.579	13890
867.71	13864
867.841	13776
867.972	13833
868.103	13917
868.233	13974
868.364	13955
868.495	14092
868.625	14096
868.756	14233
868.886	14088
869.017	14214
869.147	14275
869.278	14271
869.408	14115
869.539	14290
869.669	14320
869.799	14267
869.929	14351
870.06	14343
870.19	14545
870.32	14465
870.45	14556
870.58	14545
870.71	14686
870.84	14678
870.97	14598
871.1	14655
871.23	14743
871.36	14864
871.489	14750
871.619	14815
871.749	14773
871.879	14796
872.008	14906
872.138	14735
872.267	14693
872.397	14598
872.526	14644
872.656	14651
872.785	14716
872.915	14838
873.044	14861
873.173	14872
873.303	14864
873.432	14796
873.561	14838
873.69	14849
873.819	14777
873.948	14929
874.077	14834
874.206	14800
874.335	14815
874.464	14956
874.593	15100
874.722	15154
874.851	15089
874.979	15154
875.108	15195
875.237	15154
875.365	15108
875.494	15184
875.623	15184
875.751	15127
875.88	15127
876.008	15252
876.136	15363
876.265	15606
876.393	15728
876.521	15686
876.65	15660
876.778	15580
876.906	15580
877.034	15564
877.162	15538
877.29	15496
877.418	15682
877.546	15572
877.674	15618
877.802	15564
877.93	15545
878.058	15530
878.185	15496
878.313	15515
878.441	15561
878.568	15397
878.696	15511
878.824	15553
878.951	15644
879.079	15720
879.206	15819
879.333	15728
879.461	15606
879.588	15724
879.715	15808
879.842	15816
879.97	15618
880.097	15397
880.224	15355
880.351	15428
880.478	15439
880.605	15458
880.732	15511
880.859	15656
880.986	15466
881.112	15477
881.239	15340
881.366	15233
881.493	15066
881.619	15024
881.746	15169
881.872	14979
881.999	15077
882.125	15047
882.252	15051
882.378	15066
882.505	15245
882.631	15058
882.757	14971
882.883	14902
883.01	14902
883.136	14891
883.262	14777
883.388	14716
883.514	14921
883.64	14872
883.766	14785
883.892	14606
884.018	14758
884.143	14868
884.269	14963
884.395	14705
884.52	14571
884.646	14590
884.772	14526
884.897	14507
885.023	14678
885.148	14659
885.274	14807
885.399	14781
885.524	14655
885.65	14640
885.775	14686
885.9	14583
886.025	14701
886.15	14659
886.275	14594
886.4	14503
886.525	14423
886.65	14541
886.775	14518
886.9	14788
887.025	14838
887.149	14610
887.274	14427
887.399	14469
887.523	14362
887.648	14317
887.773	14298
887.897	14476
888.021	14522
888.146	14438
888.27	14537
888.395	14499
888.519	14469
888.643	14629
888.767	14476
888.891	14347
889.015	14294
889.139	14336
889.263	14320
889.387	14415
889.511	14526
889.635	14473
889.759	14313
889.883	14172
890.006	14336
890.13	14412
890.254	14180
890.377	14225
890.501	14084
890.624	14138
890.748	14221
890.871	14035
890.995	13967
891.118	13894
891.241	13978
891.364	13898
891.488	14172
891.611	13917
891.734	13970
891.857	13974
891.98	14058
892.103	14187
892.226	14065
892.349	13978
892.471	13742
892.594	13970
892.717	14027
892.839	13906
892.962	13879
893.085	13989
893.207	13993
893.33	13951
893.452	13974
893.575	13997
893.697	13913
893.819	14187
893.941	14164
894.064	14187
894.186	13974
894.308	13913
894.43	14183
894.552	14191
894.674	14168
894.796	13909
894.918	13993
895.04	13963
895.161	14126
895.283	14168
895.405	14065
895.526	14024
895.648	14069
895.769	14130
895.891	14138
896.012	14199
896.134	14225
896.255	14221
896.376	14176
896.498	14153
896.619	14252
896.74	14157
896.861	14336
896.982	14480
897.103	14636
897.224	14545
897.345	14450
897.466	14404
897.587	14434
897.708	14621
897.828	14514
897.949	14366
898.07	14393
898.19	14446
898.311	14469
898.431	14545
898.552	14533
898.672	14556
898.792	14674
898.913	14511
899.033	14465
899.153	14381
899.273	14244
899.393	14374
899.513	14366
899.633	14415
899.753	14377
899.873	14282
899.993	14454
900.113	14408
900.232	14488
900.352	14320
900.472	14328
900.591	14278
900.711	14366
900.83	14252
900.95	14366
901.069	14400
901.189	14176
901.308	13986
901.427	13849
901.546	13871
901.665	14008
901.784	14001
901.904	13826
902.023	13772
902.141	13533
902.26	13476
902.379	13582
902.498	13514
902.617	13472
902.735	13533
902.854	13571
902.973	13377
903.091	13198
903.21	13206
903.328	13247
903.446	13031
903.565	12951
903.683	13031
903.801	13015
903.919	13050
904.038	13012
904.156	12996
904.274	12935
904.392	12871
904.51	12859
904.627	12894
904.745	12894
904.863	12935
904.981	12757
905.098	12574
905.216	12555
905.334	12517
905.451	12612
905.569	12623
905.686	12673
905.803	12635
905.921	12426
906.038	12452
906.155	12437
906.272	12342
906.389	12342
906.506	12182
906.623	12167
906.74	12117
906.857	12045
906.974	12053
907.091	12144
907.208	12296
907.324	12213
907.441	12102
907.557	11950
907.674	11954
907.79	11843
907.907	11866
908.023	11912
908.139	11908
908.256	11893
908.372	11802
908.488	11821
908.604	11726
908.72	11684
908.836	11676
908.952	11646
909.068	11726
909.184	11771
909.3	11684
909.415	11695
909.531	11672
909.647	11535
909.762	11440
909.878	11417
909.993	11372
910.108	11452
910.224	11387
910.339	11410
910.454	11417
910.57	11383
910.685	11197
910.8	11539
910.915	11436
911.03	11360
911.145	11208
911.259	11105
911.374	11178
911.489	11147
911.604	11094
911.718	10949
911.833	10934
911.947	10717
912.062	10725
912.176	10881
912.291	10896
912.405	10892
912.519	11128
912.633	11098
912.748	11003
912.862	10877
912.976	10790
913.09	10645
913.204	10805
913.318	10831
913.431	10866
913.545	10835
913.659	10885
913.772	10828
913.886	10687
914	10656
914.113	10786
914.226	10721
914.34	10679
914.453	10470
914.566	10656
914.68	10630
914.793	10580
914.906	10489
915.019	10382
915.132	10352
915.245	10436
915.358	10394
915.47	10417
915.583	10451
915.696	10443
915.809	10550
915.921	10500
916.034	10375
916.146	10314
916.259	10310
916.371	10462
916.483	10462
916.595	10280
916.708	10402
916.82	10329
916.932	10333
917.044	10344
917.156	10325
917.268	10272
917.38	10318
917.491	10249
917.603	10276
917.715	10265
917.826	10318
917.938	10265
918.049	10143
918.161	10325
918.272	10371
918.384	10356
918.495	10280
918.606	10131
918.717	10071
918.828	10143
918.939	10162
919.05	10051
919.161	10173
919.272	9937
919.383	10048
919.494	10219
919.604	10367
919.715	10181
919.826	10105
919.936	10120
920.047	10200
920.157	10120
920.267	10466
920.378	10158
920.488	10181
920.598	10371
920.708	10405
920.818	10390
920.928	10344
921.038	10527
921.148	10455
921.258	10147
921.368	10082
921.477	10040
921.587	9937
921.697	9907
921.806	10055
921.916	9911
922.025	9720
922.134	9698
922.244	9641
922.353	9759
922.462	9587
922.571	9614
922.68	9450
922.789	9405
922.898	9389
923.007	9367
923.116	9458
923.224	9424
923.333	9389
923.442	9275
923.55	9237
923.659	9249
923.767	9370
923.876	9283
923.984	9389
924.092	9214
924.201	9241
924.309	9245
924.417	9279
924.525	9256
924.633	9253
924.741	10154
924.849	9108
924.956	9241
925.064	9127
925.172	9005
925.279	8998
925.387	9131
925.494	9138
925.602	9176
925.709	9199
925.816	9036
925.924	9051
926.031	9203
926.138	9028
926.245	9104
926.352	9017
926.459	9142
926.566	9195
926.673	9024
926.779	8998
926.886	8906
926.993	8853
927.099	8773
927.206	8788
927.312	8739
927.419	8823
927.525	8769
927.631	8800
927.737	8689
927.843	8648
927.95	8549
928.056	8663
928.162	8598
928.267	8712
928.373	9382
928.479	8781
928.585	8537
928.69	8621
928.796	8762
928.901	8594
929.007	8446
929.112	8636
929.218	8602
929.323	8579
929.428	8423
929.533	8686
929.638	8412
929.743	8461
929.848	8507
929.953	8514
930.058	8465
930.163	8244
930.267	8305
930.372	8408
930.477	8275
930.581	8473
930.685	8355
930.79	8282
930.894	8294
930.998	8172
931.103	8385
931.207	8058
931.311	7974
931.415	7974
931.519	7750
931.623	7742
