Data from test_V78500241_909.txt Node
Date: Fri Mar 25 14:40:02 CST 2022
User: usil
Spectrometer: V785-0024
Trigger mode: 0
Integration Time (sec): 4.000000E-1
Scans to average: 1
Nonlinearity correction enabled: false
Boxcar width: 0
Storing dark spectrum: false
XAxis mode: Wavelengths
Number of Pixels in Spectrum: 1024
>>>>>Begin Spectral Data<<<<<
801.071	25000
801.214	24833
801.356	24631
801.499	24437
801.641	24395
801.783	24300
801.926	24330
802.068	24285
802.211	23973
802.353	24026
802.496	23840
802.638	23805
802.78	23741
802.923	23649
803.065	23665
803.208	23668
803.35	23687
803.492	23680
803.635	23832
803.777	23802
803.919	23714
804.061	23999
804.204	23695
804.346	23737
804.488	23482
804.63	23611
804.773	23562
804.915	23581
805.057	23665
805.199	23657
805.341	23802
805.483	23783
805.626	23821
805.768	23642
805.91	23813
806.052	23710
806.194	23779
806.336	23901
806.478	23779
806.62	23889
806.762	23999
806.904	24273
807.046	24433
807.188	24540
807.33	24528
807.472	24700
807.614	24779
807.756	24951
807.898	25088
808.04	25403
808.182	25651
808.324	26103
808.465	26800
808.607	27515
808.749	28063
808.891	28341
809.033	28440
809.174	28013
809.316	27386
809.458	26887
809.6	26225
809.741	25921
809.883	25441
810.025	25324
810.166	25126
810.308	24901
810.45	24901
810.591	24692
810.733	24403
810.875	24266
811.016	24034
811.158	24209
811.299	24110
811.441	24213
811.582	24357
811.724	24091
811.865	23999
812.007	23954
812.148	23977
812.29	23992
812.431	24209
812.573	24258
812.714	24304
812.855	24441
812.997	24597
813.138	24627
813.279	24536
813.421	24479
813.562	24395
813.703	24144
813.845	24098
813.986	23805
814.127	23524
814.268	23440
814.41	23528
814.551	23471
814.692	23478
814.833	23360
814.974	23269
815.115	23334
815.256	23079
815.397	23227
815.539	23189
815.68	23044
815.821	22972
815.962	23033
816.103	22980
816.244	22892
816.385	22934
816.526	22778
816.666	22504
816.807	22527
816.948	22637
817.089	22603
817.23	22645
817.371	22546
817.512	22432
817.653	22428
817.793	22455
817.934	22481
818.075	22535
818.216	22363
818.356	22462
818.497	22337
818.638	22082
818.778	22093
818.919	22029
819.06	22173
819.2	22325
819.341	22329
819.481	22284
819.622	22531
819.762	22649
819.903	22557
820.043	22561
820.184	22466
820.324	22455
820.465	22557
820.605	22333
820.746	22337
820.886	22280
821.026	22398
821.167	22409
821.307	22424
821.447	22192
821.588	22181
821.728	22086
821.868	21926
822.008	21747
822.149	21682
822.289	21698
822.429	21450
822.569	21405
822.709	21317
822.849	21226
822.99	21340
823.13	21154
823.27	21146
823.41	20982
823.55	20933
823.69	20937
823.83	20872
823.97	20914
824.11	20674
824.25	20826
824.389	20823
824.529	20830
824.669	20811
824.809	20864
824.949	20868
825.089	20823
825.228	20796
825.368	20644
825.508	20609
825.648	20518
825.787	20697
825.927	20670
826.067	20518
826.206	20514
826.346	20503
826.485	20659
826.625	20495
826.765	20765
826.904	20632
827.044	20275
827.183	20172
827.323	20259
827.462	20263
827.601	20244
827.741	20157
827.88	20271
828.02	20027
828.159	20221
828.298	20218
828.437	20370
828.577	20130
828.716	20347
828.855	20069
828.994	19917
829.134	19898
829.273	19959
829.412	19970
829.551	19837
829.69	19944
829.829	19845
829.968	20012
830.107	20012
830.246	19921
830.385	19830
830.524	19753
830.663	19670
830.802	19742
830.941	19567
831.08	19537
831.219	19616
831.357	19639
831.496	19696
831.635	19506
831.774	19430
831.913	19388
832.051	19244
832.19	19232
832.329	19324
832.467	19259
832.606	19198
832.744	19118
832.883	19240
833.022	19190
833.16	19251
833.299	19373
833.437	19365
833.576	19373
833.714	19396
833.852	19384
833.991	19369
834.129	19506
834.267	19601
834.406	19457
834.544	19472
834.682	19449
834.821	19365
834.959	19392
835.097	19244
835.235	19324
835.373	19206
835.511	19213
835.65	19145
835.788	19091
835.926	18913
836.064	18981
836.202	18848
836.34	19145
836.478	19198
836.615	19099
836.753	19027
836.891	19069
837.029	19027
837.167	19080
837.305	18958
837.443	18829
837.58	18810
837.718	18966
837.856	18939
837.993	18806
838.131	18954
838.269	18730
838.406	18833
838.544	18779
838.681	18616
838.819	18544
838.956	18418
839.094	18422
839.231	18426
839.369	18585
839.506	18768
839.643	18669
839.781	18311
839.918	18262
840.055	18357
840.193	18361
840.33	18327
840.467	18384
840.604	18380
840.742	18563
840.879	18289
841.016	18224
841.153	18338
841.29	18464
841.427	18289
841.564	18296
841.701	18365
841.838	18285
841.975	18254
842.112	18220
842.249	18205
842.385	18076
842.522	18216
842.659	18087
842.796	18007
842.933	18133
843.069	18095
843.206	18045
843.343	18140
843.479	18148
843.616	18106
843.752	17927
843.889	17851
844.025	18030
844.162	17996
844.298	18087
844.435	17969
844.571	17840
844.708	17992
844.844	18247
844.98	18380
845.117	18418
845.253	18437
845.389	18741
845.525	19362
845.661	20202
845.798	21439
845.934	22523
846.07	22866
846.206	22653
846.342	22097
846.478	20667
846.614	19438
846.75	18631
846.886	18171
847.022	17980
847.158	17748
847.294	17703
847.429	17642
847.565	17554
847.701	17794
847.837	17322
847.972	17113
848.108	17421
848.244	17189
848.379	17010
848.515	17014
848.65	16923
848.786	16961
848.921	16934
849.057	17098
849.192	17029
849.328	17090
849.463	16892
849.598	16866
849.734	16797
849.869	16850
850.004	16786
850.14	16725
850.275	16694
850.41	16675
850.545	16672
850.68	16577
850.815	16717
850.95	16645
851.085	16885
851.22	16694
851.355	16668
851.49	16622
851.625	16577
851.76	16607
851.895	16561
852.03	16626
852.165	16664
852.299	16698
852.434	16771
852.569	16679
852.703	16687
852.838	16733
852.973	16778
853.107	16828
853.242	16713
853.376	16641
853.511	16436
853.645	16504
853.78	16687
853.914	16580
854.048	16542
854.183	16592
854.317	16634
854.451	16820
854.585	16531
854.72	16588
854.854	16664
854.988	16546
855.122	16565
855.256	16428
855.39	16588
855.524	16550
855.658	16512
855.792	16626
855.926	16710
856.06	16558
856.194	16637
856.327	16611
856.461	16531
856.595	16470
856.729	16451
856.862	16607
856.996	16493
857.13	16607
857.263	16691
857.397	16683
857.53	16588
857.664	16554
857.797	16542
857.931	16672
858.064	16485
858.197	16622
858.331	16538
858.464	16470
858.597	16352
858.731	16569
858.864	16493
858.997	16398
859.13	16447
859.263	16493
859.396	16675
859.529	16363
859.662	16516
859.795	16436
859.928	16523
860.061	16615
860.194	16702
860.327	16462
860.46	16531
860.592	16603
860.725	16725
860.858	16626
860.99	16489
861.123	16371
861.256	16367
861.388	16485
861.521	17124
861.653	16424
861.786	16147
861.918	16287
862.05	16299
862.183	16417
862.315	16512
862.447	16447
862.58	16356
862.712	16166
862.844	16238
862.976	16230
863.108	16276
863.24	16664
863.372	16268
863.504	16173
863.636	16272
863.768	16299
863.9	16234
864.032	16071
864.164	16154
864.296	16223
864.428	16363
864.559	16318
864.691	16215
864.823	16192
864.954	16234
865.086	16135
865.217	16139
865.349	16147
865.48	16116
865.612	16169
865.743	16333
865.875	16215
866.006	16185
866.137	16169
866.269	16192
866.4	16158
866.531	16162
866.662	15994
866.793	16112
866.924	16131
867.055	16071
867.186	16128
867.317	16090
867.448	16032
867.579	16131
867.71	16025
867.841	16055
867.972	16166
868.103	16162
868.233	16238
868.364	16154
868.495	16158
868.625	16333
868.756	16478
868.886	16322
869.017	16295
869.147	16481
869.278	16580
869.408	16386
869.539	16394
869.669	16516
869.799	16546
869.929	16573
870.06	16535
870.19	16675
870.32	16660
870.45	16748
870.58	16694
870.71	16908
870.84	16892
870.97	16736
871.1	16797
871.23	16999
871.36	17056
871.489	16889
871.619	16984
871.749	16965
871.879	16934
872.008	17041
872.138	16976
872.267	16930
872.397	16885
872.526	16881
872.656	16763
872.785	16923
872.915	17033
873.044	17181
873.173	17041
873.303	17056
873.432	17048
873.561	17151
873.69	17162
873.819	17052
873.948	17048
874.077	17143
874.206	17136
874.335	17098
874.464	17151
874.593	17353
874.722	17440
874.851	17315
874.979	17406
875.108	17421
875.237	17341
875.365	17349
875.494	17421
875.623	17482
875.751	17467
875.88	17474
876.008	17687
876.136	17695
876.265	17908
876.393	17973
876.521	17977
876.65	17999
876.778	17874
876.906	17984
877.034	17889
877.162	17821
877.29	17912
877.418	17912
877.546	17969
877.674	17912
877.802	18144
877.93	18060
878.058	18019
878.185	18019
878.313	18068
878.441	18224
878.568	18213
878.696	18391
878.824	18521
878.951	18878
879.079	19160
879.206	19544
879.333	19986
879.461	20195
879.588	20495
879.715	20579
879.842	20518
879.97	19875
880.097	19327
880.224	18958
880.351	18867
880.478	18528
880.605	18471
880.732	18486
880.859	18471
880.986	18369
881.112	18376
881.239	18277
881.366	18011
881.493	17946
881.619	18041
881.746	17958
881.872	17946
881.999	17897
882.125	17904
882.252	17965
882.378	17939
882.505	18140
882.631	17863
882.757	17828
882.883	17828
883.01	17908
883.136	17672
883.262	17798
883.388	17684
883.514	17874
883.64	17893
883.766	17794
883.892	17543
884.018	17566
884.143	17741
884.269	17889
884.395	17497
884.52	17497
884.646	17433
884.772	17379
884.897	17436
885.023	17528
885.148	17482
885.274	17592
885.399	17520
885.524	17353
885.65	17436
885.775	17421
885.9	17250
886.025	17436
886.15	17299
886.275	17208
886.4	17273
886.525	17212
886.65	17204
886.775	17090
886.9	17280
887.025	17311
887.149	17223
887.274	16949
887.399	16987
887.523	16854
887.648	16733
887.773	16847
887.897	16938
888.021	16930
888.146	16831
888.27	16877
888.395	16911
888.519	16968
888.643	16778
888.767	16866
888.891	16729
889.015	16611
889.139	16733
889.263	16493
889.387	16653
889.511	16748
889.635	16675
889.759	16542
889.883	16573
890.006	16637
890.13	16653
890.254	16413
890.377	16485
890.501	16417
890.624	16337
890.748	16440
890.871	16261
890.995	16162
891.118	16093
891.241	16154
891.364	16200
891.488	16257
891.611	16177
891.734	16158
891.857	16169
891.98	16196
892.103	16177
892.226	16131
892.349	16105
892.471	15873
892.594	16207
892.717	16063
892.839	16185
892.962	15994
893.085	16211
893.207	16086
893.33	15960
893.452	15972
893.575	16154
893.697	16093
893.819	16200
893.941	16310
894.064	16143
894.186	16051
894.308	16067
894.43	16177
894.552	16067
894.674	16162
894.796	15994
894.918	16101
895.04	16112
895.161	16131
895.283	16109
895.405	16017
895.526	16006
895.648	16147
895.769	16223
895.891	16169
896.012	16242
896.134	16333
896.255	16196
896.376	16188
896.498	16078
896.619	16154
896.74	16116
896.861	16124
896.982	16630
897.103	16713
897.224	16405
897.345	16291
897.466	16333
897.587	16417
897.708	16466
897.828	16451
897.949	16413
898.07	16367
898.19	16341
898.311	16546
898.431	16413
898.552	16447
898.672	16573
898.792	16584
898.913	16409
899.033	16303
899.153	16360
899.273	16284
899.393	16226
899.513	16424
899.633	16295
899.753	16284
899.873	16253
899.993	16299
900.113	16268
900.232	16341
900.352	16295
900.472	16192
900.591	16162
900.711	16177
900.83	16082
900.95	16257
901.069	16318
901.189	16040
901.308	15857
901.427	15686
901.546	15789
901.665	15873
901.784	15793
901.904	15720
902.023	15542
902.141	15344
902.26	15435
902.379	15420
902.498	15397
902.617	15222
902.735	15355
902.854	15313
902.973	15233
903.091	15005
903.21	14975
903.328	14967
903.446	14921
903.565	14804
903.683	14823
903.801	14735
903.919	14861
904.038	14773
904.156	14613
904.274	14606
904.392	14507
904.51	14575
904.627	14495
904.745	14670
904.863	14648
904.981	14385
905.098	14278
905.216	14214
905.334	14275
905.451	14218
905.569	14176
905.686	14309
905.803	14320
905.921	14065
906.038	14161
906.155	14168
906.272	13921
906.389	13974
906.506	13799
906.623	13906
906.74	13868
906.857	13700
906.974	13685
907.091	13776
907.208	13997
907.324	13833
907.441	13719
907.557	13472
907.674	13476
907.79	13426
907.907	13400
908.023	13582
908.139	13491
908.256	13400
908.372	13400
908.488	13396
908.604	13297
908.72	13266
908.836	13270
908.952	13209
909.068	13278
909.184	13270
909.3	13225
909.415	13247
909.531	13263
909.647	13015
909.762	13034
909.878	12939
909.993	13008
910.108	12981
910.224	12962
910.339	12996
910.454	12856
910.57	12829
910.685	12768
910.8	13034
910.915	12932
911.03	12859
911.145	12627
911.259	12665
911.374	12578
911.489	12589
911.604	12544
911.718	12426
911.833	12418
911.947	12281
912.062	12072
912.176	12361
912.291	12304
912.405	12350
912.519	12570
912.633	12635
912.748	12414
912.862	12327
912.976	12190
913.09	12098
913.204	12251
913.318	12228
913.431	12277
913.545	12262
913.659	12330
913.772	12213
913.886	12045
914	12144
914.113	12144
914.226	12243
914.34	12254
914.453	11965
914.566	12140
914.68	12019
914.793	12045
914.906	11840
915.019	11874
915.132	11668
915.245	11783
915.358	11859
915.47	11748
915.583	11840
915.696	11946
915.809	11836
915.921	11893
916.034	11863
916.146	11832
916.259	11729
916.371	11836
916.483	11931
916.595	11688
916.708	11752
916.82	11661
916.932	11733
917.044	11710
917.156	11680
917.268	11547
917.38	11619
917.491	11573
917.603	11600
917.715	11752
917.826	11729
917.938	11554
918.049	11452
918.161	11573
918.272	11688
918.384	11733
918.495	11623
918.606	11474
918.717	11345
918.828	11455
918.939	11440
919.05	11261
919.161	11395
919.272	11242
919.383	11303
919.494	11490
919.604	11665
919.715	11452
919.826	11322
919.936	11391
920.047	11482
920.157	11474
920.267	11581
920.378	11524
920.488	11341
920.598	11520
920.708	11672
920.818	11581
920.928	11554
921.038	11695
921.148	11638
921.258	11486
921.368	11395
921.477	11239
921.587	11212
921.697	11105
921.806	11204
921.916	11151
922.025	11048
922.134	10980
922.244	10820
922.353	10957
922.462	10843
922.571	10740
922.68	10611
922.789	10554
922.898	10596
923.007	10516
923.116	10618
923.224	10607
923.333	10592
923.442	10542
923.55	10440
923.659	10375
923.767	10508
923.876	10371
923.984	10565
924.092	10421
924.201	10493
924.309	10424
924.417	10428
924.525	10382
924.633	10402
924.741	11159
924.849	10223
924.956	10341
925.064	10223
925.172	10059
925.279	10166
925.387	10246
925.494	10257
925.602	10367
925.709	10246
925.816	10139
925.924	10200
926.031	10314
926.138	10154
926.245	10280
926.352	10105
926.459	10257
926.566	10246
926.673	10124
926.779	10067
926.886	10013
926.993	9884
927.099	9827
927.206	9812
927.312	9789
927.419	9930
927.525	9842
927.631	9937
927.737	9823
927.843	9755
927.95	9584
928.056	9713
928.162	9660
928.267	9705
928.373	10379
928.479	9816
928.585	9667
928.69	9648
928.796	9808
928.901	9648
929.007	9488
929.112	9656
929.218	9610
929.323	9561
929.428	9557
929.533	9667
929.638	9496
929.743	9488
929.848	9568
929.953	9519
930.058	9439
930.163	9283
930.267	9329
930.372	9431
930.477	9253
930.581	9538
930.685	9382
930.79	9211
930.894	9249
930.998	9283
931.103	9382
931.207	8975
931.311	8929
931.415	8853
931.519	8674
931.623	8670
