Data from test_V78500241_2997.txt Node
Date: Fri Mar 25 14:54:34 CST 2022
User: usil
Spectrometer: V785-0024
Trigger mode: 0
Integration Time (sec): 4.000000E-1
Scans to average: 1
Nonlinearity correction enabled: false
Boxcar width: 0
Storing dark spectrum: false
XAxis mode: Wavelengths
Number of Pixels in Spectrum: 1024
>>>>>Begin Spectral Data<<<<<
801.071	22128
801.214	21987
801.356	21728
801.499	21583
801.641	21488
801.783	21363
801.926	21397
802.068	21332
802.211	21401
802.353	21180
802.496	21005
802.638	20887
802.78	21028
802.923	20895
803.065	20796
803.208	20777
803.35	20876
803.492	20792
803.635	20864
803.777	20819
803.919	20933
804.061	21161
804.204	20739
804.346	20686
804.488	20579
804.63	20880
804.773	20651
804.915	20792
805.057	20708
805.199	20686
805.341	20819
805.483	20906
805.626	20731
805.768	20606
805.91	20701
806.052	20735
806.194	20518
806.336	20727
806.478	20708
806.62	20629
806.762	20758
806.904	20975
807.046	21123
807.188	21211
807.33	21047
807.472	21047
807.614	20979
807.756	20998
807.898	20944
808.04	20815
808.182	20796
808.324	20796
808.465	20883
808.607	21020
808.749	21123
808.891	21150
809.033	21192
809.174	21310
809.316	21116
809.458	21077
809.6	20990
809.741	21180
809.883	21218
810.025	21218
810.166	21169
810.308	21230
810.45	21207
810.591	21146
810.733	20960
810.875	20891
811.016	20693
811.158	20807
811.299	20918
811.441	20887
811.582	21013
811.724	20914
811.865	20788
812.007	20823
812.148	20819
812.29	20998
812.431	21005
812.573	21192
812.714	21279
812.855	21294
812.997	21386
813.138	21618
813.279	21382
813.421	21336
813.562	21192
813.703	21074
813.845	21089
813.986	20640
814.127	20438
814.268	20518
814.41	20446
814.551	20507
814.692	20518
814.833	20347
814.974	20328
815.115	20317
815.256	20183
815.397	20237
815.539	20355
815.68	20199
815.821	20119
815.962	20138
816.103	20096
816.244	19883
816.385	19799
816.526	19814
816.666	19674
816.807	19472
816.948	19662
817.089	19655
817.23	19609
817.371	19533
817.512	19563
817.653	19639
817.793	19480
817.934	19502
818.075	19567
818.216	19613
818.356	19529
818.497	19487
818.638	19194
818.778	19217
818.919	19327
819.06	19274
819.2	19460
819.341	19453
819.481	19343
819.622	19571
819.762	19788
819.903	19624
820.043	19518
820.184	19502
820.324	19449
820.465	19537
820.605	19514
820.746	19388
820.886	19438
821.026	19445
821.167	19582
821.307	19510
821.447	19476
821.588	19384
821.728	19228
821.868	19057
822.008	18913
822.149	18951
822.289	18966
822.429	18673
822.569	18681
822.709	18532
822.849	18414
822.99	18445
823.13	18384
823.27	18395
823.41	18247
823.55	18209
823.69	18194
823.83	18289
823.97	18216
824.11	18106
824.25	17923
824.389	17942
824.529	18045
824.669	17973
824.809	18133
824.949	18064
825.089	18068
825.228	18038
825.368	17923
825.508	17707
825.648	17733
825.787	17843
825.927	17824
826.067	17794
826.206	17729
826.346	17794
826.485	17824
826.625	17699
826.765	17863
826.904	17824
827.044	17589
827.183	17497
827.323	17448
827.462	17543
827.601	17490
827.741	17387
827.88	17379
828.02	17269
828.159	17376
828.298	17425
828.437	17493
828.577	17452
828.716	17535
828.855	17349
828.994	17197
829.134	17197
829.273	17261
829.412	17174
829.551	17212
829.69	17166
829.829	17193
829.968	17235
830.107	17227
830.246	17269
830.385	17189
830.524	17143
830.663	16968
830.802	16953
830.941	16828
831.08	16763
831.219	16923
831.357	16927
831.496	17006
831.635	16873
831.774	16774
831.913	16725
832.051	16660
832.19	16443
832.329	16645
832.467	16493
832.606	16485
832.744	16451
832.883	16413
833.022	16451
833.16	16603
833.299	16550
833.437	16538
833.576	16622
833.714	16596
833.852	16550
833.991	16637
834.129	16691
834.267	16637
834.406	16466
834.544	16588
834.682	16542
834.821	16546
834.959	16729
835.097	16634
835.235	16626
835.373	16538
835.511	16611
835.65	16428
835.788	16394
835.926	16314
836.064	16295
836.202	16280
836.34	16462
836.478	16485
836.615	16443
836.753	16413
836.891	16535
837.029	16451
837.167	16481
837.305	16325
837.443	16299
837.58	16314
837.718	16386
837.856	16382
837.993	16306
838.131	16329
838.269	16265
838.406	16257
838.544	16242
838.681	15979
838.819	16063
838.956	15857
839.094	15903
839.231	15869
839.369	15987
839.506	16265
839.643	16051
839.781	15835
839.918	15717
840.055	15861
840.193	15922
840.33	15873
840.467	15835
840.604	15884
840.742	16112
840.879	15701
841.016	15690
841.153	15698
841.29	15964
841.427	15816
841.564	15869
841.701	15831
841.838	15800
841.975	15690
842.112	15755
842.249	15709
842.385	15584
842.522	15823
842.659	15690
842.796	15652
842.933	15671
843.069	15663
843.206	15587
843.343	15679
843.479	15724
843.616	15652
843.752	15431
843.889	15386
844.025	15591
844.162	15310
844.298	15538
844.435	15374
844.571	15317
844.708	15485
844.844	15523
844.98	15488
845.117	15519
845.253	15249
845.389	15310
845.525	15363
845.661	15439
845.798	15241
845.934	15211
846.07	15192
846.206	15199
846.342	15348
846.478	15237
846.614	15066
846.75	14902
846.886	14914
847.022	15108
847.158	15028
847.294	14956
847.429	15005
847.565	15001
847.701	15260
847.837	14705
847.972	14655
848.108	14754
848.244	14781
848.379	14636
848.515	14545
848.65	14606
848.786	14617
848.921	14541
849.057	14678
849.192	14617
849.328	14560
849.463	14564
849.598	14621
849.734	14511
849.869	14541
850.004	14320
850.14	14434
850.275	14324
850.41	14286
850.545	14278
850.68	14351
850.815	14313
850.95	14358
851.085	14530
851.22	14495
851.355	14355
851.49	14259
851.625	14393
851.76	14263
851.895	14240
852.03	14221
852.165	14298
852.299	14412
852.434	14518
852.569	14404
852.703	14320
852.838	14400
852.973	14511
853.107	14320
853.242	14332
853.376	14153
853.511	14180
853.645	14202
853.78	14290
853.914	14206
854.048	14206
854.183	14199
854.317	14164
854.451	14412
854.585	14176
854.72	14088
854.854	14206
854.988	14126
855.122	14275
855.256	14149
855.39	14187
855.524	14191
855.658	14240
855.792	14218
855.926	14244
856.06	14259
856.194	14396
856.327	14328
856.461	14176
856.595	14142
856.729	14176
856.862	14324
856.996	14119
857.13	14259
857.263	14381
857.397	14347
857.53	14210
857.664	14347
857.797	14252
857.931	14313
858.064	14263
858.197	14400
858.331	14199
858.464	14176
858.597	14088
858.731	14214
858.864	14210
858.997	14119
859.13	14214
859.263	14214
859.396	14210
859.529	14172
859.662	14199
859.795	14195
859.928	14248
860.061	14294
860.194	14446
860.327	14396
860.46	14130
860.592	14214
860.725	14419
860.858	14355
860.99	14191
861.123	14218
861.256	14062
861.388	14286
861.521	15005
861.653	14043
861.786	14046
861.918	14024
862.05	14039
862.183	14172
862.315	14206
862.447	14248
862.58	14100
862.712	13932
862.844	13951
862.976	14092
863.108	14035
863.24	14412
863.372	13982
863.504	13849
863.636	13921
863.768	14088
863.9	13963
864.032	13818
864.164	13928
864.296	13978
864.428	14069
864.559	14016
864.691	14130
864.823	13997
864.954	14050
865.086	14027
865.217	13959
865.349	13849
865.48	13997
865.612	13989
865.743	14100
865.875	14031
866.006	13856
866.137	13967
866.269	14054
866.4	13986
866.531	13974
866.662	13944
866.793	14008
866.924	13944
867.055	14012
867.186	13959
867.317	14001
867.448	13917
867.579	13925
867.71	13875
867.841	13864
867.972	13883
868.103	13928
868.233	13959
868.364	13997
868.495	14123
868.625	14134
868.756	14229
868.886	14012
869.017	14130
869.147	14298
869.278	14225
869.408	14180
869.539	14199
869.669	14328
869.799	14225
869.929	14282
870.06	14339
870.19	14488
870.32	14434
870.45	14541
870.58	14560
870.71	14769
870.84	14754
870.97	14648
871.1	14621
871.23	14834
871.36	14853
871.489	14823
871.619	14739
871.749	14781
871.879	14769
872.008	14967
872.138	14914
872.267	14830
872.397	14705
872.526	14629
872.656	14667
872.785	14579
872.915	14800
873.044	14963
873.173	14765
873.303	14849
873.432	14952
873.561	14960
873.69	14792
873.819	14849
873.948	14998
874.077	14933
874.206	14853
874.335	14944
874.464	14975
874.593	15199
874.722	15188
874.851	15214
874.979	15173
875.108	15275
875.237	15066
875.365	15043
875.494	15074
875.623	15351
875.751	15195
875.88	15287
876.008	15317
876.136	15397
876.265	15671
876.393	15717
876.521	15679
876.65	15732
876.778	15618
876.906	15599
877.034	15481
877.162	15545
877.29	15553
877.418	15679
877.546	15633
877.674	15625
877.802	15591
877.93	15591
878.058	15557
878.185	15500
878.313	15587
878.441	15580
878.568	15466
878.696	15580
878.824	15538
878.951	15679
879.079	15838
879.206	15857
879.333	15694
879.461	15633
879.588	15698
879.715	15850
879.842	15884
879.97	15633
880.097	15393
880.224	15443
880.351	15435
880.478	15473
880.605	15378
880.732	15439
880.859	15614
880.986	15397
881.112	15454
881.239	15310
881.366	15272
881.493	15192
881.619	15051
881.746	15097
881.872	15081
881.999	15066
882.125	15043
882.252	15150
882.378	15097
882.505	15173
882.631	15055
882.757	14918
882.883	15020
883.01	14921
883.136	14925
883.262	14758
883.388	14842
883.514	14960
883.64	14933
883.766	14880
883.892	14731
884.018	14792
884.143	14887
884.269	15001
884.395	14705
884.52	14682
884.646	14568
884.772	14602
884.897	14495
885.023	14708
885.148	14750
885.274	14785
885.399	14777
885.524	14533
885.65	14632
885.775	14686
885.9	14575
886.025	14724
886.15	14682
886.275	14621
886.4	14450
886.525	14606
886.65	14617
886.775	14480
886.9	14800
887.025	14716
887.149	14587
887.274	14530
887.399	14450
887.523	14469
887.648	14412
887.773	14419
887.897	14541
888.021	14530
888.146	14450
888.27	14583
888.395	14507
888.519	14560
888.643	14457
888.767	14537
888.891	14400
889.015	14278
889.139	14240
889.263	14256
889.387	14400
889.511	14564
889.635	14377
889.759	14218
889.883	14294
890.006	14431
890.13	14377
890.254	14313
890.377	14256
890.501	14123
890.624	14199
890.748	14183
890.871	13986
890.995	13997
891.118	14001
891.241	14065
891.364	13986
891.488	14142
891.611	13925
891.734	14016
891.857	14039
891.98	14069
892.103	14130
892.226	14096
892.349	14062
892.471	13868
892.594	14050
892.717	13974
892.839	13982
892.962	14012
893.085	14103
893.207	14031
893.33	13902
893.452	13925
893.575	14153
893.697	13940
893.819	14218
893.941	14214
894.064	14164
894.186	13974
894.308	13951
894.43	14134
894.552	14157
894.674	14191
894.796	14016
894.918	14043
895.04	14043
895.161	14225
895.283	14180
895.405	14096
895.526	14214
895.648	14077
895.769	14145
895.891	14134
896.012	14294
896.134	14298
896.255	14225
896.376	14180
896.498	14187
896.619	14229
896.74	14157
896.861	14229
896.982	14606
897.103	14659
897.224	14419
897.345	14473
897.466	14393
897.587	14522
897.708	14663
897.828	14473
897.949	14461
898.07	14355
898.19	14484
898.311	14587
898.431	14454
898.552	14480
898.672	14659
898.792	14693
898.913	14545
899.033	14446
899.153	14385
899.273	14278
899.393	14370
899.513	14389
899.633	14355
899.753	14442
899.873	14434
899.993	14484
900.113	14347
900.232	14457
900.352	14438
900.472	14286
900.591	14248
900.711	14286
900.83	14149
900.95	14381
901.069	14404
901.189	14206
901.308	14092
901.427	13830
901.546	13909
901.665	14054
901.784	14043
901.904	13860
902.023	13742
902.141	13544
902.26	13480
902.379	13632
902.498	13521
902.617	13476
902.735	13567
902.854	13457
902.973	13495
903.091	13293
903.21	13209
903.328	13308
903.446	13202
903.565	13053
903.683	13137
903.801	13000
903.919	13034
904.038	13031
904.156	12977
904.274	12932
904.392	12901
904.51	12939
904.627	12947
904.745	12981
904.863	12943
904.981	12700
905.098	12585
905.216	12646
905.334	12616
905.451	12585
905.569	12490
905.686	12486
905.803	12585
905.921	12376
906.038	12479
906.155	12429
906.272	12399
906.389	12323
906.506	12178
906.623	12087
906.74	12186
906.857	12144
906.974	12117
907.091	12334
907.208	12270
907.324	12220
907.441	12121
907.557	11973
907.674	11954
907.79	11920
907.907	11813
908.023	12038
908.139	11954
908.256	11893
908.372	11840
908.488	11843
908.604	11703
908.72	11710
908.836	11581
908.952	11611
909.068	11665
909.184	11821
909.3	11737
909.415	11726
909.531	11653
909.647	11535
909.762	11532
909.878	11467
909.993	11444
910.108	11433
910.224	11478
910.339	11471
910.454	11395
910.57	11239
910.685	11288
910.8	11501
910.915	11406
911.03	11372
911.145	11155
911.259	11162
911.374	11174
911.489	11102
911.604	11045
911.718	10957
911.833	10999
911.947	10790
912.062	10801
912.176	10938
912.291	10839
912.405	10892
912.519	11098
912.633	11204
912.748	11045
912.862	10885
912.976	10805
913.09	10714
913.204	10801
913.318	10850
913.431	10984
913.545	10869
913.659	10862
913.772	10793
913.886	10748
914	10630
914.113	10801
914.226	10896
914.34	10805
914.453	10653
914.566	10763
914.68	10630
914.793	10607
914.906	10440
915.019	10333
915.132	10295
915.245	10459
915.358	10432
915.47	10455
915.583	10474
915.696	10489
915.809	10577
915.921	10573
916.034	10402
916.146	10360
916.259	10432
916.371	10386
916.483	10500
916.595	10276
916.708	10428
916.82	10360
916.932	10386
917.044	10310
917.156	10295
917.268	10249
917.38	10284
917.491	10211
917.603	10238
917.715	10318
917.826	10402
917.938	10223
918.049	10188
918.161	10238
918.272	10371
918.384	10265
918.495	10310
918.606	10082
918.717	10097
918.828	10120
918.939	10204
919.05	10101
919.161	10097
919.272	9911
919.383	10017
919.494	10223
919.604	10424
919.715	10181
919.826	10147
919.936	10128
920.047	10238
920.157	10128
920.267	10421
920.378	10139
920.488	10120
920.598	10234
920.708	10519
920.818	10333
920.928	10333
921.038	10569
921.148	10546
921.258	10158
921.368	10055
921.477	10048
921.587	10029
921.697	9812
921.806	9987
921.916	9873
922.025	9728
922.134	9751
922.244	9705
922.353	9759
922.462	9606
922.571	9614
922.68	9507
922.789	9359
922.898	9538
923.007	9431
923.116	9397
923.224	9359
923.333	9462
923.442	9253
923.55	9310
923.659	9253
923.767	9397
923.876	9279
923.984	9367
924.092	9218
924.201	9279
924.309	9279
924.417	9222
924.525	9173
924.633	9302
924.741	10109
924.849	9154
924.956	9336
925.064	9093
925.172	9093
925.279	9009
925.387	9032
925.494	9047
925.602	9161
925.709	9184
925.816	9005
925.924	9066
926.031	9093
926.138	8975
926.245	9169
926.352	9009
926.459	9192
926.566	9233
926.673	9089
926.779	8895
926.886	8956
926.993	8899
927.099	8769
927.206	8758
927.312	8686
927.419	8804
927.525	8811
927.631	8781
927.737	8686
927.843	8678
927.95	8617
928.056	8621
928.162	8667
928.267	8739
928.373	9169
928.479	8853
928.585	8511
928.69	8602
928.796	8735
928.901	8598
929.007	8492
929.112	8568
929.218	8556
929.323	8533
929.428	8511
929.533	8644
929.638	8438
929.743	8476
929.848	8526
929.953	8469
930.058	8389
930.163	8252
930.267	8294
930.372	8415
930.477	8267
930.581	8495
930.685	8336
930.79	8248
930.894	8244
930.998	8130
931.103	8366
931.207	8058
931.311	8062
931.415	7879
931.519	7822
931.623	7750
