Data from test_V78500241_931.txt Node
Date: Fri Mar 25 14:40:12 CST 2022
User: usil
Spectrometer: V785-0024
Trigger mode: 0
Integration Time (sec): 4.000000E-1
Scans to average: 1
Nonlinearity correction enabled: false
Boxcar width: 0
Storing dark spectrum: false
XAxis mode: Wavelengths
Number of Pixels in Spectrum: 1024
>>>>>Begin Spectral Data<<<<<
801.071	24513
801.214	24486
801.356	24201
801.499	24041
801.641	24038
801.783	23939
801.926	24003
802.068	23794
802.211	23722
802.353	23653
802.496	23486
802.638	23337
802.78	23318
802.923	23284
803.065	23277
803.208	23136
803.35	23181
803.492	23261
803.635	23379
803.777	23296
803.919	23391
804.061	23703
804.204	23402
804.346	23197
804.488	23124
804.63	23273
804.773	23132
804.915	23227
805.057	23250
805.199	23242
805.341	23368
805.483	23444
805.626	23387
805.768	23280
805.91	23410
806.052	23387
806.194	23372
806.336	23604
806.478	23410
806.62	23459
806.762	23543
806.904	23745
807.046	23961
807.188	24011
807.33	23969
807.472	24114
807.614	24038
807.756	24258
807.898	24384
808.04	24452
808.182	24795
808.324	25187
808.465	25449
808.607	25986
808.749	26484
808.891	26758
809.033	26743
809.174	26549
809.316	26031
809.458	25518
809.6	25190
809.741	24920
809.883	24768
810.025	24456
810.166	24490
810.308	24235
810.45	24216
810.591	24030
810.733	24022
810.875	23802
811.016	23684
811.158	23729
811.299	23756
811.441	23916
811.582	23687
811.724	23615
811.865	23577
812.007	23490
812.148	23547
812.29	23547
812.431	23695
812.573	23950
812.714	24022
812.855	24106
812.997	24155
813.138	24239
813.279	24232
813.421	23973
813.562	23912
813.703	23946
813.845	23653
813.986	23433
814.127	23185
814.268	23105
814.41	23140
814.551	23109
814.692	23109
814.833	23052
814.974	22965
815.115	23098
815.256	22835
815.397	22854
815.539	22953
815.68	22713
815.821	22706
815.962	22626
816.103	22752
816.244	22580
816.385	22516
816.526	22489
816.666	22238
816.807	22143
816.948	22261
817.089	22306
817.23	22295
817.371	22135
817.512	22169
817.653	22154
817.793	22093
817.934	22169
818.075	22040
818.216	22109
818.356	22143
818.497	21854
818.638	21770
818.778	21789
818.919	21880
819.06	21876
819.2	21994
819.341	21975
819.481	21934
819.622	22230
819.762	22310
819.903	22253
820.043	22265
820.184	22139
820.324	22002
820.465	22154
820.605	21983
820.746	21930
820.886	22051
821.026	21998
821.167	22017
821.307	22090
821.447	22025
821.588	21816
821.728	21774
821.868	21542
822.008	21519
822.149	21458
822.289	21492
822.429	21131
822.569	21135
822.709	21154
822.849	20880
822.99	20883
823.13	20804
823.27	20929
823.41	20583
823.55	20735
823.69	20796
823.83	20762
823.97	20617
824.11	20480
824.25	20442
824.389	20495
824.529	20575
824.669	20469
824.809	20640
824.949	20541
825.089	20507
825.228	20518
825.368	20366
825.508	20305
825.648	20370
825.787	20343
825.927	20343
826.067	20290
826.206	20271
826.346	20320
826.485	20278
826.625	20229
826.765	20438
826.904	20244
827.044	20020
827.183	19959
827.323	19978
827.462	19955
827.601	19974
827.741	19921
827.88	19974
828.02	19860
828.159	19906
828.298	19909
828.437	19849
828.577	19894
828.716	20012
828.855	19921
828.994	19674
829.134	19700
829.273	19731
829.412	19567
829.551	19544
829.69	19605
829.829	19708
829.968	19685
830.107	19685
830.246	19628
830.385	19677
830.524	19514
830.663	19453
830.802	19381
830.941	19285
831.08	19206
831.219	19331
831.357	19324
831.496	19430
831.635	19240
831.774	19107
831.913	19213
832.051	18985
832.19	18958
832.329	19034
832.467	19080
832.606	18848
832.744	18989
832.883	19012
833.022	18798
833.16	18928
833.299	19004
833.437	18962
833.576	19050
833.714	18973
833.852	19080
833.991	19042
834.129	19160
834.267	19217
834.406	19080
834.544	19126
834.682	19088
834.821	18985
834.959	19000
835.097	19050
835.235	19061
835.373	19015
835.511	18924
835.65	18779
835.788	18745
835.926	18734
836.064	18597
836.202	18593
836.34	18829
836.478	18863
836.615	18817
836.753	18734
836.891	19019
837.029	18779
837.167	18722
837.305	18646
837.443	18642
837.58	18555
837.718	18658
837.856	18593
837.993	18734
838.131	18593
838.269	18445
838.406	18506
838.544	18483
838.681	18323
838.819	18350
838.956	18140
839.094	18121
839.231	18121
839.369	18182
839.506	18547
839.643	18205
839.781	18213
839.918	17977
840.055	18171
840.193	18083
840.33	18072
840.467	18038
840.604	18098
840.742	18414
840.879	17897
841.016	18049
841.153	17923
841.29	18159
841.427	18129
841.564	18083
841.701	18053
841.838	17973
841.975	17965
842.112	17920
842.249	17912
842.385	17923
842.522	18045
842.659	17821
842.796	17885
842.933	17878
843.069	17729
843.206	17775
843.343	17923
843.479	17908
843.616	17863
843.752	17638
843.889	17684
844.025	17752
844.162	17592
844.298	17863
844.435	17668
844.571	17729
844.708	17775
844.844	18003
844.98	18038
845.117	17999
845.253	18129
845.389	18121
845.525	18631
845.661	19270
845.798	20054
845.934	20796
846.07	20975
846.206	20971
846.342	20473
846.478	19628
846.614	18673
846.75	17961
846.886	17726
847.022	17672
847.158	17512
847.294	17356
847.429	17303
847.565	17189
847.701	17421
847.837	16873
847.972	16908
848.108	17010
848.244	16934
848.379	16869
848.515	16782
848.65	16687
848.786	16733
848.921	16725
849.057	16854
849.192	16778
849.328	16828
849.463	16691
849.598	16710
849.734	16664
849.869	16565
850.004	16485
850.14	16504
850.275	16569
850.41	16478
850.545	16424
850.68	16394
850.815	16447
850.95	16451
851.085	16626
851.22	16611
851.355	16459
851.49	16386
851.625	16519
851.76	16417
851.895	16428
852.03	16371
852.165	16417
852.299	16470
852.434	16443
852.569	16497
852.703	16413
852.838	16596
852.973	16523
853.107	16596
853.242	16428
853.376	16386
853.511	16154
853.645	16287
853.78	16493
853.914	16516
854.048	16325
854.183	16371
854.317	16398
854.451	16618
854.585	16318
854.72	16363
854.854	16417
854.988	16181
855.122	16280
855.256	16215
855.39	16382
855.524	16371
855.658	16371
855.792	16280
855.926	16306
856.06	16310
856.194	16333
856.327	16341
856.461	16181
856.595	16246
856.729	16284
856.862	16413
856.996	16489
857.13	16436
857.263	16466
857.397	16417
857.53	16299
857.664	16341
857.797	16440
857.931	16447
858.064	16417
858.197	16386
858.331	16329
858.464	16223
858.597	16143
858.731	16253
858.864	16257
858.997	16295
859.13	16276
859.263	16329
859.396	16394
859.529	16188
859.662	16268
859.795	16265
859.928	16246
860.061	16398
860.194	16413
860.327	16265
860.46	16200
860.592	16394
860.725	16432
860.858	16337
860.99	16200
861.123	16185
861.256	16188
861.388	16265
861.521	16900
861.653	16074
861.786	16051
861.918	16154
862.05	16105
862.183	16223
862.315	16322
862.447	16230
862.58	16226
862.712	16017
862.844	15994
862.976	16074
863.108	16128
863.24	16516
863.372	15945
863.504	15949
863.636	16036
863.768	16105
863.9	16048
864.032	15964
864.164	16029
864.296	16044
864.428	16124
864.559	16154
864.691	16097
864.823	16082
864.954	15930
865.086	16059
865.217	16029
865.349	15899
865.48	15956
865.612	16025
865.743	15975
865.875	16029
866.006	16032
866.137	15907
866.269	15972
866.4	15991
866.531	15873
866.662	15911
866.793	15911
866.924	15873
867.055	15998
867.186	15911
867.317	15918
867.448	15793
867.579	15926
867.71	15895
867.841	15918
867.972	16029
868.103	15892
868.233	15964
868.364	15968
868.495	16109
868.625	16158
868.756	16207
868.886	16131
869.017	16291
869.147	16261
869.278	16310
869.408	16204
869.539	16188
869.669	16306
869.799	16249
869.929	16333
870.06	16268
870.19	16569
870.32	16474
870.45	16546
870.58	16615
870.71	16782
870.84	16656
870.97	16565
871.1	16641
871.23	16786
871.36	16744
871.489	16641
871.619	16679
871.749	16782
871.879	16790
872.008	16843
872.138	16862
872.267	16778
872.397	16812
872.526	16523
872.656	16668
872.785	16626
872.915	16843
873.044	16816
873.173	16843
873.303	16858
873.432	16877
873.561	16908
873.69	16843
873.819	16911
873.948	16896
874.077	16930
874.206	16923
874.335	16843
874.464	16991
874.593	17303
874.722	17121
874.851	17227
874.979	17204
875.108	17318
875.237	17121
875.365	17105
875.494	17136
875.623	17277
875.751	17159
875.88	17258
876.008	17360
876.136	17391
876.265	17619
876.393	17684
876.521	17794
876.65	17805
876.778	17687
876.906	17543
877.034	17695
877.162	17642
877.29	17653
877.418	17649
877.546	17741
877.674	17729
877.802	17771
877.93	17760
878.058	17771
878.185	17649
878.313	17767
878.441	17855
878.568	17779
878.696	17958
878.824	18095
878.951	18270
879.079	18627
879.206	19000
879.333	19156
879.461	19274
879.588	19495
879.715	19552
879.842	19502
879.97	19133
880.097	18467
880.224	18235
880.351	18281
880.478	18114
880.605	17935
880.732	18045
880.859	18064
880.986	17893
881.112	18026
881.239	17703
881.366	17570
881.493	17562
881.619	17532
881.746	17539
881.872	17497
881.999	17509
882.125	17455
882.252	17608
882.378	17478
882.505	17752
882.631	17493
882.757	17311
882.883	17505
883.01	17330
883.136	17235
883.262	17277
883.388	17200
883.514	17303
883.64	17387
883.766	17334
883.892	17128
884.018	17185
884.143	17273
884.269	17364
884.395	17029
884.52	17086
884.646	17048
884.772	17033
884.897	16869
885.023	17018
885.148	17094
885.274	17064
885.399	16999
885.524	17010
885.65	16965
885.775	16987
885.9	16987
886.025	16995
886.15	16976
886.275	16862
886.4	16847
886.525	16869
886.65	16778
886.775	16839
886.9	16889
887.025	17079
887.149	16839
887.274	16683
887.399	16554
887.523	16630
887.648	16550
887.773	16584
887.897	16584
888.021	16596
888.146	16535
888.27	16580
888.395	16615
888.519	16618
888.643	16607
888.767	16565
888.891	16375
889.015	16329
889.139	16405
889.263	16394
889.387	16474
889.511	16512
889.635	16432
889.759	16318
889.883	16322
890.006	16375
890.13	16413
890.254	16226
890.377	16196
890.501	16181
890.624	16192
890.748	16177
890.871	15998
890.995	15915
891.118	15926
891.241	15937
891.364	15975
891.488	16067
891.611	15812
891.734	15895
891.857	15968
891.98	15884
892.103	16131
892.226	15922
892.349	15918
892.471	15755
892.594	15797
892.717	15922
892.839	15785
892.962	15812
893.085	15975
893.207	15785
893.33	15728
893.452	15778
893.575	15937
893.697	15846
893.819	15979
893.941	16048
894.064	15934
894.186	15785
894.308	15846
894.43	15998
894.552	15987
894.674	15949
894.796	15812
894.918	15930
895.04	15869
895.161	15846
895.283	15857
895.405	15797
895.526	15934
895.648	15876
895.769	16002
895.891	16048
896.012	16002
896.134	16082
896.255	16044
896.376	15922
896.498	15983
896.619	16112
896.74	16059
896.861	16074
896.982	16367
897.103	16466
897.224	16272
897.345	16105
897.466	16169
897.587	16188
897.708	16325
897.828	16238
897.949	16143
898.07	15991
898.19	16192
898.311	16363
898.431	16291
898.552	16272
898.672	16314
898.792	16402
898.913	16265
899.033	16200
899.153	16131
899.273	16116
899.393	16082
899.513	16211
899.633	16139
899.753	16048
899.873	16071
899.993	16147
900.113	16078
900.232	16207
900.352	15975
900.472	16021
900.591	15953
900.711	15945
900.83	15934
900.95	16063
901.069	15998
901.189	15854
901.308	15694
901.427	15606
901.546	15614
901.665	15477
901.784	15648
901.904	15405
902.023	15351
902.141	15256
902.26	15108
902.379	15268
902.498	15131
902.617	15169
902.735	15218
902.854	15104
902.973	15001
903.091	14895
903.21	14777
903.328	14842
903.446	14842
903.565	14655
903.683	14651
903.801	14530
903.919	14625
904.038	14644
904.156	14461
904.274	14522
904.392	14507
904.51	14442
904.627	14419
904.745	14480
904.863	14446
904.981	14218
905.098	14058
905.216	14077
905.334	14210
905.451	14073
905.569	14035
905.686	14195
905.803	14054
905.921	13883
906.038	13986
906.155	13959
906.272	13765
906.389	13784
906.506	13704
906.623	13677
906.74	13559
906.857	13548
906.974	13506
907.091	13723
907.208	13803
907.324	13685
907.441	13552
907.557	13400
907.674	13373
907.79	13335
907.907	13304
908.023	13384
908.139	13430
908.256	13266
908.372	13270
908.488	13225
908.604	13206
908.72	13160
908.836	13076
908.952	13034
909.068	13072
909.184	13202
909.3	13114
909.415	13152
909.531	13084
909.647	12886
909.762	12856
909.878	12833
909.993	12901
910.108	12825
910.224	12913
910.339	12878
910.454	12779
910.57	12681
910.685	12639
910.8	12897
910.915	12859
911.03	12639
911.145	12532
911.259	12559
911.374	12536
911.489	12350
911.604	12399
911.718	12239
911.833	12361
911.947	12194
912.062	12125
912.176	12194
912.291	12258
912.405	12224
912.519	12429
912.633	12422
912.748	12327
912.862	12201
912.976	12201
913.09	11996
913.204	12057
913.318	12060
913.431	12194
913.545	12148
913.659	12224
913.772	12136
913.886	11935
914	11996
914.113	12041
914.226	12140
914.34	12003
914.453	11878
914.566	12053
914.68	11908
914.793	11954
914.906	11779
915.019	11668
915.132	11657
915.245	11703
915.358	11726
915.47	11737
915.583	11752
915.696	11745
915.809	11908
915.921	11889
916.034	11668
916.146	11642
916.259	11646
916.371	11703
916.483	11745
916.595	11570
916.708	11623
916.82	11649
916.932	11619
917.044	11585
917.156	11474
917.268	11398
917.38	11444
917.491	11417
917.603	11471
917.715	11547
917.826	11566
917.938	11455
918.049	11425
918.161	11490
918.272	11535
918.384	11608
918.495	11398
918.606	11273
918.717	11318
918.828	11387
918.939	11322
919.05	11250
919.161	11288
919.272	11113
919.383	11159
919.494	11383
919.604	11505
919.715	11330
919.826	11280
919.936	11349
920.047	11509
920.157	11387
920.267	11532
920.378	11299
920.488	11258
920.598	11528
920.708	11589
920.818	11528
920.928	11512
921.038	11653
921.148	11566
921.258	11337
921.368	11159
921.477	11166
921.587	11113
921.697	10987
921.806	11102
921.916	11041
922.025	10763
922.134	10858
922.244	10763
922.353	10801
922.462	10725
922.571	10611
922.68	10504
922.789	10459
922.898	10527
923.007	10413
923.116	10558
923.224	10459
923.333	10474
923.442	10341
923.55	10451
923.659	10413
923.767	10394
923.876	10284
923.984	10421
924.092	10310
924.201	10394
924.309	10344
924.417	10303
924.525	10360
924.633	10303
924.741	11121
924.849	10063
924.956	10284
925.064	10017
925.172	10051
925.279	10093
925.387	10128
925.494	10181
925.602	10257
925.709	10147
925.816	9975
925.924	10078
926.031	10219
926.138	10071
926.245	10109
926.352	9975
926.459	10139
926.566	10253
926.673	9968
926.779	9854
926.886	9892
926.993	9755
927.099	9842
927.206	9694
927.312	9736
927.419	9857
927.525	9743
927.631	9842
927.737	9694
927.843	9671
927.95	9485
928.056	9576
928.162	9656
928.267	9701
928.373	10200
928.479	9781
928.585	9534
928.69	9713
928.796	9698
928.901	9584
929.007	9378
929.112	9557
929.218	9469
929.323	9408
929.428	9454
929.533	9507
929.638	9405
929.743	9469
929.848	9473
929.953	9469
930.058	9313
930.163	9272
930.267	9207
930.372	9310
930.477	9089
930.581	9424
930.685	9298
930.79	9142
930.894	9093
930.998	9093
931.103	9253
931.207	8910
931.311	8788
931.415	8785
931.519	8537
931.623	8617
