Data from test_V78500241_2721.txt Node
Date: Fri Mar 25 14:52:39 CST 2022
User: usil
Spectrometer: V785-0024
Trigger mode: 0
Integration Time (sec): 4.000000E-1
Scans to average: 1
Nonlinearity correction enabled: false
Boxcar width: 0
Storing dark spectrum: false
XAxis mode: Wavelengths
Number of Pixels in Spectrum: 1024
>>>>>Begin Spectral Data<<<<<
801.071	21994
801.214	22036
801.356	21663
801.499	21561
801.641	21519
801.783	21412
801.926	21412
802.068	21302
802.211	21370
802.353	21260
802.496	20937
802.638	20796
802.78	20796
802.923	20773
803.065	20674
803.208	20693
803.35	20659
803.492	20796
803.635	20899
803.777	20629
803.919	20716
804.061	20998
804.204	20807
804.346	20621
804.488	20522
804.63	20697
804.773	20564
804.915	20651
805.057	20765
805.199	20552
805.341	20594
805.483	20762
805.626	20750
805.768	20602
805.91	20727
806.052	20579
806.194	20454
806.336	20731
806.478	20511
806.62	20568
806.762	20720
806.904	20785
807.046	21085
807.188	20994
807.33	20956
807.472	21123
807.614	20849
807.756	20906
807.898	20712
808.04	20720
808.182	20556
808.324	20716
808.465	20823
808.607	20853
808.749	21043
808.891	21093
809.033	21138
809.174	21070
809.316	20948
809.458	20971
809.6	20944
809.741	21001
809.883	21070
810.025	21070
810.166	21077
810.308	21093
810.45	21074
810.591	21123
810.733	20838
810.875	20788
811.016	20648
811.158	20575
811.299	20815
811.441	20773
811.582	20872
811.724	20735
811.865	20720
812.007	20781
812.148	20648
812.29	20788
812.431	20872
812.573	21024
812.714	21188
812.855	21245
812.997	21192
813.138	21458
813.279	21401
813.421	21302
813.562	21184
813.703	20952
813.845	20826
813.986	20655
814.127	20473
814.268	20355
814.41	20328
814.551	20351
814.692	20476
814.833	20221
814.974	20320
815.115	20294
815.256	20134
815.397	20168
815.539	20229
815.68	20012
815.821	19989
815.962	19932
816.103	20065
816.244	19906
816.385	19856
816.526	19769
816.666	19548
816.807	19616
816.948	19502
817.089	19518
817.23	19499
817.371	19407
817.512	19415
817.653	19373
817.793	19369
817.934	19434
818.075	19499
818.216	19449
818.356	19438
818.497	19331
818.638	19103
818.778	19019
818.919	19148
819.06	19156
819.2	19343
819.341	19232
819.481	19304
819.622	19403
819.762	19628
819.903	19582
820.043	19537
820.184	19403
820.324	19362
820.465	19472
820.605	19506
820.746	19369
820.886	19278
821.026	19362
821.167	19388
821.307	19430
821.447	19232
821.588	19247
821.728	19084
821.868	19019
822.008	18776
822.149	18798
822.289	18795
822.429	18578
822.569	18506
822.709	18536
822.849	18281
822.99	18433
823.13	18315
823.27	18292
823.41	18117
823.55	18079
823.69	18144
823.83	18022
823.97	18064
824.11	17923
824.25	17923
824.389	18034
824.529	17942
824.669	17912
824.809	17950
824.949	17889
825.089	18038
825.228	17817
825.368	17813
825.508	17691
825.648	17741
825.787	17764
825.927	17718
826.067	17665
826.206	17577
826.346	17733
826.485	17718
826.625	17733
826.765	17756
826.904	17775
827.044	17425
827.183	17444
827.323	17334
827.462	17471
827.601	17330
827.741	17356
827.88	17334
828.02	17254
828.159	17322
828.298	17398
828.437	17528
828.577	17288
828.716	17444
828.855	17459
828.994	17098
829.134	17025
829.273	17117
829.412	17018
829.551	17018
829.69	17105
829.829	17143
829.968	17242
830.107	17242
830.246	17162
830.385	17098
830.524	17136
830.663	16953
830.802	16820
830.941	16694
831.08	16687
831.219	16873
831.357	16866
831.496	16991
831.635	16816
831.774	16599
831.913	16618
832.051	16558
832.19	16535
832.329	16542
832.467	16428
832.606	16428
832.744	16371
832.883	16405
833.022	16413
833.16	16402
833.299	16462
833.437	16398
833.576	16497
833.714	16523
833.852	16497
833.991	16565
834.129	16569
834.267	16363
834.406	16569
834.544	16455
834.682	16508
834.821	16390
834.959	16664
835.097	16542
835.235	16504
835.373	16596
835.511	16508
835.65	16421
835.788	16367
835.926	16265
836.064	16249
836.202	16181
836.34	16428
836.478	16504
836.615	16428
836.753	16478
836.891	16474
837.029	16318
837.167	16341
837.305	16322
837.443	16295
837.58	16268
837.718	16394
837.856	16196
837.993	16276
838.131	16333
838.269	16234
838.406	16242
838.544	16131
838.681	16032
838.819	15987
838.956	15854
839.094	15774
839.231	16055
839.369	16017
839.506	16310
839.643	16063
839.781	15842
839.918	15819
840.055	15838
840.193	15876
840.33	15785
840.467	15781
840.604	15854
840.742	16036
840.879	15709
841.016	15739
841.153	15675
841.29	16048
841.427	15869
841.564	15895
841.701	15789
841.838	15720
841.975	15743
842.112	15709
842.249	15675
842.385	15504
842.522	15816
842.659	15797
842.796	15641
842.933	15675
843.069	15557
843.206	15564
843.343	15701
843.479	15606
843.616	15595
843.752	15363
843.889	15447
844.025	15526
844.162	15386
844.298	15523
844.435	15428
844.571	15291
844.708	15408
844.844	15606
844.98	15557
845.117	15526
845.253	15393
845.389	15329
845.525	15378
845.661	15329
845.798	15203
845.934	15272
846.07	15150
846.206	15272
846.342	15378
846.478	15264
846.614	15112
846.75	15017
846.886	14956
847.022	15127
847.158	15070
847.294	15036
847.429	15024
847.565	14914
847.701	15222
847.837	14735
847.972	14712
848.108	14826
848.244	14792
848.379	14674
848.515	14590
848.65	14613
848.786	14583
848.921	14480
849.057	14640
849.192	14621
849.328	14632
849.463	14644
849.598	14530
849.734	14476
849.869	14438
850.004	14343
850.14	14446
850.275	14317
850.41	14233
850.545	14324
850.68	14267
850.815	14301
850.95	14290
851.085	14583
851.22	14457
851.355	14389
851.49	14263
851.625	14324
851.76	14233
851.895	14199
852.03	14275
852.165	14343
852.299	14415
852.434	14400
852.569	14336
852.703	14366
852.838	14514
852.973	14537
853.107	14495
853.242	14343
853.376	14172
853.511	14020
853.645	14206
853.78	14263
853.914	14244
854.048	14172
854.183	14172
854.317	14259
854.451	14336
854.585	14164
854.72	14138
854.854	14298
854.988	14149
855.122	14176
855.256	14096
855.39	14195
855.524	14400
855.658	14256
855.792	14229
855.926	14229
856.06	14183
856.194	14317
856.327	14206
856.461	14161
856.595	14172
856.729	14199
856.862	14355
856.996	14172
857.13	14221
857.263	14286
857.397	14332
857.53	14149
857.664	14282
857.797	14218
857.931	14355
858.064	14301
858.197	14298
858.331	14259
858.464	14183
858.597	14130
858.731	14240
858.864	14206
858.997	14161
859.13	14256
859.263	14271
859.396	14286
859.529	14263
859.662	14218
859.795	14202
859.928	14206
860.061	14328
860.194	14377
860.327	14195
860.46	14278
860.592	14275
860.725	14313
860.858	14320
860.99	14244
861.123	14092
861.256	14157
861.388	14172
861.521	14800
861.653	14035
861.786	14092
861.918	14039
862.05	14164
862.183	14206
862.315	14142
862.447	14271
862.58	14107
862.712	13986
862.844	13902
862.976	13970
863.108	14092
863.24	14434
863.372	14005
863.504	14024
863.636	13967
863.768	14088
863.9	14043
864.032	14012
864.164	13906
864.296	13993
864.428	14069
864.559	14237
864.691	14183
864.823	14031
864.954	14046
865.086	14020
865.217	14027
865.349	13944
865.48	13986
865.612	13993
865.743	14027
865.875	13955
866.006	13913
866.137	13947
866.269	13936
866.4	13898
866.531	14020
866.662	13974
866.793	13894
866.924	13955
867.055	13997
867.186	14031
867.317	13974
867.448	13951
867.579	13852
867.71	13913
867.841	13883
867.972	14008
868.103	14027
868.233	13955
868.364	13967
868.495	14054
868.625	14225
868.756	14252
868.886	14153
869.017	14259
869.147	14259
869.278	14336
869.408	14267
869.539	14176
869.669	14313
869.799	14225
869.929	14351
870.06	14301
870.19	14606
870.32	14571
870.45	14568
870.58	14564
870.71	14716
870.84	14648
870.97	14697
871.1	14560
871.23	14743
871.36	14842
871.489	14785
871.619	14853
871.749	14792
871.879	14842
872.008	14895
872.138	14815
872.267	14883
872.397	14682
872.526	14697
872.656	14644
872.785	14743
872.915	14925
873.044	14975
873.173	14819
873.303	14853
873.432	14906
873.561	14891
873.69	14902
873.819	14708
873.948	14899
874.077	14887
874.206	14887
874.335	14902
874.464	15154
874.593	15165
874.722	15142
874.851	15329
874.979	15241
875.108	15218
875.237	15074
875.365	15116
875.494	15245
875.623	15245
875.751	15135
875.88	15279
876.008	15401
876.136	15462
876.265	15641
876.393	15717
876.521	15686
876.65	15713
876.778	15652
876.906	15580
877.034	15553
877.162	15545
877.29	15591
877.418	15614
877.546	15603
877.674	15530
877.802	15538
877.93	15637
878.058	15553
878.185	15523
878.313	15557
878.441	15648
878.568	15481
878.696	15538
878.824	15679
878.951	15633
879.079	15720
879.206	15903
879.333	15850
879.461	15675
879.588	15663
879.715	15762
879.842	15888
879.97	15694
880.097	15481
880.224	15458
880.351	15401
880.478	15488
880.605	15439
880.732	15428
880.859	15652
880.986	15660
881.112	15595
881.239	15412
881.366	15313
881.493	15192
881.619	15119
881.746	15157
881.872	15131
881.999	15180
882.125	15070
882.252	15184
882.378	15077
882.505	15256
882.631	15058
882.757	14929
882.883	15093
883.01	14963
883.136	14872
883.262	14746
883.388	14765
883.514	14971
883.64	15150
883.766	14902
883.892	14762
884.018	14796
884.143	14914
884.269	15017
884.395	14651
884.52	14583
884.646	14583
884.772	14613
884.897	14533
885.023	14674
885.148	14705
885.274	14788
885.399	14701
885.524	14537
885.65	14724
885.775	14746
885.9	14598
886.025	14720
886.15	14712
886.275	14549
886.4	14579
886.525	14625
886.65	14606
886.775	14575
886.9	14758
887.025	14849
887.149	14655
887.274	14469
887.399	14469
887.523	14465
887.648	14446
887.773	14404
887.897	14564
888.021	14431
888.146	14370
888.27	14552
888.395	14651
888.519	14503
888.643	14514
888.767	14636
888.891	14450
889.015	14309
889.139	14412
889.263	14385
889.387	14476
889.511	14541
889.635	14583
889.759	14324
889.883	14271
890.006	14377
890.13	14400
890.254	14229
890.377	14347
890.501	14153
890.624	14062
890.748	14206
890.871	14123
890.995	13959
891.118	13974
891.241	14084
891.364	14069
891.488	14149
891.611	14016
891.734	14126
891.857	14088
891.98	14043
892.103	14081
892.226	14107
892.349	13997
892.471	13883
892.594	14065
892.717	14005
892.839	13936
892.962	14172
893.085	14088
893.207	14077
893.33	13928
893.452	13951
893.575	14069
893.697	14088
893.819	14244
893.941	14347
894.064	14168
894.186	14100
894.308	13967
894.43	14183
894.552	14168
894.674	14164
894.796	14008
894.918	14039
895.04	14100
895.161	14168
895.283	14240
895.405	13993
895.526	14084
895.648	14081
895.769	14168
895.891	14248
896.012	14263
896.134	14267
896.255	14187
896.376	14164
896.498	14168
896.619	14301
896.74	14225
896.861	14282
896.982	14598
897.103	14708
897.224	14438
897.345	14530
897.466	14362
897.587	14442
897.708	14632
897.828	14587
897.949	14434
898.07	14419
898.19	14556
898.311	14636
898.431	14552
898.552	14575
898.672	14640
898.792	14697
898.913	14541
899.033	14503
899.153	14339
899.273	14377
899.393	14377
899.513	14366
899.633	14465
899.753	14457
899.873	14396
899.993	14575
900.113	14400
900.232	14476
900.352	14366
900.472	14370
900.591	14233
900.711	14233
900.83	14278
900.95	14377
901.069	14385
901.189	14290
901.308	13970
901.427	13993
901.546	13875
901.665	13913
901.784	13982
901.904	13837
902.023	13708
902.141	13628
902.26	13510
902.379	13655
902.498	13510
902.617	13400
902.735	13590
902.854	13495
902.973	13464
903.091	13308
903.21	13324
903.328	13225
903.446	13194
903.565	13065
903.683	13103
903.801	12954
903.919	13042
904.038	13088
904.156	12852
904.274	12981
904.392	12840
904.51	12943
904.627	12920
904.745	13065
904.863	13057
904.981	12760
905.098	12684
905.216	12650
905.334	12536
905.451	12639
905.569	12536
905.686	12582
905.803	12582
905.921	12384
906.038	12536
906.155	12578
906.272	12266
906.389	12266
906.506	12270
906.623	12304
906.74	12224
906.857	12117
906.974	12133
907.091	12224
907.208	12407
907.324	12327
907.441	12213
907.557	11908
907.674	11999
907.79	11817
907.907	11889
908.023	11969
908.139	11984
908.256	11954
908.372	11817
908.488	11859
908.604	11836
908.72	11726
908.836	11707
908.952	11665
909.068	11771
909.184	11855
909.3	11737
909.415	11703
909.531	11790
909.647	11490
909.762	11516
909.878	11417
909.993	11566
910.108	11433
910.224	11421
910.339	11474
910.454	11360
910.57	11360
910.685	11303
910.8	11539
910.915	11490
911.03	11383
911.145	11178
911.259	11204
911.374	11280
911.489	11079
911.604	11029
911.718	10877
911.833	10953
911.947	10885
912.062	10755
912.176	10839
912.291	10949
912.405	11010
912.519	11216
912.633	11166
912.748	11052
912.862	10900
912.976	10778
913.09	10733
913.204	10847
913.318	10835
913.431	10908
913.545	10892
913.659	10949
913.772	10816
913.886	10729
914	10706
914.113	10839
914.226	10812
914.34	10843
914.453	10607
914.566	10763
914.68	10618
914.793	10691
914.906	10459
915.019	10413
915.132	10409
915.245	10379
915.358	10519
915.47	10550
915.583	10466
915.696	10519
915.809	10679
915.921	10596
916.034	10470
916.146	10379
916.259	10303
916.371	10451
916.483	10485
916.595	10344
916.708	10375
916.82	10329
916.932	10382
917.044	10459
917.156	10394
917.268	10211
917.38	10291
917.491	10253
917.603	10253
917.715	10371
917.826	10440
917.938	10246
918.049	10177
918.161	10318
918.272	10428
918.384	10398
918.495	10310
918.606	10139
918.717	10097
918.828	10230
918.939	10120
919.05	10097
919.161	10093
919.272	10032
919.383	10071
919.494	10242
919.604	10398
919.715	10169
919.826	10154
919.936	10135
920.047	10238
920.157	10185
920.267	10299
920.378	10287
920.488	10154
920.598	10337
920.708	10561
920.818	10382
920.928	10417
921.038	10516
921.148	10478
921.258	10287
921.368	10139
921.477	9949
921.587	10055
921.697	9930
921.806	10131
921.916	9865
922.025	9774
922.134	9759
922.244	9675
922.353	9808
922.462	9591
922.571	9675
922.68	9412
922.789	9401
922.898	9454
923.007	9359
923.116	9473
923.224	9439
923.333	9420
923.442	9344
923.55	9408
923.659	9363
923.767	9344
923.876	9287
923.984	9412
924.092	9192
924.201	9313
924.309	9260
924.417	9321
924.525	9192
924.633	9253
924.741	9960
924.849	9043
924.956	9268
925.064	9104
925.172	9043
925.279	9127
925.387	9116
925.494	9138
925.602	9241
925.709	9230
925.816	9097
925.924	9116
926.031	9218
926.138	9043
926.245	9150
926.352	9085
926.459	9169
926.566	9207
926.673	9077
926.779	9009
926.886	8975
926.993	8857
927.099	8834
927.206	8823
927.312	8743
927.419	8823
927.525	8785
927.631	8823
927.737	8746
927.843	8693
927.95	8590
928.056	8731
928.162	8674
928.267	8724
928.373	9348
928.479	8781
928.585	8537
928.69	8663
928.796	8629
928.901	8625
929.007	8484
929.112	8682
929.218	8526
929.323	8579
929.428	8469
929.533	8697
929.638	8495
929.743	8590
929.848	8533
929.953	8545
930.058	8389
930.163	8317
930.267	8313
930.372	8396
930.477	8206
930.581	8530
930.685	8320
930.79	8256
930.894	8259
930.998	8240
931.103	8377
931.207	8054
931.311	7997
931.415	7871
931.519	7746
931.623	7788
