Data from test_V78500241_3522.txt Node
Date: Fri Mar 25 14:58:14 CST 2022
User: usil
Spectrometer: V785-0024
Trigger mode: 0
Integration Time (sec): 4.000000E-1
Scans to average: 1
Nonlinearity correction enabled: false
Boxcar width: 0
Storing dark spectrum: false
XAxis mode: Wavelengths
Number of Pixels in Spectrum: 1024
>>>>>Begin Spectral Data<<<<<
801.071	21857
801.214	21880
801.356	21473
801.499	21462
801.641	21245
801.783	21306
801.926	21325
802.068	21211
802.211	21184
802.353	21150
802.496	20883
802.638	20686
802.78	20746
802.923	20667
803.065	20514
803.208	20648
803.35	20495
803.492	20720
803.635	20746
803.777	20701
803.919	20716
804.061	20902
804.204	20678
804.346	20473
804.488	20381
804.63	20617
804.773	20499
804.915	20457
805.057	20598
805.199	20469
805.341	20514
805.483	20590
805.626	20549
805.768	20499
805.91	20594
806.052	20465
806.194	20442
806.336	20583
806.478	20404
806.62	20484
806.762	20594
806.904	20708
807.046	20998
807.188	20902
807.33	20773
807.472	20963
807.614	20773
807.756	20800
807.898	20716
808.04	20530
808.182	20644
808.324	20602
808.465	20602
808.607	20724
808.749	20857
808.891	20990
809.033	20933
809.174	20864
809.316	20788
809.458	20819
809.6	20807
809.741	20933
809.883	20986
810.025	21055
810.166	20956
810.308	20994
810.45	20979
810.591	20838
810.733	20777
810.875	20678
811.016	20583
811.158	20396
811.299	20697
811.441	20815
811.582	20785
811.724	20632
811.865	20552
812.007	20549
812.148	20693
812.29	20686
812.431	20823
812.573	20914
812.714	21001
812.855	21051
812.997	21226
813.138	21199
813.279	21119
813.421	21207
813.562	21028
813.703	21013
813.845	20750
813.986	20587
814.127	20347
814.268	20248
814.41	20202
814.551	20275
814.692	20259
814.833	20092
814.974	20202
815.115	20252
815.256	19909
815.397	19909
815.539	19947
815.68	19890
815.821	19921
815.962	19868
816.103	19902
816.244	19772
816.385	19563
816.526	19658
816.666	19453
816.807	19236
816.948	19457
817.089	19445
817.23	19388
817.371	19301
817.512	19388
817.653	19259
817.793	19198
817.934	19270
818.075	19278
818.216	19266
818.356	19183
818.497	19126
818.638	19008
818.778	18943
818.919	18970
819.06	19031
819.2	19133
819.341	19141
819.481	19240
819.622	19206
819.762	19460
819.903	19419
820.043	19316
820.184	19304
820.324	19301
820.465	19403
820.605	19247
820.746	19255
820.886	19160
821.026	19244
821.167	19110
821.307	19308
821.447	19179
821.588	19015
821.728	19000
821.868	18810
822.008	18738
822.149	18734
822.289	18608
822.429	18357
822.569	18445
822.709	18445
822.849	18201
822.99	18235
823.13	18076
823.27	18190
823.41	17999
823.55	17866
823.69	17874
823.83	18038
823.97	17920
824.11	17855
824.25	17722
824.389	17748
824.529	17885
824.669	17707
824.809	17912
824.949	17847
825.089	17798
825.228	17866
825.368	17566
825.508	17528
825.648	17562
825.787	17615
825.927	17634
826.067	17448
826.206	17520
826.346	17486
826.485	17627
826.625	17497
826.765	17764
826.904	17608
827.044	17417
827.183	17254
827.323	17166
827.462	17185
827.601	17254
827.741	17216
827.88	17216
828.02	17060
828.159	17254
828.298	17284
828.437	17242
828.577	17284
828.716	17467
828.855	17143
828.994	16972
829.134	16953
829.273	16995
829.412	17006
829.551	16904
829.69	17006
829.829	16991
829.968	17136
830.107	17140
830.246	16953
830.385	16949
830.524	16911
830.663	16824
830.802	16664
830.941	16512
831.08	16641
831.219	16713
831.357	16710
831.496	16816
831.635	16592
831.774	16580
831.913	16485
832.051	16561
832.19	16367
832.329	16493
832.467	16219
832.606	16367
832.744	16318
832.883	16246
833.022	16188
833.16	16268
833.299	16436
833.437	16360
833.576	16363
833.714	16382
833.852	16310
833.991	16337
834.129	16432
834.267	16325
834.406	16352
834.544	16512
834.682	16291
834.821	16421
834.959	16584
835.097	16360
835.235	16459
835.373	16481
835.511	16451
835.65	16223
835.788	16352
835.926	16135
836.064	16139
836.202	16086
836.34	16363
836.478	16341
836.615	16322
836.753	16356
836.891	16417
837.029	16402
837.167	16230
837.305	16253
837.443	16257
837.58	16097
837.718	16261
837.856	16207
837.993	16154
838.131	16162
838.269	16093
838.406	16105
838.544	16044
838.681	15930
838.819	15800
838.956	15766
839.094	15759
839.231	15720
839.369	15922
839.506	16120
839.643	15960
839.781	15686
839.918	15633
840.055	15797
840.193	15732
840.33	15747
840.467	15743
840.604	15770
840.742	16002
840.879	15572
841.016	15549
841.153	15713
841.29	15937
841.427	15759
841.564	15911
841.701	15800
841.838	15739
841.975	15671
842.112	15675
842.249	15496
842.385	15431
842.522	15717
842.659	15526
842.796	15504
842.933	15584
843.069	15443
843.206	15523
843.343	15568
843.479	15466
843.616	15538
843.752	15279
843.889	15374
844.025	15462
844.162	15211
844.298	15473
844.435	15336
844.571	15192
844.708	15321
844.844	15447
844.98	15370
845.117	15401
845.253	15207
845.389	15146
845.525	15211
845.661	15237
845.798	14998
845.934	15199
846.07	14967
846.206	15127
846.342	15112
846.478	15127
846.614	15013
846.75	14864
846.886	14861
847.022	14918
847.158	14994
847.294	14857
847.429	14937
847.565	14826
847.701	15154
847.837	14575
847.972	14514
848.108	14743
848.244	14701
848.379	14526
848.515	14480
848.65	14377
848.786	14457
848.921	14434
849.057	14594
849.192	14571
849.328	14526
849.463	14541
849.598	14488
849.734	14389
849.869	14305
850.004	14320
850.14	14195
850.275	14164
850.41	14142
850.545	14229
850.68	14259
850.815	14259
850.95	14271
851.085	14431
851.22	14457
851.355	14237
851.49	14157
851.625	14324
851.76	14195
851.895	14168
852.03	14286
852.165	14161
852.299	14259
852.434	14358
852.569	14309
852.703	14301
852.838	14240
852.973	14545
853.107	14415
853.242	14145
853.376	14073
853.511	14065
853.645	14103
853.78	14252
853.914	14138
854.048	14103
854.183	14126
854.317	14172
854.451	14168
854.585	14134
854.72	14153
854.854	14244
854.988	14138
855.122	14111
855.256	13887
855.39	14145
855.524	14172
855.658	14221
855.792	14115
855.926	14214
856.06	14145
856.194	14244
856.327	14168
856.461	14115
856.595	14088
856.729	14149
856.862	14210
856.996	14077
857.13	14145
857.263	14225
857.397	14309
857.53	14161
857.664	14195
857.797	14248
857.931	14240
858.064	14176
858.197	14240
858.331	14145
858.464	13989
858.597	14005
858.731	14065
858.864	14134
858.997	14084
859.13	14073
859.263	14123
859.396	14202
859.529	14161
859.662	14107
859.795	14168
859.928	14161
860.061	14229
860.194	14252
860.327	14221
860.46	14062
860.592	14180
860.725	14130
860.858	14206
860.99	14119
861.123	14065
861.256	14016
861.388	14153
861.521	14956
861.653	14027
861.786	13986
861.918	13940
862.05	14081
862.183	14088
862.315	14027
862.447	14172
862.58	14123
862.712	13887
862.844	13852
862.976	13951
863.108	14001
863.24	14233
863.372	13826
863.504	13928
863.636	13917
863.768	13913
863.9	13906
864.032	13818
864.164	13849
864.296	13845
864.428	14043
864.559	14008
864.691	14027
864.823	13963
864.954	13940
865.086	13898
865.217	13894
865.349	13856
865.48	13879
865.612	13921
865.743	13989
865.875	13921
866.006	13852
866.137	13913
866.269	13936
866.4	13947
866.531	13898
866.662	13807
866.793	13818
866.924	13849
867.055	13936
867.186	13890
867.317	13890
867.448	13651
867.579	13860
867.71	13765
867.841	13757
867.972	13944
868.103	13902
868.233	13902
868.364	13883
868.495	13951
868.625	14107
868.756	14282
868.886	14046
869.017	14145
869.147	14233
869.278	14199
869.408	14168
869.539	14107
869.669	14237
869.799	14267
869.929	14244
870.06	14237
870.19	14499
870.32	14450
870.45	14442
870.58	14621
870.71	14651
870.84	14678
870.97	14465
871.1	14461
871.23	14693
871.36	14739
871.489	14655
871.619	14773
871.749	14674
871.879	14750
872.008	14731
872.138	14720
872.267	14769
872.397	14575
872.526	14583
872.656	14655
872.785	14617
872.915	14804
873.044	14819
873.173	14891
873.303	14899
873.432	14887
873.561	14929
873.69	14788
873.819	14796
873.948	14853
874.077	14750
874.206	14823
874.335	14758
874.464	14849
874.593	15142
874.722	14971
874.851	15089
874.979	15097
875.108	15169
875.237	15081
875.365	14952
875.494	15127
875.623	15192
875.751	15032
875.88	15161
876.008	15336
876.136	15344
876.265	15462
876.393	15656
876.521	15568
876.65	15637
876.778	15542
876.906	15496
877.034	15416
877.162	15500
877.29	15450
877.418	15530
877.546	15523
877.674	15488
877.802	15572
877.93	15534
878.058	15545
878.185	15454
878.313	15519
878.441	15348
878.568	15340
878.696	15500
878.824	15629
878.951	15625
879.079	15770
879.206	15789
879.333	15625
879.461	15572
879.588	15667
879.715	15831
879.842	15774
879.97	15652
880.097	15420
880.224	15397
880.351	15481
880.478	15405
880.605	15363
880.732	15291
880.859	15576
880.986	15348
881.112	15466
881.239	15329
881.366	15226
881.493	15146
881.619	15028
881.746	15028
881.872	15127
881.999	15009
882.125	15009
882.252	15028
882.378	15051
882.505	15199
882.631	14975
882.757	14948
882.883	14944
883.01	14883
883.136	14716
883.262	14735
883.388	14712
883.514	14876
883.64	14876
883.766	14826
883.892	14632
884.018	14746
884.143	14876
884.269	14967
884.395	14625
884.52	14575
884.646	14518
884.772	14446
884.897	14415
885.023	14644
885.148	14716
885.274	14773
885.399	14693
885.524	14518
885.65	14549
885.775	14693
885.9	14511
886.025	14724
886.15	14590
886.275	14522
886.4	14549
886.525	14590
886.65	14454
886.775	14552
886.9	14648
887.025	14739
887.149	14537
887.274	14415
887.399	14484
887.523	14415
887.648	14252
887.773	14370
887.897	14438
888.021	14507
888.146	14320
888.27	14598
888.395	14610
888.519	14454
888.643	14446
888.767	14454
888.891	14320
889.015	14271
889.139	14328
889.263	14286
889.387	14358
889.511	14480
889.635	14393
889.759	14233
889.883	14248
890.006	14370
890.13	14419
890.254	14157
890.377	14176
890.501	14065
890.624	13982
890.748	14164
890.871	14027
890.995	13906
891.118	13913
891.241	13898
891.364	13974
891.488	14008
891.611	13951
891.734	13932
891.857	14092
891.98	14016
892.103	14100
892.226	14024
892.349	13967
892.471	13803
892.594	13883
892.717	14012
892.839	13917
892.962	14043
893.085	14035
893.207	13940
893.33	13791
893.452	13822
893.575	14081
893.697	13906
893.819	14130
893.941	14161
894.064	14081
894.186	13974
894.308	13947
894.43	14043
894.552	14180
894.674	14180
894.796	13890
894.918	14058
895.04	13989
895.161	14168
895.283	14115
895.405	14065
895.526	13993
895.648	14107
895.769	14164
895.891	14218
896.012	14237
896.134	14180
896.255	14046
896.376	14081
896.498	14237
896.619	14210
896.74	14248
896.861	14259
896.982	14568
897.103	14602
897.224	14351
897.345	14317
897.466	14332
897.587	14347
897.708	14511
897.828	14526
897.949	14400
898.07	14320
898.19	14313
898.311	14590
898.431	14396
898.552	14503
898.672	14537
898.792	14663
898.913	14552
899.033	14431
899.153	14358
899.273	14282
899.393	14252
899.513	14431
899.633	14393
899.753	14362
899.873	14324
899.993	14400
900.113	14347
900.232	14385
900.352	14240
900.472	14347
900.591	14256
900.711	14259
900.83	14111
900.95	14256
901.069	14370
901.189	14233
901.308	13913
901.427	13818
901.546	13940
901.665	13898
901.784	13944
901.904	13791
902.023	13731
902.141	13472
902.26	13457
902.379	13544
902.498	13396
902.617	13426
902.735	13567
902.854	13480
902.973	13411
903.091	13251
903.21	13179
903.328	13198
903.446	13183
903.565	13091
903.683	12970
903.801	12966
903.919	13084
904.038	12970
904.156	12833
904.274	12951
904.392	12890
904.51	12844
904.627	12894
904.745	12878
904.863	12909
904.981	12677
905.098	12582
905.216	12574
905.334	12654
905.451	12578
905.569	12528
905.686	12513
905.803	12563
905.921	12410
906.038	12445
906.155	12384
906.272	12311
906.389	12311
906.506	12209
906.623	12213
906.74	12159
906.857	12011
906.974	11961
907.091	12167
907.208	12327
907.324	12254
907.441	12102
907.557	11840
907.674	11878
907.79	11805
907.907	11878
908.023	11889
908.139	11897
908.256	11809
908.372	11790
908.488	11764
908.604	11703
908.72	11600
908.836	11615
908.952	11581
909.068	11691
909.184	11623
909.3	11630
909.415	11676
909.531	11604
909.647	11467
909.762	11490
909.878	11436
909.993	11455
910.108	11402
910.224	11341
910.339	11417
910.454	11330
910.57	11280
910.685	11102
910.8	11509
910.915	11452
911.03	11277
911.145	11121
911.259	11102
911.374	11090
911.489	11056
911.604	10972
911.718	10889
911.833	10961
911.947	10831
912.062	10683
912.176	10927
912.291	10843
912.405	10946
912.519	11109
912.633	11140
912.748	10953
912.862	10908
912.976	10767
913.09	10637
913.204	10729
913.318	10835
913.431	10835
913.545	10835
913.659	10889
913.772	10740
913.886	10637
914	10584
914.113	10744
914.226	10854
914.34	10752
914.453	10588
914.566	10714
914.68	10580
914.793	10599
914.906	10409
915.019	10371
915.132	10314
915.245	10417
915.358	10398
915.47	10466
915.583	10375
915.696	10470
915.809	10504
915.921	10554
916.034	10417
916.146	10322
916.259	10310
916.371	10394
916.483	10428
916.595	10390
916.708	10409
916.82	10314
916.932	10325
917.044	10325
917.156	10265
917.268	10169
917.38	10249
917.491	10219
917.603	10207
917.715	10375
917.826	10329
917.938	10272
918.049	10227
918.161	10227
918.272	10417
918.384	10424
918.495	10310
918.606	10158
918.717	10051
918.828	10109
918.939	10253
919.05	10029
919.161	10093
919.272	9899
919.383	10013
919.494	10177
919.604	10356
919.715	10169
919.826	10074
919.936	10116
920.047	10242
920.157	10143
920.267	10440
920.378	10185
920.488	10173
920.598	10405
920.708	10500
920.818	10341
920.928	10322
921.038	10554
921.148	10531
921.258	10173
921.368	10154
921.477	10071
921.587	10010
921.697	9903
921.806	10055
921.916	9895
922.025	9766
922.134	9728
922.244	9713
922.353	9770
922.462	9648
922.571	9610
922.68	9450
922.789	9374
922.898	9420
923.007	9348
923.116	9523
923.224	9405
923.333	9370
923.442	9325
923.55	9245
923.659	9374
923.767	9408
923.876	9249
923.984	9389
924.092	9218
924.201	9336
924.309	9283
924.417	9291
924.525	9230
924.633	9226
924.741	10036
924.849	9138
924.956	9230
925.064	9039
925.172	8963
925.279	9077
925.387	9108
925.494	9070
925.602	9245
925.709	9207
925.816	9055
925.924	9005
926.031	9184
926.138	9036
926.245	9089
926.352	9039
926.459	9097
926.566	9272
926.673	9051
926.779	8975
926.886	8891
926.993	8769
927.099	8769
927.206	8735
927.312	8769
927.419	8804
927.525	8727
927.631	8834
927.737	8743
927.843	8678
927.95	8606
928.056	8678
928.162	8667
928.267	8754
928.373	9355
928.479	8807
928.585	8503
928.69	8712
928.796	8689
928.901	8556
929.007	8507
929.112	8590
929.218	8575
929.323	8511
929.428	8473
929.533	8716
929.638	8389
929.743	8465
929.848	8522
929.953	8533
930.058	8389
930.163	8286
930.267	8298
930.372	8476
930.477	8259
930.581	8514
930.685	8328
930.79	8168
930.894	8305
930.998	8172
931.103	8351
931.207	7993
931.311	7982
931.415	7921
931.519	7693
931.623	7674
