Data from test_V78500241_562.txt Node
Date: Fri Mar 25 14:37:37 CST 2022
User: usil
Spectrometer: V785-0024
Trigger mode: 0
Integration Time (sec): 4.000000E-1
Scans to average: 1
Nonlinearity correction enabled: false
Boxcar width: 0
Storing dark spectrum: false
XAxis mode: Wavelengths
Number of Pixels in Spectrum: 1024
>>>>>Begin Spectral Data<<<<<
801.071	27641
801.214	27713
801.356	27473
801.499	27298
801.641	27131
801.783	27218
801.926	27218
802.068	26986
802.211	26937
802.353	26864
802.496	26708
802.638	26674
802.78	26724
802.923	26590
803.065	26583
803.208	26594
803.35	26583
803.492	26609
803.635	26682
803.777	26442
803.919	26724
804.061	27127
804.204	26842
804.346	26716
804.488	26514
804.63	26788
804.773	26765
804.915	26792
805.057	26899
805.199	26895
805.341	26887
805.483	27017
805.626	26990
805.768	26883
805.91	27001
806.052	27051
806.194	27135
806.336	27504
806.478	27401
806.62	27424
806.762	27591
806.904	28006
807.046	28367
807.188	28466
807.33	28611
807.472	28976
807.614	29296
807.756	29741
807.898	30205
808.04	31137
808.182	31944
808.324	33329
808.465	34862
808.607	36616
808.749	38039
808.891	38861
809.033	38891
809.174	37951
809.316	36410
809.458	34717
809.6	32845
809.741	31883
809.883	30840
810.025	30136
810.166	29535
810.308	29220
810.45	28687
810.591	28519
810.733	28314
810.875	28059
811.016	27774
811.158	27606
811.299	27747
811.441	27736
811.582	27656
811.724	27435
811.865	27340
812.007	27458
812.148	27192
812.29	27302
812.431	27283
812.573	27458
812.714	27622
812.855	27557
812.997	27660
813.138	27618
813.279	27793
813.421	27469
813.562	27504
813.703	27310
813.845	27093
813.986	26891
814.127	26746
814.268	26575
814.41	26499
814.551	26412
814.692	26575
814.833	26362
814.974	26252
815.115	26366
815.256	26161
815.397	26229
815.539	26176
815.68	26157
815.821	26130
815.962	25997
816.103	26062
816.244	25974
816.385	25738
816.526	25757
816.666	25514
816.807	25518
816.948	25457
817.089	25499
817.23	25533
817.371	25365
817.512	25331
817.653	25468
817.793	25327
817.934	25377
818.075	25373
818.216	25350
818.356	25270
818.497	25168
818.638	25000
818.778	25107
818.919	25050
819.06	25072
819.2	25213
819.341	25263
819.481	25278
819.622	25510
819.762	25457
819.903	25552
820.043	25449
820.184	25419
820.324	25491
820.465	25377
820.605	25225
820.746	25213
820.886	25072
821.026	25141
821.167	25122
821.307	25232
821.447	25194
821.588	25023
821.728	24939
821.868	24601
822.008	24540
822.149	24505
822.289	24612
822.429	24380
822.569	24239
822.709	24224
822.849	23916
822.99	23988
823.13	23916
823.27	23931
823.41	23843
823.55	23691
823.69	23805
823.83	23836
823.97	23611
824.11	23474
824.25	23539
824.389	23421
824.529	23505
824.669	23554
824.809	23638
824.949	23501
825.089	23524
825.228	23440
825.368	23345
825.508	23166
825.648	23368
825.787	23360
825.927	23433
826.067	23296
826.206	23318
826.346	23471
826.485	23414
826.625	23235
826.765	23360
826.904	23326
827.044	23098
827.183	22972
827.323	23006
827.462	22980
827.601	22961
827.741	22885
827.88	23090
828.02	22904
828.159	22949
828.298	23117
828.437	23029
828.577	22930
828.716	23159
828.855	22915
828.994	22672
829.134	22615
829.273	22694
829.412	22637
829.551	22527
829.69	22649
829.829	22561
829.968	22801
830.107	22485
830.246	22713
830.385	22531
830.524	22512
830.663	22417
830.802	22314
830.941	22147
831.08	22120
831.219	22272
831.357	22295
831.496	22432
831.635	22177
831.774	22150
831.913	22078
832.051	21983
832.19	22063
832.329	22093
832.467	21964
832.606	21838
832.744	22017
832.883	21922
833.022	22063
833.16	22006
833.299	22135
833.437	22158
833.576	22280
833.714	22333
833.852	22519
833.991	22466
834.129	22611
834.267	22497
834.406	22455
834.544	22516
834.682	22375
834.821	22215
834.959	22455
835.097	22116
835.235	22135
835.373	22120
835.511	22025
835.65	21892
835.788	21781
835.926	21542
836.064	21629
836.202	21572
836.34	21766
836.478	21732
836.615	21720
836.753	21751
836.891	21720
837.029	21755
837.167	21637
837.305	21629
837.443	21530
837.58	21412
837.718	21534
837.856	21591
837.993	21500
838.131	21564
838.269	21367
838.406	21549
838.544	21310
838.681	21195
838.819	21180
838.956	21017
839.094	21020
839.231	21043
839.369	21150
839.506	21344
839.643	21211
839.781	20895
839.918	20956
840.055	20956
840.193	20990
840.33	20956
840.467	20891
840.604	20849
840.742	21195
840.879	20708
841.016	20826
841.153	20765
841.29	21028
841.427	20769
841.564	20914
841.701	20800
841.838	20819
841.975	20667
842.112	20651
842.249	20674
842.385	20644
842.522	20864
842.659	20621
842.796	20590
842.933	20674
843.069	20587
843.206	20727
843.343	20716
843.479	20746
843.616	20686
843.752	20339
843.889	20499
844.025	20781
844.162	20686
844.298	20750
844.435	20678
844.571	20910
844.708	20990
844.844	21237
844.98	21431
845.117	21857
845.253	22078
845.389	22980
845.525	24544
845.661	27287
845.798	30642
845.934	33519
846.07	34641
846.206	34143
846.342	32081
846.478	28535
846.614	25350
846.75	23235
846.886	22059
847.022	21348
847.158	21009
847.294	20640
847.429	20400
847.565	20244
847.701	20484
847.837	19890
847.972	19902
848.108	19837
848.244	19868
848.379	19525
848.515	19514
848.65	19518
848.786	19518
848.921	19552
849.057	19575
849.192	19540
849.328	19571
849.463	19445
849.598	19373
849.734	19384
849.869	19171
850.004	19221
850.14	19244
850.275	19160
850.41	19103
850.545	19110
850.68	19129
850.815	19107
850.95	19126
851.085	19312
851.22	19232
851.355	19164
851.49	19202
851.625	19107
851.76	19148
851.895	19053
852.03	19057
852.165	19175
852.299	19244
852.434	19263
852.569	19107
852.703	19118
852.838	19171
852.973	19430
853.107	19251
853.242	19236
853.376	19126
853.511	19023
853.645	19095
853.78	19282
853.914	19072
854.048	19179
854.183	19145
854.317	19206
854.451	19346
854.585	19103
854.72	19122
854.854	19213
854.988	19023
855.122	19137
855.256	18954
855.39	19183
855.524	19118
855.658	19088
855.792	19076
855.926	19080
856.06	19129
856.194	19042
856.327	18966
856.461	18993
856.595	18928
856.729	18935
856.862	19042
856.996	19027
857.13	19019
857.263	19008
857.397	19072
857.53	18939
857.664	18981
857.797	18985
857.931	18962
858.064	18897
858.197	19038
858.331	18875
858.464	18867
858.597	18802
858.731	18916
858.864	18966
858.997	18993
859.13	18871
859.263	18966
859.396	18920
859.529	18859
859.662	18791
859.795	18878
859.928	18806
860.061	18977
860.194	18928
860.327	18890
860.46	18814
860.592	18958
860.725	18981
860.858	18875
860.99	18852
861.123	18760
861.256	18749
861.388	18745
861.521	19377
861.653	18665
861.786	18639
861.918	18886
862.05	18833
862.183	18814
862.315	18882
862.447	18814
862.58	18897
862.712	18768
862.844	18585
862.976	18650
863.108	18669
863.24	18916
863.372	18471
863.504	18547
863.636	18608
863.768	18612
863.9	18494
864.032	18388
864.164	18464
864.296	18551
864.428	18665
864.559	18559
864.691	18574
864.823	18578
864.954	18540
865.086	18616
865.217	18460
865.349	18422
865.48	18445
865.612	18426
865.743	18551
865.875	18490
866.006	18540
866.137	18502
866.269	18467
866.4	18498
866.531	18460
866.662	18342
866.793	18498
866.924	18475
867.055	18506
867.186	18399
867.317	18429
867.448	18300
867.579	18407
867.71	18342
867.841	18285
867.972	18460
868.103	18365
868.233	18376
868.364	18399
868.495	18517
868.625	18661
868.756	18749
868.886	18566
869.017	18707
869.147	18768
869.278	18791
869.408	18700
869.539	18696
869.669	18730
869.799	18833
869.929	18749
870.06	18844
870.19	18993
870.32	19000
870.45	18905
870.58	19015
870.71	19107
870.84	19202
870.97	19004
871.1	19012
871.23	19236
871.36	19270
871.489	19221
871.619	19183
871.749	19301
871.879	19335
872.008	19464
872.138	19263
872.267	19362
872.397	19316
872.526	19350
872.656	19274
872.785	19213
872.915	19354
873.044	19464
873.173	19422
873.303	19460
873.432	19628
873.561	19578
873.69	19510
873.819	19358
873.948	19689
874.077	19502
874.206	19453
874.335	19464
874.464	19639
874.593	19757
874.722	19753
874.851	19947
874.979	19947
875.108	19852
875.237	19917
875.365	19719
875.494	19955
875.623	19887
875.751	19963
875.88	20088
876.008	20145
876.136	20180
876.265	20446
876.393	20556
876.521	20613
876.65	20670
876.778	20575
876.906	20583
877.034	20590
877.162	20556
877.29	20594
877.418	20739
877.546	20743
877.674	20754
877.802	20823
877.93	20937
878.058	21116
878.185	21043
878.313	21256
878.441	21439
878.568	21329
878.696	21892
878.824	22318
878.951	22847
879.079	23760
879.206	24825
879.333	25887
879.461	26629
879.588	27245
879.715	27222
879.842	27081
879.97	25932
880.097	24703
880.224	23741
880.351	23288
880.478	22755
880.605	22466
880.732	22333
880.859	22417
880.986	21983
881.112	21998
881.239	21869
881.366	21861
881.493	21671
881.619	21500
881.746	21587
881.872	21705
881.999	21663
882.125	21610
882.252	21633
882.378	21701
882.505	21873
882.631	21694
882.757	21557
882.883	21538
883.01	21439
883.136	21355
883.262	21439
883.388	21351
883.514	21397
883.64	21534
883.766	21363
883.892	21294
884.018	21306
884.143	21416
884.269	21591
884.395	21306
884.52	21176
884.646	21184
884.772	21020
884.897	21116
885.023	21096
885.148	21306
885.274	21272
885.399	21039
885.524	20918
885.65	20963
885.775	20906
885.9	20925
886.025	20834
886.15	20708
886.275	20526
886.4	20309
886.525	20434
886.65	20282
886.775	20202
886.9	20385
887.025	20545
887.149	20195
887.274	20027
887.399	19932
887.523	19913
887.648	19742
887.773	19677
887.897	19875
888.021	19761
888.146	19559
888.27	19731
888.395	19689
888.519	19624
888.643	19655
888.767	19616
888.891	19464
889.015	19403
889.139	19350
889.263	19384
889.387	19422
889.511	19441
889.635	19407
889.759	19202
889.883	19297
890.006	19228
890.13	19331
890.254	19076
890.377	19114
890.501	18875
890.624	18844
890.748	18916
890.871	18734
890.995	18715
891.118	18593
891.241	18692
891.364	18616
891.488	18791
891.611	18642
891.734	18597
891.857	18612
891.98	18654
892.103	18627
892.226	18639
892.349	18513
892.471	18361
892.594	18464
892.717	18483
892.839	18399
892.962	18460
893.085	18460
893.207	18441
893.33	18300
893.452	18277
893.575	18369
893.697	18441
893.819	18429
893.941	18585
894.064	18437
894.186	18315
894.308	18167
894.43	18327
894.552	18407
894.674	18327
894.796	18239
894.918	18292
895.04	18213
895.161	18361
895.283	18319
895.405	18178
895.526	18190
895.648	18205
895.769	18213
895.891	18209
896.012	18273
896.134	18399
896.255	18262
896.376	18190
896.498	18133
896.619	18228
896.74	18201
896.861	18311
896.982	18506
897.103	18700
897.224	18616
897.345	18448
897.466	18361
897.587	18509
897.708	18612
897.828	18517
897.949	18388
898.07	18171
898.19	18323
898.311	18532
898.431	18376
898.552	18506
898.672	18551
898.792	18494
898.913	18437
899.033	18289
899.153	18285
899.273	18148
899.393	18243
899.513	18243
899.633	18289
899.753	18277
899.873	18152
899.993	18346
900.113	18201
900.232	18159
900.352	18087
900.472	18136
900.591	17885
900.711	18155
900.83	17874
900.95	18064
901.069	18034
901.189	17885
901.308	17687
901.427	17615
901.546	17520
901.665	17581
901.784	17741
901.904	17471
902.023	17429
902.141	17204
902.26	17147
902.379	17109
902.498	17170
902.617	17105
902.735	17022
902.854	17124
902.973	16869
903.091	16733
903.21	16771
903.328	16649
903.446	16668
903.565	16546
903.683	16588
903.801	16360
903.919	16478
904.038	16455
904.156	16341
904.274	16322
904.392	16261
904.51	16306
904.627	16253
904.745	16280
904.863	16348
904.981	16086
905.098	15945
905.216	15888
905.334	16067
905.451	15968
905.569	15968
905.686	15964
905.803	15934
905.921	15682
906.038	15880
906.155	15682
906.272	15629
906.389	15576
906.506	15481
906.623	15473
906.74	15473
906.857	15264
906.974	15397
907.091	15545
907.208	15519
907.324	15538
907.441	15431
907.557	15131
907.674	15211
907.79	15089
907.907	15116
908.023	15154
908.139	15131
908.256	15039
908.372	14895
908.488	14986
908.604	14864
908.72	14769
908.836	14887
908.952	14834
909.068	14811
909.184	14834
909.3	14868
909.415	14948
909.531	14929
909.647	14621
909.762	14583
909.878	14438
909.993	14636
910.108	14590
910.224	14488
910.339	14556
910.454	14568
910.57	14419
910.685	14332
910.8	14606
910.915	14568
911.03	14393
911.145	14195
911.259	14191
911.374	14157
911.489	14130
911.604	14168
911.718	13875
911.833	13978
911.947	13906
912.062	13799
912.176	13928
912.291	13974
912.405	13940
912.519	14187
912.633	14092
912.748	13970
912.862	13928
912.976	13803
913.09	13738
913.204	13826
913.318	13826
913.431	13807
913.545	13833
913.659	13970
913.772	13791
913.886	13605
914	13578
914.113	13719
914.226	13757
914.34	13647
914.453	13476
914.566	13643
914.68	13453
914.793	13430
914.906	13388
915.019	13301
915.132	13228
915.245	13194
915.358	13293
915.47	13263
915.583	13308
915.696	13373
915.809	13400
915.921	13457
916.034	13255
916.146	13213
916.259	13209
916.371	13255
916.483	13289
916.595	13274
916.708	13228
916.82	13255
916.932	13091
917.044	13126
917.156	13164
917.268	13019
917.38	13031
917.491	13023
917.603	13038
917.715	13034
917.826	13164
917.938	12924
918.049	12867
918.161	12932
918.272	13080
918.384	13084
918.495	13012
918.606	12806
918.717	12646
918.828	12825
918.939	12810
919.05	12722
919.161	12741
919.272	12544
919.383	12585
919.494	12806
919.604	12932
919.715	12711
919.826	12627
919.936	12688
920.047	12764
920.157	12795
920.267	12985
920.378	12741
920.488	12631
920.598	12913
920.708	13099
920.818	12890
920.928	12852
921.038	12962
921.148	13012
921.258	12635
921.368	12631
921.477	12509
921.587	12528
921.697	12403
921.806	12452
921.916	12365
922.025	12209
922.134	12163
922.244	12159
922.353	12213
922.462	12125
922.571	11992
922.68	11893
922.789	11798
922.898	11794
923.007	11783
923.116	11828
923.224	11824
923.333	11813
923.442	11615
923.55	11657
923.659	11623
923.767	11722
923.876	11615
923.984	11615
924.092	11600
924.201	11558
924.309	11680
924.417	11577
924.525	11482
924.633	11589
924.741	12334
924.849	11315
924.956	11467
925.064	11318
925.172	11341
925.279	11383
925.387	11307
925.494	11402
925.602	11429
925.709	11414
925.816	11246
925.924	11337
926.031	11387
926.138	11307
926.245	11360
926.352	11242
926.459	11345
926.566	11414
926.673	11201
926.779	11178
926.886	11128
926.993	10995
927.099	10953
927.206	10820
927.312	10900
927.419	11143
927.525	10972
927.631	11052
927.737	10847
927.843	10816
927.95	10755
928.056	10858
928.162	10828
928.267	10889
928.373	11318
928.479	10885
928.585	10660
928.69	10736
928.796	10816
928.901	10710
929.007	10561
929.112	10702
929.218	10626
929.323	10550
929.428	10546
929.533	10736
929.638	10516
929.743	10550
929.848	10630
929.953	10626
930.058	10428
930.163	10348
930.267	10413
930.372	10417
930.477	10257
930.581	10497
930.685	10344
930.79	10200
930.894	10291
930.998	10227
931.103	10382
931.207	9949
931.311	10013
931.415	9819
931.519	9648
931.623	9580
