Data from test_V78500241_1412.txt Node
Date: Fri Mar 25 14:43:32 CST 2022
User: usil
Spectrometer: V785-0024
Trigger mode: 0
Integration Time (sec): 4.000000E-1
Scans to average: 1
Nonlinearity correction enabled: false
Boxcar width: 0
Storing dark spectrum: false
XAxis mode: Wavelengths
Number of Pixels in Spectrum: 1024
>>>>>Begin Spectral Data<<<<<
801.071	22462
801.214	22219
801.356	22070
801.499	22074
801.641	21732
801.783	21804
801.926	21915
802.068	21690
802.211	21523
802.353	21515
802.496	21424
802.638	21367
802.78	21150
802.923	21226
803.065	20971
803.208	21066
803.35	21180
803.492	21245
803.635	21249
803.777	21043
803.919	21256
804.061	21420
804.204	21260
804.346	20967
804.488	20975
804.63	21131
804.773	20918
804.915	21005
805.057	21119
805.199	21017
805.341	21249
805.483	21154
805.626	21070
805.768	21009
805.91	21096
806.052	21093
806.194	20925
806.336	21135
806.478	21058
806.62	20956
806.762	21142
806.904	21401
807.046	21572
807.188	21370
807.33	21393
807.472	21386
807.614	21454
807.756	21412
807.898	21272
808.04	21192
808.182	21264
808.324	21332
808.465	21321
808.607	21492
808.749	21576
808.891	21774
809.033	21793
809.174	21751
809.316	21625
809.458	21637
809.6	21507
809.741	21557
809.883	21671
810.025	21686
810.166	21709
810.308	21663
810.45	21705
810.591	21496
810.733	21370
810.875	21359
811.016	21176
811.158	21173
811.299	21306
811.441	21412
811.582	21363
811.724	21199
811.865	21108
812.007	21249
812.148	21214
812.29	21237
812.431	21408
812.573	21496
812.714	21526
812.855	21701
812.997	21819
813.138	22006
813.279	21838
813.421	21789
813.562	21724
813.703	21466
813.845	21389
813.986	21077
814.127	21009
814.268	20872
814.41	20834
814.551	20727
814.692	20777
814.833	20811
814.974	20765
815.115	20785
815.256	20609
815.397	20663
815.539	20674
815.68	20609
815.821	20457
815.962	20560
816.103	20450
816.244	20259
816.385	20237
816.526	20244
816.666	20012
816.807	19913
816.948	20065
817.089	20081
817.23	19883
817.371	19970
817.512	19811
817.653	19967
817.793	19898
817.934	19906
818.075	19887
818.216	19887
818.356	19753
818.497	19738
818.638	19537
818.778	19552
818.919	19632
819.06	19624
819.2	19780
819.341	19727
819.481	19727
819.622	19989
819.762	20054
819.903	20016
820.043	19940
820.184	19913
820.324	19803
820.465	19959
820.605	19864
820.746	19818
820.886	19875
821.026	19883
821.167	19788
821.307	19860
821.447	19803
821.588	19514
821.728	19628
821.868	19430
822.008	19293
822.149	19232
822.289	19365
822.429	19061
822.569	19019
822.709	18954
822.849	18783
822.99	18646
823.13	18848
823.27	18703
823.41	18642
823.55	18509
823.69	18547
823.83	18623
823.97	18517
824.11	18338
824.25	18315
824.389	18410
824.529	18467
824.669	18422
824.809	18490
824.949	18471
825.089	18475
825.228	18433
825.368	18159
825.508	18178
825.648	18209
825.787	18350
825.927	18197
826.067	18129
826.206	18041
826.346	18174
826.485	18178
826.625	18167
826.765	18296
826.904	18213
827.044	17935
827.183	17973
827.323	17855
827.462	17874
827.601	17729
827.741	17824
827.88	17786
828.02	17581
828.159	17824
828.298	17931
828.437	17931
828.577	17809
828.716	17942
828.855	17821
828.994	17646
829.134	17509
829.273	17680
829.412	17448
829.551	17554
829.69	17638
829.829	17573
829.968	17611
830.107	17691
830.246	17653
830.385	17566
830.524	17501
830.663	17337
830.802	17372
830.941	17090
831.08	17159
831.219	17353
831.357	17170
831.496	17402
831.635	17181
831.774	17147
831.913	17109
832.051	17022
832.19	16980
832.329	16927
832.467	16896
832.606	16850
832.744	16812
832.883	16881
833.022	16900
833.16	16889
833.299	16949
833.437	16889
833.576	16980
833.714	16961
833.852	17056
833.991	17071
834.129	17018
834.267	17098
834.406	16923
834.544	16957
834.682	17102
834.821	17029
834.959	17010
835.097	16866
835.235	17045
835.373	17033
835.511	16957
835.65	16854
835.788	16805
835.926	16744
836.064	16599
836.202	16675
836.34	16816
836.478	16965
836.615	16793
836.753	16809
836.891	16885
837.029	16885
837.167	16816
837.305	16771
837.443	16752
837.58	16763
837.718	16759
837.856	16721
837.993	16668
838.131	16637
838.269	16634
838.406	16622
838.544	16577
838.681	16382
838.819	16451
838.956	16341
839.094	16242
839.231	16200
839.369	16360
839.506	16668
839.643	16500
839.781	16329
839.918	16215
840.055	16261
840.193	16257
840.33	16207
840.467	16291
840.604	16276
840.742	16584
840.879	16040
841.016	16029
841.153	16112
841.29	16394
841.427	16238
841.564	16314
841.701	16246
841.838	16215
841.975	16150
842.112	16131
842.249	15975
842.385	15903
842.522	16230
842.659	16211
842.796	16032
842.933	16036
843.069	16006
843.206	15975
843.343	16143
843.479	16063
843.616	15991
843.752	15759
843.889	15808
844.025	16010
844.162	15827
844.298	16025
844.435	15892
844.571	15774
844.708	15876
844.844	15945
844.98	15998
845.117	15907
845.253	15785
845.389	15717
845.525	15880
845.661	15880
845.798	15804
845.934	15941
846.07	15911
846.206	15987
846.342	15964
846.478	15793
846.614	15572
846.75	15401
846.886	15351
847.022	15485
847.158	15439
847.294	15389
847.429	15435
847.565	15389
847.701	15515
847.837	15024
847.972	15097
848.108	15184
848.244	15226
848.379	15005
848.515	14990
848.65	14906
848.786	14971
848.921	14994
849.057	15032
849.192	15062
849.328	15043
849.463	14948
849.598	14975
849.734	14868
849.869	14948
850.004	14815
850.14	14800
850.275	14788
850.41	14720
850.545	14746
850.68	14727
850.815	14819
850.95	14712
851.085	14933
851.22	14811
851.355	14762
851.49	14705
851.625	14632
851.76	14731
851.895	14613
852.03	14648
852.165	14632
852.299	14819
852.434	14868
852.569	14811
852.703	14720
852.838	14765
852.973	14952
853.107	14887
853.242	14785
853.376	14670
853.511	14541
853.645	14606
853.78	14792
853.914	14545
854.048	14663
854.183	14587
854.317	14568
854.451	14819
854.585	14568
854.72	14552
854.854	14663
854.988	14530
855.122	14610
855.256	14530
855.39	14598
855.524	14705
855.658	14670
855.792	14716
855.926	14731
856.06	14617
856.194	14693
856.327	14587
856.461	14537
856.595	14552
856.729	14587
856.862	14716
856.996	14644
857.13	14651
857.263	14689
857.397	14735
857.53	14632
857.664	14663
857.797	14731
857.931	14823
858.064	14823
858.197	14883
858.331	14663
858.464	14625
858.597	14648
858.731	14621
858.864	14629
858.997	14541
859.13	14670
859.263	14549
859.396	14743
859.529	14575
859.662	14587
859.795	14564
859.928	14648
860.061	14842
860.194	14697
860.327	14701
860.46	14686
860.592	14834
860.725	14769
860.858	14758
860.99	14655
861.123	14503
861.256	14575
861.388	14663
861.521	15454
861.653	14526
861.786	14514
861.918	14549
862.05	14431
862.183	14575
862.315	14598
862.447	14632
862.58	14629
862.712	14412
862.844	14343
862.976	14450
863.108	14427
863.24	14826
863.372	14328
863.504	14377
863.636	14480
863.768	14427
863.9	14396
864.032	14427
864.164	14393
864.296	14583
864.428	14583
864.559	14522
864.691	14571
864.823	14431
864.954	14389
865.086	14396
865.217	14324
865.349	14408
865.48	14351
865.612	14476
865.743	14571
865.875	14404
866.006	14366
866.137	14450
866.269	14358
866.4	14480
866.531	14324
866.662	14320
866.793	14374
866.924	14317
867.055	14374
867.186	14518
867.317	14282
867.448	14237
867.579	14263
867.71	14263
867.841	14377
867.972	14469
868.103	14370
868.233	14339
868.364	14469
868.495	14480
868.625	14613
868.756	14693
868.886	14621
869.017	14621
869.147	14769
869.278	14750
869.408	14697
869.539	14701
869.669	14845
869.799	14625
869.929	14804
870.06	14815
870.19	14880
870.32	14880
870.45	14971
870.58	14967
870.71	15138
870.84	15093
870.97	15036
871.1	14952
871.23	15268
871.36	15150
871.489	15230
871.619	15279
871.749	15287
871.879	15355
872.008	15321
872.138	15291
872.267	15264
872.397	15097
872.526	15161
872.656	15036
872.785	15077
872.915	15283
873.044	15268
873.173	15275
873.303	15241
873.432	15431
873.561	15382
873.69	15310
873.819	15256
873.948	15260
874.077	15344
874.206	15203
874.335	15310
874.464	15386
874.593	15606
874.722	15542
874.851	15709
874.979	15606
875.108	15614
875.237	15591
875.365	15530
875.494	15637
875.623	15637
875.751	15526
875.88	15625
876.008	15610
876.136	15907
876.265	16013
876.393	16166
876.521	16188
876.65	16280
876.778	16063
876.906	15956
877.034	15945
877.162	15960
877.29	16036
877.418	16082
877.546	16093
877.674	15934
877.802	15998
877.93	16017
878.058	15941
878.185	15964
878.313	16048
878.441	16032
878.568	15789
878.696	16040
878.824	16124
878.951	16173
879.079	16299
879.206	16409
879.333	16382
879.461	16086
879.588	16223
879.715	16329
879.842	16466
879.97	16238
880.097	15861
880.224	15899
880.351	15880
880.478	15930
880.605	15934
880.732	15972
880.859	16109
880.986	15972
881.112	16025
881.239	15857
881.366	15580
881.493	15561
881.619	15530
881.746	15599
881.872	15519
881.999	15572
882.125	15428
882.252	15686
882.378	15534
882.505	15770
882.631	15542
882.757	15313
882.883	15439
883.01	15389
883.136	15317
883.262	15260
883.388	15306
883.514	15443
883.64	15389
883.766	15408
883.892	15157
884.018	15214
884.143	15317
884.269	15386
884.395	15230
884.52	15001
884.646	15066
884.772	15032
884.897	14956
885.023	15077
885.148	15233
885.274	15108
885.399	15180
885.524	15135
885.65	15085
885.775	14986
885.9	14990
886.025	15119
886.15	15207
886.275	14979
886.4	15017
886.525	15058
886.65	15058
886.775	14975
886.9	15230
887.025	15348
887.149	14971
887.274	14845
887.399	14899
887.523	14899
887.648	14754
887.773	14815
887.897	14982
888.021	14872
888.146	14735
888.27	14925
888.395	15036
888.519	14929
888.643	14986
888.767	15009
888.891	14724
889.015	14663
889.139	14750
889.263	14693
889.387	14811
889.511	14979
889.635	14834
889.759	14663
889.883	14758
890.006	14686
890.13	14842
890.254	14644
890.377	14674
890.501	14560
890.624	14552
890.748	14564
890.871	14495
890.995	14313
891.118	14415
891.241	14389
891.364	14465
891.488	14575
891.611	14408
891.734	14374
891.857	14488
891.98	14469
892.103	14469
892.226	14427
892.349	14370
892.471	14309
892.594	14412
892.717	14427
892.839	14366
892.962	14408
893.085	14503
893.207	14362
893.33	14377
893.452	14286
893.575	14507
893.697	14324
893.819	14560
893.941	14594
894.064	14636
894.186	14431
894.308	14370
894.43	14476
894.552	14564
894.674	14579
894.796	14374
894.918	14476
895.04	14404
895.161	14514
895.283	14568
895.405	14389
895.526	14465
895.648	14514
895.769	14537
895.891	14560
896.012	14621
896.134	14564
896.255	14526
896.376	14476
896.498	14507
896.619	14617
896.74	14579
896.861	14602
896.982	14872
897.103	15062
897.224	14895
897.345	14739
897.466	14705
897.587	14834
897.708	14872
897.828	14902
897.949	14788
898.07	14701
898.19	14788
898.311	14937
898.431	14845
898.552	14895
898.672	14864
898.792	15028
898.913	14910
899.033	14796
899.153	14773
899.273	14689
899.393	14689
899.513	14796
899.633	14765
899.753	14758
899.873	14727
899.993	14845
900.113	14781
900.232	14895
900.352	14648
900.472	14674
900.591	14617
900.711	14659
900.83	14602
900.95	14781
901.069	14773
901.189	14560
901.308	14381
901.427	14187
901.546	14381
901.665	14317
901.784	14240
901.904	14286
902.023	14005
902.141	13898
902.26	13765
902.379	14008
902.498	13871
902.617	13746
902.735	13970
902.854	13841
902.973	13719
903.091	13636
903.21	13567
903.328	13575
903.446	13468
903.565	13453
903.683	13548
903.801	13327
903.919	13468
904.038	13396
904.156	13179
904.274	13278
904.392	13202
904.51	13240
904.627	13126
904.745	13293
904.863	13293
904.981	13019
905.098	13034
905.216	12943
905.334	12954
905.451	12943
905.569	12958
905.686	12977
905.803	12905
905.921	12760
906.038	12840
906.155	12787
906.272	12627
906.389	12608
906.506	12525
906.623	12532
906.74	12498
906.857	12433
906.974	12407
907.091	12608
907.208	12665
907.324	12521
907.441	12429
907.557	12292
907.674	12270
907.79	12266
907.907	12190
908.023	12296
908.139	12235
908.256	12251
908.372	12190
908.488	12194
908.604	12022
908.72	11920
908.836	11984
908.952	12045
909.068	12098
909.184	12076
909.3	12038
909.415	12007
909.531	12030
909.647	11817
909.762	11760
909.878	11707
909.993	11817
910.108	11691
910.224	11752
910.339	11767
910.454	11722
910.57	11703
910.685	11566
910.8	11828
910.915	11741
911.03	11680
911.145	11455
911.259	11512
911.374	11543
911.489	11391
911.604	11296
911.718	11216
911.833	11216
911.947	11064
912.062	11105
912.176	11185
912.291	11250
912.405	11254
912.519	11398
912.633	11421
912.748	11277
912.862	11151
912.976	11079
913.09	11041
913.204	11083
913.318	11113
913.431	11181
913.545	11159
913.659	11143
913.772	11098
913.886	10980
914	10957
914.113	11083
914.226	11064
914.34	11132
914.453	10927
914.566	11041
914.68	10850
914.793	10881
914.906	10790
915.019	10649
915.132	10694
915.245	10668
915.358	10736
915.47	10774
915.583	10763
915.696	10771
915.809	10858
915.921	10774
916.034	10672
916.146	10683
916.259	10580
916.371	10763
916.483	10626
916.595	10660
916.708	10641
916.82	10592
916.932	10607
917.044	10683
917.156	10573
917.268	10577
917.38	10527
917.491	10596
917.603	10489
917.715	10622
917.826	10679
917.938	10599
918.049	10462
918.161	10588
918.272	10641
918.384	10637
918.495	10607
918.606	10344
918.717	10356
918.828	10375
918.939	10474
919.05	10390
919.161	10379
919.272	10192
919.383	10303
919.494	10402
919.604	10649
919.715	10402
919.826	10398
919.936	10379
920.047	10478
920.157	10470
920.267	10634
920.378	10428
920.488	10443
920.598	10672
920.708	10729
920.818	10630
920.928	10664
921.038	10793
921.148	10820
921.258	10538
921.368	10329
921.477	10333
921.587	10265
921.697	10158
921.806	10310
921.916	10192
922.025	9998
922.134	10021
922.244	9949
922.353	10086
922.462	9846
922.571	9846
922.68	9743
922.789	9690
922.898	9720
923.007	9625
923.116	9717
923.224	9637
923.333	9644
923.442	9549
923.55	9599
923.659	9603
923.767	9622
923.876	9557
923.984	9622
924.092	9443
924.201	9511
924.309	9625
924.417	9534
924.525	9534
924.633	9526
924.741	10542
924.849	9298
924.956	9542
925.064	9340
925.172	9310
925.279	9283
925.387	9378
925.494	9340
925.602	9412
925.709	9473
925.816	9230
925.924	9325
926.031	9378
926.138	9332
926.245	9412
926.352	9253
926.459	9408
926.566	9431
926.673	9302
926.779	9146
926.886	9116
926.993	9085
927.099	9024
927.206	8967
927.312	8960
927.419	9070
927.525	9074
927.631	9097
927.737	8952
927.843	8921
927.95	8811
928.056	8921
928.162	8941
928.267	8971
928.373	9614
928.479	9104
928.585	8811
928.69	8914
928.796	9009
928.901	8849
929.007	8697
929.112	8883
929.218	8815
929.323	8830
929.428	8727
929.533	8918
929.638	8651
929.743	8648
929.848	8766
929.953	8727
930.058	8655
930.163	8507
930.267	8514
930.372	8697
930.477	8545
930.581	8716
930.685	8648
930.79	8381
930.894	8552
930.998	8476
931.103	8602
931.207	8290
931.311	8233
931.415	8096
931.519	7982
931.623	7993
