Data from test_V78500241_2270.txt Node
Date: Fri Mar 25 14:49:31 CST 2022
User: usil
Spectrometer: V785-0024
Trigger mode: 0
Integration Time (sec): 4.000000E-1
Scans to average: 1
Nonlinearity correction enabled: false
Boxcar width: 0
Storing dark spectrum: false
XAxis mode: Wavelengths
Number of Pixels in Spectrum: 1024
>>>>>Begin Spectral Data<<<<<
801.071	22196
801.214	22109
801.356	21785
801.499	21781
801.641	21530
801.783	21496
801.926	21591
802.068	21538
802.211	21515
802.353	21405
802.496	21169
802.638	21036
802.78	21020
802.923	20864
803.065	20796
803.208	20891
803.35	20880
803.492	20967
803.635	20956
803.777	20838
803.919	20891
804.061	21131
804.204	20853
804.346	20804
804.488	20712
804.63	20868
804.773	20800
804.915	20845
805.057	20883
805.199	20762
805.341	20838
805.483	20853
805.626	20800
805.768	20724
805.91	20697
806.052	20777
806.194	20796
806.336	20811
806.478	20697
806.62	20720
806.762	20899
806.904	20941
807.046	21237
807.188	21230
807.33	21138
807.472	21070
807.614	21119
807.756	21005
807.898	20891
808.04	20754
808.182	20864
808.324	20944
808.465	21074
808.607	21051
808.749	21116
808.891	21329
809.033	21408
809.174	21306
809.316	21070
809.458	21207
809.6	21146
809.741	21104
809.883	21241
810.025	21386
810.166	21294
810.308	21367
810.45	21313
810.591	21100
810.733	21096
810.875	20906
811.016	21024
811.158	20883
811.299	20990
811.441	21036
811.582	21028
811.724	20861
811.865	20914
812.007	20952
812.148	20834
812.29	21047
812.431	21123
812.573	21268
812.714	21302
812.855	21462
812.997	21496
813.138	21713
813.279	21656
813.421	21397
813.562	21230
813.703	21100
813.845	21047
813.986	20819
814.127	20686
814.268	20632
814.41	20518
814.551	20427
814.692	20442
814.833	20377
814.974	20385
815.115	20450
815.256	20199
815.397	20301
815.539	20336
815.68	20237
815.821	20157
815.962	20309
816.103	20290
816.244	20073
816.385	20077
816.526	19993
816.666	19822
816.807	19586
816.948	19791
817.089	19685
817.23	19791
817.371	19567
817.512	19700
817.653	19521
817.793	19590
817.934	19499
818.075	19655
818.216	19643
818.356	19616
818.497	19460
818.638	19274
818.778	19282
818.919	19289
819.06	19274
819.2	19472
819.341	19502
819.481	19537
819.622	19647
819.762	19940
819.903	19674
820.043	19548
820.184	19552
820.324	19540
820.465	19548
820.605	19655
820.746	19685
820.886	19445
821.026	19487
821.167	19586
821.307	19605
821.447	19559
821.588	19460
821.728	19381
821.868	19171
822.008	19148
822.149	19088
822.289	19027
822.429	18711
822.569	18669
822.709	18726
822.849	18467
822.99	18528
823.13	18414
823.27	18452
823.41	18266
823.55	18224
823.69	18251
823.83	18346
823.97	18201
824.11	18098
824.25	17988
824.389	18034
824.529	18098
824.669	17939
824.809	18167
824.949	18110
825.089	18144
825.228	18224
825.368	17973
825.508	17878
825.648	17935
825.787	17821
825.927	17885
826.067	17665
826.206	17767
826.346	17817
826.485	17714
826.625	17863
826.765	17969
826.904	17996
827.044	17634
827.183	17653
827.323	17478
827.462	17509
827.601	17592
827.741	17459
827.88	17558
828.02	17429
828.159	17429
828.298	17512
828.437	17619
828.577	17516
828.716	17532
828.855	17467
828.994	17261
829.134	17235
829.273	17337
829.412	17246
829.551	17178
829.69	17208
829.829	17299
829.968	17356
830.107	17292
830.246	17330
830.385	17193
830.524	17181
830.663	17140
830.802	16999
830.941	16797
831.08	16881
831.219	16949
831.357	16934
831.496	17098
831.635	16850
831.774	16721
831.913	16820
832.051	16710
832.19	16634
832.329	16691
832.467	16683
832.606	16554
832.744	16596
832.883	16550
833.022	16527
833.16	16569
833.299	16637
833.437	16611
833.576	16596
833.714	16656
833.852	16721
833.991	16645
834.129	16618
834.267	16687
834.406	16573
834.544	16626
834.682	16653
834.821	16599
834.959	16790
835.097	16516
835.235	16725
835.373	16710
835.511	16622
835.65	16580
835.788	16478
835.926	16352
836.064	16303
836.202	16367
836.34	16550
836.478	16607
836.615	16565
836.753	16561
836.891	16649
837.029	16611
837.167	16390
837.305	16436
837.443	16421
837.58	16371
837.718	16485
837.856	16306
837.993	16310
838.131	16474
838.269	16360
838.406	16200
838.544	16272
838.681	16078
838.819	16055
838.956	15949
839.094	15968
839.231	15956
839.369	16120
839.506	16291
839.643	16207
839.781	15949
839.918	15911
840.055	15869
840.193	15880
840.33	15876
840.467	15930
840.604	15953
840.742	16166
840.879	15739
841.016	15892
841.153	15800
841.29	16101
841.427	15937
841.564	15869
841.701	15991
841.838	15823
841.975	15785
842.112	15808
842.249	15679
842.385	15587
842.522	15827
842.659	15732
842.796	15599
842.933	15648
843.069	15660
843.206	15618
843.343	15690
843.479	15724
843.616	15709
843.752	15500
843.889	15538
844.025	15561
844.162	15477
844.298	15637
844.435	15485
844.571	15420
844.708	15629
844.844	15694
844.98	15690
845.117	15618
845.253	15439
845.389	15348
845.525	15348
845.661	15382
845.798	15184
845.934	15389
846.07	15245
846.206	15302
846.342	15348
846.478	15230
846.614	15020
846.75	15001
846.886	15055
847.022	15108
847.158	15062
847.294	15093
847.429	15024
847.565	15093
847.701	15294
847.837	14777
847.972	14868
848.108	14960
848.244	14777
848.379	14701
848.515	14670
848.65	14564
848.786	14651
848.921	14613
849.057	14743
849.192	14682
849.328	14689
849.463	14648
849.598	14571
849.734	14552
849.869	14438
850.004	14476
850.14	14446
850.275	14450
850.41	14358
850.545	14400
850.68	14370
850.815	14415
850.95	14385
851.085	14606
851.22	14503
851.355	14393
851.49	14461
851.625	14404
851.76	14419
851.895	14309
852.03	14240
852.165	14351
852.299	14484
852.434	14461
852.569	14370
852.703	14404
852.838	14514
852.973	14568
853.107	14587
853.242	14309
853.376	14252
853.511	14240
853.645	14221
853.78	14381
853.914	14324
854.048	14229
854.183	14225
854.317	14263
854.451	14465
854.585	14275
854.72	14202
854.854	14328
854.988	14271
855.122	14313
855.256	14237
855.39	14256
855.524	14328
855.658	14362
855.792	14324
855.926	14248
856.06	14374
856.194	14415
856.327	14309
856.461	14210
856.595	14221
856.729	14263
856.862	14313
856.996	14305
857.13	14343
857.263	14408
857.397	14431
857.53	14427
857.664	14298
857.797	14358
857.931	14499
858.064	14290
858.197	14358
858.331	14320
858.464	14282
858.597	14145
858.731	14267
858.864	14183
858.997	14320
859.13	14237
859.263	14381
859.396	14328
859.529	14259
859.662	14275
859.795	14320
859.928	14263
860.061	14454
860.194	14476
860.327	14244
860.46	14278
860.592	14415
860.725	14412
860.858	14385
860.99	14294
861.123	14267
861.256	14142
861.388	14298
861.521	14785
861.653	14153
861.786	14183
861.918	14145
862.05	14130
862.183	14145
862.315	14252
862.447	14317
862.58	14237
862.712	14046
862.844	13928
862.976	14149
863.108	14012
863.24	14461
863.372	13970
863.504	14020
863.636	14088
863.768	14084
863.9	14115
864.032	14043
864.164	13993
864.296	14039
864.428	14240
864.559	14119
864.691	14157
864.823	14062
864.954	14081
865.086	14096
865.217	13986
865.349	13993
865.48	14027
865.612	13989
865.743	14259
865.875	14077
866.006	14039
866.137	14050
866.269	14081
866.4	14103
866.531	13993
866.662	13917
866.793	13917
866.924	14035
867.055	13993
867.186	14039
867.317	13913
867.448	13944
867.579	13928
867.71	13932
867.841	14050
867.972	14024
868.103	14031
868.233	14027
868.364	14096
868.495	14149
868.625	14240
868.756	14385
868.886	14233
869.017	14237
869.147	14290
869.278	14370
869.408	14252
869.539	14256
869.669	14294
869.799	14374
869.929	14434
870.06	14431
870.19	14579
870.32	14651
870.45	14663
870.58	14659
870.71	14792
870.84	14773
870.97	14651
871.1	14610
871.23	14921
871.36	14785
871.489	14826
871.619	14861
871.749	14785
871.879	15051
872.008	14979
872.138	14895
872.267	14811
872.397	14743
872.526	14788
872.656	14689
872.785	14743
872.915	14902
873.044	15066
873.173	14914
873.303	15017
873.432	14956
873.561	15020
873.69	14838
873.819	14944
873.948	15047
874.077	15009
874.206	14864
874.335	14902
874.464	15108
874.593	15260
874.722	15085
874.851	15329
874.979	15348
875.108	15252
875.237	15226
875.365	15180
875.494	15279
875.623	15218
875.751	15294
875.88	15291
876.008	15363
876.136	15466
876.265	15709
876.393	15755
876.521	15736
876.65	15690
876.778	15675
876.906	15663
877.034	15644
877.162	15629
877.29	15622
877.418	15656
877.546	15606
877.674	15633
877.802	15625
877.93	15717
878.058	15568
878.185	15496
878.313	15629
878.441	15660
878.568	15568
878.696	15599
878.824	15606
878.951	15759
879.079	15781
879.206	15960
879.333	15911
879.461	15667
879.588	15804
879.715	15846
879.842	15953
879.97	15701
880.097	15507
880.224	15469
880.351	15564
880.478	15614
880.605	15534
880.732	15443
880.859	15781
880.986	15545
881.112	15523
881.239	15507
881.366	15207
881.493	15359
881.619	15184
881.746	15252
881.872	15218
881.999	15077
882.125	15154
882.252	15230
882.378	15127
882.505	15382
882.631	15028
882.757	15028
882.883	15055
883.01	14956
883.136	14914
883.262	14785
883.388	14845
883.514	15039
883.64	14948
883.766	15009
883.892	14838
884.018	14880
884.143	14948
884.269	15123
884.395	14708
884.52	14712
884.646	14796
884.772	14667
884.897	14526
885.023	14762
885.148	14781
885.274	14785
885.399	14769
885.524	14724
885.65	14667
885.775	14727
885.9	14667
886.025	14941
886.15	14792
886.275	14644
886.4	14613
886.525	14610
886.65	14549
886.775	14598
886.9	14880
887.025	14872
887.149	14758
887.274	14514
887.399	14507
887.523	14564
887.648	14488
887.773	14427
887.897	14648
888.021	14564
888.146	14442
888.27	14724
888.395	14674
888.519	14667
888.643	14552
888.767	14575
888.891	14404
889.015	14423
889.139	14442
889.263	14351
889.387	14514
889.511	14568
889.635	14522
889.759	14396
889.883	14389
890.006	14339
890.13	14530
890.254	14229
890.377	14328
890.501	14202
890.624	14119
890.748	14240
890.871	14191
890.995	14039
891.118	13989
891.241	14073
891.364	14195
891.488	14164
891.611	14065
891.734	14027
891.857	14046
891.98	14119
892.103	14142
892.226	14183
892.349	14043
892.471	13944
892.594	14100
892.717	14027
892.839	13997
892.962	14058
893.085	14088
893.207	14123
893.33	13955
893.452	14054
893.575	14138
893.697	14027
893.819	14271
893.941	14332
894.064	14275
894.186	14054
894.308	13982
894.43	14183
894.552	14301
894.674	14107
894.796	14069
894.918	14149
895.04	14092
895.161	14149
895.283	14168
895.405	14024
895.526	14096
895.648	14180
895.769	14244
895.891	14259
896.012	14313
896.134	14370
896.255	14328
896.376	14343
896.498	14168
896.619	14259
896.74	14271
896.861	14377
896.982	14610
897.103	14769
897.224	14530
897.345	14415
897.466	14427
897.587	14492
897.708	14682
897.828	14689
897.949	14484
898.07	14473
898.19	14507
898.311	14655
898.431	14610
898.552	14537
898.672	14804
898.792	14610
898.913	14587
899.033	14587
899.153	14526
899.273	14320
899.393	14495
899.513	14594
899.633	14476
899.753	14575
899.873	14377
899.993	14583
900.113	14476
900.232	14507
900.352	14431
900.472	14484
900.591	14389
900.711	14313
900.83	14225
900.95	14438
901.069	14469
901.189	14210
901.308	14100
901.427	13913
901.546	13982
901.665	14107
901.784	13997
901.904	13913
902.023	13974
902.141	13715
902.26	13605
902.379	13708
902.498	13586
902.617	13537
902.735	13632
902.854	13582
902.973	13502
903.091	13350
903.21	13350
903.328	13274
903.446	13247
903.565	13149
903.683	13137
903.801	13103
903.919	13057
904.038	13129
904.156	12966
904.274	13053
904.392	12996
904.51	12913
904.627	13031
904.745	12966
904.863	13031
904.981	12787
905.098	12650
905.216	12696
905.334	12658
905.451	12707
905.569	12639
905.686	12669
905.803	12597
905.921	12429
906.038	12585
906.155	12448
906.272	12304
906.389	12315
906.506	12213
906.623	12235
906.74	12281
906.857	12087
906.974	12152
907.091	12308
907.208	12327
907.324	12247
907.441	12175
907.557	12076
907.674	12011
907.79	11999
907.907	11969
908.023	11942
908.139	11954
908.256	11908
908.372	11920
908.488	11912
908.604	11745
908.72	11722
908.836	11779
908.952	11756
909.068	11843
909.184	11863
909.3	11729
909.415	11783
909.531	11802
909.647	11463
909.762	11551
909.878	11543
909.993	11596
910.108	11528
910.224	11501
910.339	11501
910.454	11429
910.57	11364
910.685	11360
910.8	11585
910.915	11547
911.03	11326
911.145	11178
911.259	11223
911.374	11284
911.489	11166
911.604	11037
911.718	11048
911.833	10995
911.947	10911
912.062	10869
912.176	10904
912.291	10949
912.405	10835
912.519	11113
912.633	11231
912.748	11166
912.862	11003
912.976	10831
913.09	10801
913.204	10816
913.318	10892
913.431	11029
913.545	10965
913.659	10968
913.772	10782
913.886	10759
914	10706
914.113	10839
914.226	10873
914.34	10812
914.453	10592
914.566	10854
914.68	10717
914.793	10630
914.906	10531
915.019	10421
915.132	10436
915.245	10489
915.358	10447
915.47	10470
915.583	10470
915.696	10580
915.809	10626
915.921	10577
916.034	10527
916.146	10432
916.259	10394
916.371	10512
916.483	10413
916.595	10390
916.708	10432
916.82	10417
916.932	10417
917.044	10443
917.156	10390
917.268	10295
917.38	10337
917.491	10253
917.603	10280
917.715	10455
917.826	10443
917.938	10291
918.049	10238
918.161	10379
918.272	10447
918.384	10455
918.495	10333
918.606	10219
918.717	10093
918.828	10246
918.939	10200
919.05	10196
919.161	10120
919.272	10036
919.383	10040
919.494	10257
919.604	10375
919.715	10219
919.826	10059
919.936	10131
920.047	10287
920.157	10276
920.267	10344
920.378	10246
920.488	10131
920.598	10352
920.708	10500
920.818	10421
920.928	10436
921.038	10599
921.148	10459
921.258	10192
921.368	10169
921.477	10044
921.587	10044
921.697	9895
921.806	10150
921.916	9983
922.025	9804
922.134	9766
922.244	9762
922.353	9762
922.462	9656
922.571	9644
922.68	9450
922.789	9469
922.898	9454
923.007	9408
923.116	9500
923.224	9507
923.333	9454
923.442	9340
923.55	9348
923.659	9397
923.767	9435
923.876	9367
923.984	9412
924.092	9256
924.201	9256
924.309	9256
924.417	9382
924.525	9214
924.633	9237
924.741	10188
924.849	9100
924.956	9268
925.064	9142
925.172	9009
925.279	9074
925.387	9184
925.494	9135
925.602	9207
925.709	9241
925.816	9070
925.924	9081
926.031	9169
926.138	9192
926.245	9131
926.352	9055
926.459	9116
926.566	9192
926.673	9089
926.779	8948
926.886	9047
926.993	8895
927.099	8819
927.206	8819
927.312	8796
927.419	8910
927.525	8910
927.631	8906
927.737	8762
927.843	8781
927.95	8632
928.056	8655
928.162	8724
928.267	8716
928.373	9321
928.479	8807
928.585	8492
928.69	8701
928.796	8823
928.901	8610
929.007	8499
929.112	8686
929.218	8632
929.323	8568
929.428	8625
929.533	8746
929.638	8503
929.743	8545
929.848	8613
929.953	8583
930.058	8419
930.163	8343
930.267	8332
930.372	8484
930.477	8328
930.581	8575
930.685	8393
930.79	8263
930.894	8317
930.998	8225
931.103	8374
931.207	8046
931.311	8035
931.415	7967
931.519	7772
931.623	7712
