Data from test_V78500241_2178.txt Node
Date: Fri Mar 25 14:48:52 CST 2022
User: usil
Spectrometer: V785-0024
Trigger mode: 0
Integration Time (sec): 4.000000E-1
Scans to average: 1
Nonlinearity correction enabled: false
Boxcar width: 0
Storing dark spectrum: false
XAxis mode: Wavelengths
Number of Pixels in Spectrum: 1024
>>>>>Begin Spectral Data<<<<<
801.071	22070
801.214	21983
801.356	21911
801.499	21701
801.641	21614
801.783	21534
801.926	21519
802.068	21420
802.211	21389
802.353	21294
802.496	21119
802.638	21051
802.78	20975
802.923	20902
803.065	20906
803.208	20716
803.35	20944
803.492	20883
803.635	20914
803.777	20815
803.919	20887
804.061	21218
804.204	20933
804.346	20845
804.488	20815
804.63	20933
804.773	20773
804.915	20750
805.057	20963
805.199	20834
805.341	20872
805.483	20918
805.626	20857
805.768	20731
805.91	20762
806.052	20712
806.194	20655
806.336	20853
806.478	20762
806.62	20746
806.762	20796
806.904	20925
807.046	21081
807.188	21108
807.33	21135
807.472	21199
807.614	21020
807.756	21112
807.898	20876
808.04	20845
808.182	20849
808.324	20941
808.465	20925
808.607	21070
808.749	21169
808.891	21279
809.033	21291
809.174	21252
809.316	21135
809.458	21173
809.6	21195
809.741	21123
809.883	21062
810.025	21306
810.166	21207
810.308	21252
810.45	21275
810.591	21169
810.733	21108
810.875	20918
811.016	20819
811.158	20925
811.299	20982
811.441	21096
811.582	20979
811.724	20933
811.865	20960
812.007	20925
812.148	20883
812.29	21039
812.431	21089
812.573	21180
812.714	21351
812.855	21412
812.997	21549
813.138	21671
813.279	21705
813.421	21412
813.562	21256
813.703	21211
813.845	21165
813.986	20952
814.127	20674
814.268	20499
814.41	20514
814.551	20419
814.692	20537
814.833	20396
814.974	20389
815.115	20434
815.256	20336
815.397	20362
815.539	20347
815.68	20077
815.821	20157
815.962	20157
816.103	20115
816.244	20100
816.385	20012
816.526	19898
816.666	19822
816.807	19601
816.948	19731
817.089	19727
817.23	19731
817.371	19601
817.512	19597
817.653	19624
817.793	19616
817.934	19571
818.075	19651
818.216	19510
818.356	19601
818.497	19472
818.638	19358
818.778	19293
818.919	19308
819.06	19247
819.2	19476
819.341	19460
819.481	19556
819.622	19540
819.762	19833
819.903	19719
820.043	19635
820.184	19597
820.324	19590
820.465	19651
820.605	19677
820.746	19639
820.886	19331
821.026	19594
821.167	19639
821.307	19590
821.447	19453
821.588	19445
821.728	19263
821.868	19160
822.008	19008
822.149	18966
822.289	19008
822.429	18745
822.569	18601
822.709	18623
822.849	18460
822.99	18517
823.13	18407
823.27	18502
823.41	18346
823.55	18224
823.69	18460
823.83	18372
823.97	18258
824.11	18133
824.25	18102
824.389	18102
824.529	18266
824.669	18129
824.809	18247
824.949	18167
825.089	18216
825.228	18163
825.368	17851
825.508	17916
825.648	17726
825.787	17912
825.927	17878
826.067	17817
826.206	17855
826.346	17923
826.485	17939
826.625	17863
826.765	17840
826.904	17851
827.044	17733
827.183	17665
827.323	17509
827.462	17638
827.601	17577
827.741	17505
827.88	17547
828.02	17467
828.159	17497
828.298	17562
828.437	17554
828.577	17398
828.716	17684
828.855	17414
828.994	17235
829.134	17360
829.273	17349
829.412	17269
829.551	17189
829.69	17326
829.829	17318
829.968	17383
830.107	17391
830.246	17387
830.385	17181
830.524	17162
830.663	17067
830.802	16980
830.941	16949
831.08	16885
831.219	17022
831.357	17006
831.496	17113
831.635	16999
831.774	16778
831.913	16740
832.051	16603
832.19	16828
832.329	16733
832.467	16569
832.606	16455
832.744	16592
832.883	16542
833.022	16698
833.16	16630
833.299	16637
833.437	16637
833.576	16656
833.714	16668
833.852	16588
833.991	16641
834.129	16748
834.267	16698
834.406	16687
834.544	16672
834.682	16634
834.821	16634
834.959	16767
835.097	16687
835.235	16687
835.373	16588
835.511	16622
835.65	16580
835.788	16721
835.926	16417
836.064	16402
836.202	16481
836.34	16561
836.478	16554
836.615	16531
836.753	16535
836.891	16626
837.029	16603
837.167	16474
837.305	16478
837.443	16436
837.58	16436
837.718	16516
837.856	16386
837.993	16402
838.131	16390
838.269	16409
838.406	16466
838.544	16280
838.681	16124
838.819	16143
838.956	16021
839.094	15922
839.231	16013
839.369	16139
839.506	16428
839.643	16177
839.781	15998
839.918	15922
840.055	16029
840.193	16010
840.33	16013
840.467	15899
840.604	16063
840.742	16253
840.879	15850
841.016	15892
841.153	15884
841.29	15964
841.427	15918
841.564	16074
841.701	15941
841.838	15922
841.975	15846
842.112	15865
842.249	15846
842.385	15793
842.522	15926
842.659	15781
842.796	15724
842.933	15694
843.069	15610
843.206	15629
843.343	15789
843.479	15774
843.616	15808
843.752	15538
843.889	15633
844.025	15728
844.162	15564
844.298	15603
844.435	15545
844.571	15466
844.708	15633
844.844	15686
844.98	15679
845.117	15644
845.253	15523
845.389	15351
845.525	15500
845.661	15431
845.798	15340
845.934	15355
846.07	15382
846.206	15431
846.342	15469
846.478	15348
846.614	15165
846.75	15005
846.886	15047
847.022	15108
847.158	15173
847.294	15161
847.429	15195
847.565	15070
847.701	15256
847.837	14796
847.972	14754
848.108	14960
848.244	14864
848.379	14773
848.515	14682
848.65	14659
848.786	14678
848.921	14659
849.057	14785
849.192	14754
849.328	14758
849.463	14769
849.598	14670
849.734	14689
849.869	14640
850.004	14415
850.14	14526
850.275	14533
850.41	14396
850.545	14412
850.68	14442
850.815	14457
850.95	14450
851.085	14579
851.22	14473
851.355	14492
851.49	14454
851.625	14454
851.76	14495
851.895	14320
852.03	14336
852.165	14434
852.299	14549
852.434	14598
852.569	14530
852.703	14556
852.838	14495
852.973	14598
853.107	14617
853.242	14400
853.376	14336
853.511	14278
853.645	14343
853.78	14492
853.914	14317
854.048	14294
854.183	14237
854.317	14415
854.451	14533
854.585	14248
854.72	14286
854.854	14442
854.988	14294
855.122	14229
855.256	14183
855.39	14324
855.524	14427
855.658	14396
855.792	14313
855.926	14305
856.06	14332
856.194	14389
856.327	14263
856.461	14370
856.595	14362
856.729	14339
856.862	14431
856.996	14317
857.13	14393
857.263	14396
857.397	14446
857.53	14385
857.664	14400
857.797	14400
857.931	14518
858.064	14370
858.197	14355
858.331	14385
858.464	14233
858.597	14233
858.731	14301
858.864	14256
858.997	14244
859.13	14381
859.263	14393
859.396	14381
859.529	14343
859.662	14240
859.795	14153
859.928	14374
860.061	14442
860.194	14568
860.327	14317
860.46	14461
860.592	14465
860.725	14537
860.858	14465
860.99	14393
861.123	14267
861.256	14324
861.388	14404
861.521	14960
861.653	14221
861.786	14103
861.918	14130
862.05	14377
862.183	14225
862.315	14286
862.447	14366
862.58	14362
862.712	14153
862.844	14050
862.976	14176
863.108	14130
863.24	14537
863.372	13944
863.504	14161
863.636	14088
863.768	14119
863.9	14103
864.032	13967
864.164	14084
864.296	14149
864.428	14233
864.559	14290
864.691	14176
864.823	14172
864.954	14191
865.086	14168
865.217	14123
865.349	14035
865.48	14088
865.612	14221
865.743	14195
865.875	14107
866.006	14054
866.137	14062
866.269	14103
866.4	14039
866.531	14016
866.662	14043
866.793	14001
866.924	14005
867.055	14134
867.186	14107
867.317	14054
867.448	13986
867.579	13989
867.71	13997
867.841	13944
867.972	14081
868.103	13997
868.233	14107
868.364	14077
868.495	14199
868.625	14305
868.756	14400
868.886	14259
869.017	14278
869.147	14457
869.278	14473
869.408	14351
869.539	14377
869.669	14358
869.799	14396
869.929	14556
870.06	14412
870.19	14632
870.32	14640
870.45	14731
870.58	14705
870.71	14880
870.84	14883
870.97	14807
871.1	14769
871.23	14929
871.36	14899
871.489	14876
871.619	14807
871.749	14902
871.879	15028
872.008	15055
872.138	14910
872.267	14941
872.397	14796
872.526	14712
872.656	14678
872.785	14750
872.915	14910
873.044	15043
873.173	14948
873.303	15039
873.432	14967
873.561	15039
873.69	14982
873.819	14941
873.948	15150
874.077	15093
874.206	15043
874.335	15097
874.464	15055
874.593	15233
874.722	15184
874.851	15370
874.979	15306
875.108	15340
875.237	15241
875.365	15214
875.494	15195
875.623	15401
875.751	15138
875.88	15287
876.008	15424
876.136	15488
876.265	15686
876.393	15797
876.521	15800
876.65	15755
876.778	15717
876.906	15679
877.034	15622
877.162	15736
877.29	15663
877.418	15625
877.546	15644
877.674	15686
877.802	15701
877.93	15675
878.058	15637
878.185	15507
878.313	15641
878.441	15641
878.568	15610
878.696	15523
878.824	15690
878.951	15831
879.079	15922
879.206	16006
879.333	15869
879.461	15728
879.588	15850
879.715	15888
879.842	15922
879.97	15774
880.097	15595
880.224	15591
880.351	15690
880.478	15530
880.605	15530
880.732	15553
880.859	15854
880.986	15523
881.112	15599
881.239	15416
881.366	15443
881.493	15321
881.619	15176
881.746	15245
881.872	15294
881.999	15146
882.125	15173
882.252	15359
882.378	15161
882.505	15389
882.631	15199
882.757	14963
882.883	15020
883.01	15074
883.136	15043
883.262	14960
883.388	14838
883.514	15100
883.64	15089
883.766	14971
883.892	14834
884.018	14830
884.143	14975
884.269	15074
884.395	14830
884.52	14651
884.646	14785
884.772	14708
884.897	14583
885.023	14739
885.148	14792
885.274	14899
885.399	14883
885.524	14823
885.65	14853
885.775	14788
885.9	14640
886.025	14868
886.15	14746
886.275	14667
886.4	14514
886.525	14743
886.65	14606
886.775	14571
886.9	14811
887.025	14994
887.149	14842
887.274	14689
887.399	14442
887.523	14575
887.648	14507
887.773	14484
887.897	14617
888.021	14636
888.146	14552
888.27	14648
888.395	14689
888.519	14606
888.643	14659
888.767	14701
888.891	14575
889.015	14362
889.139	14484
889.263	14393
889.387	14446
889.511	14568
889.635	14602
889.759	14434
889.883	14336
890.006	14560
890.13	14503
890.254	14286
890.377	14366
890.501	14218
890.624	14240
890.748	14305
890.871	14069
890.995	14123
891.118	14035
891.241	14172
891.364	14176
891.488	14229
891.611	14225
891.734	14058
891.857	14164
891.98	14214
892.103	14187
892.226	14195
892.349	14058
892.471	14008
892.594	14142
892.717	14126
892.839	14065
892.962	14062
893.085	14123
893.207	14199
893.33	14035
893.452	14001
893.575	14180
893.697	14191
893.819	14305
893.941	14328
894.064	14305
894.186	14130
894.308	14107
894.43	14259
894.552	14343
894.674	14206
894.796	14069
894.918	14142
895.04	14199
895.161	14313
895.283	14366
895.405	14119
895.526	14180
895.648	14191
895.769	14263
895.891	14374
896.012	14343
896.134	14336
896.255	14404
896.376	14271
896.498	14347
896.619	14396
896.74	14290
896.861	14438
896.982	14629
897.103	14731
897.224	14610
897.345	14579
897.466	14495
897.587	14579
897.708	14705
897.828	14621
897.949	14613
898.07	14461
898.19	14610
898.311	14777
898.431	14594
898.552	14640
898.672	14648
898.792	14670
898.913	14705
899.033	14655
899.153	14473
899.273	14431
899.393	14499
899.513	14434
899.633	14488
899.753	14518
899.873	14461
899.993	14644
900.113	14374
900.232	14446
900.352	14412
900.472	14438
900.591	14351
900.711	14408
900.83	14286
900.95	14545
901.069	14526
901.189	14301
901.308	14123
901.427	14001
901.546	13955
901.665	14062
901.784	14092
901.904	13963
902.023	13868
902.141	13670
902.26	13582
902.379	13689
902.498	13567
902.617	13643
902.735	13693
902.854	13594
902.973	13525
903.091	13308
903.21	13308
903.328	13327
903.446	13270
903.565	13198
903.683	13316
903.801	13107
903.919	13179
904.038	13236
904.156	13061
904.274	12958
904.392	12871
904.51	13004
904.627	12981
904.745	13012
904.863	12962
904.981	12757
905.098	12627
905.216	12684
905.334	12760
905.451	12749
905.569	12677
905.686	12696
905.803	12601
905.921	12456
906.038	12681
906.155	12509
906.272	12365
906.389	12410
906.506	12281
906.623	12277
906.74	12224
906.857	12209
906.974	12182
907.091	12220
907.208	12388
907.324	12285
907.441	12129
907.557	12060
907.674	12019
907.79	11996
907.907	11901
908.023	12079
908.139	12007
908.256	11920
908.372	11916
908.488	11916
908.604	11859
908.72	11813
908.836	11756
908.952	11726
909.068	11870
909.184	11828
909.3	11805
909.415	11752
909.531	11832
909.647	11592
909.762	11604
909.878	11452
909.993	11611
910.108	11493
910.224	11543
910.339	11524
910.454	11414
910.57	11467
910.685	11315
910.8	11623
910.915	11585
911.03	11425
911.145	11299
911.259	11197
911.374	11246
911.489	11170
911.604	11155
911.718	10968
911.833	10995
911.947	10984
912.062	10828
912.176	11033
912.291	11056
912.405	11014
912.519	11227
912.633	11246
912.748	11124
912.862	11029
912.976	10793
913.09	10763
913.204	10820
913.318	10938
913.431	11041
913.545	11006
913.659	10991
913.772	10949
913.886	10782
914	10740
914.113	10782
914.226	10892
914.34	10881
914.453	10607
914.566	10869
914.68	10664
914.793	10687
914.906	10512
915.019	10508
915.132	10329
915.245	10466
915.358	10558
915.47	10531
915.583	10573
915.696	10603
915.809	10675
915.921	10691
916.034	10550
916.146	10516
916.259	10428
916.371	10546
916.483	10462
916.595	10451
916.708	10405
916.82	10531
916.932	10470
917.044	10451
917.156	10474
917.268	10314
917.38	10257
917.491	10284
917.603	10322
917.715	10386
917.826	10409
917.938	10295
918.049	10185
918.161	10371
918.272	10500
918.384	10470
918.495	10348
918.606	10246
918.717	10120
918.828	10200
918.939	10303
919.05	10105
919.161	10207
919.272	9953
919.383	10101
919.494	10367
919.604	10516
919.715	10249
919.826	10147
919.936	10223
920.047	10238
920.157	10215
920.267	10474
920.378	10303
920.488	10284
920.598	10409
920.708	10592
920.818	10481
920.928	10459
921.038	10641
921.148	10546
921.258	10318
921.368	10185
921.477	10147
921.587	10082
921.697	9960
921.806	10177
921.916	9930
922.025	9895
922.134	9854
922.244	9842
922.353	9876
922.462	9671
922.571	9667
922.68	9485
922.789	9431
922.898	9462
923.007	9466
923.116	9492
923.224	9447
923.333	9428
923.442	9332
923.55	9348
923.659	9397
923.767	9504
923.876	9317
923.984	9469
924.092	9275
924.201	9397
924.309	9310
924.417	9336
924.525	9264
924.633	9279
924.741	10048
924.849	9161
924.956	9294
925.064	9176
925.172	9032
925.279	9119
925.387	9176
925.494	9123
925.602	9264
925.709	9237
925.816	9085
925.924	9070
926.031	9230
926.138	9119
926.245	9173
926.352	9028
926.459	9184
926.566	9184
926.673	9085
926.779	8967
926.886	9036
926.993	8880
927.099	8785
927.206	8845
927.312	8705
927.419	8883
927.525	8880
927.631	8994
927.737	8746
927.843	8754
927.95	8682
928.056	8754
928.162	8777
928.267	8807
928.373	9469
928.479	8887
928.585	8640
928.69	8800
928.796	8781
928.901	8632
929.007	8530
929.112	8682
929.218	8640
929.323	8583
929.428	8545
929.533	8682
929.638	8511
929.743	8560
929.848	8514
929.953	8659
930.058	8423
930.163	8332
930.267	8366
930.372	8518
930.477	8343
930.581	8511
930.685	8419
930.79	8271
930.894	8286
930.998	8282
931.103	8362
931.207	8058
931.311	8035
931.415	7959
931.519	7769
931.623	7811
