Data from test_V78500241_280.txt Node
Date: Fri Mar 25 14:35:40 CST 2022
User: usil
Spectrometer: V785-0024
Trigger mode: 0
Integration Time (sec): 4.000000E-1
Scans to average: 1
Nonlinearity correction enabled: false
Boxcar width: 0
Storing dark spectrum: false
XAxis mode: Wavelengths
Number of Pixels in Spectrum: 1024
>>>>>Begin Spectral Data<<<<<
801.071	27477
801.214	27378
801.356	26948
801.499	26956
801.641	26613
801.783	26708
801.926	26781
802.068	26594
802.211	26564
802.353	26488
802.496	26286
802.638	26434
802.78	26301
802.923	26164
803.065	26138
803.208	26214
803.35	26191
803.492	26290
803.635	26393
803.777	26218
803.919	26324
804.061	26587
804.204	26271
804.346	26199
804.488	26077
804.63	26320
804.773	26092
804.915	26210
805.057	26351
805.199	26088
805.341	26267
805.483	26240
805.626	26240
805.768	26183
805.91	26248
806.052	26191
806.194	26218
806.336	26632
806.478	26324
806.62	26275
806.762	26263
806.904	26526
807.046	26602
807.188	26663
807.33	26663
807.472	26659
807.614	26552
807.756	26514
807.898	26526
808.04	26389
808.182	26400
808.324	26533
808.465	26518
808.607	26754
808.749	26826
808.891	26864
809.033	27100
809.174	27081
809.316	26807
809.458	26899
809.6	26849
809.741	26864
809.883	26743
810.025	26891
810.166	26979
810.308	26902
810.45	26979
810.591	26750
810.733	26735
810.875	26594
811.016	26606
811.158	26552
811.299	26727
811.441	26781
811.582	26876
811.724	26613
811.865	26632
812.007	26575
812.148	26545
812.29	26773
812.431	26857
812.573	26887
812.714	27077
812.855	27047
812.997	27241
813.138	27325
813.279	27222
813.421	27127
813.562	27142
813.703	26956
813.845	26716
813.986	26556
814.127	26404
814.268	26339
814.41	26202
814.551	26317
814.692	26256
814.833	26168
814.974	26142
815.115	26153
815.256	25944
815.397	25883
815.539	26062
815.68	25845
815.821	25852
815.962	25978
816.103	25822
816.244	25784
816.385	25689
816.526	25666
816.666	25499
816.807	25293
816.948	25476
817.089	25434
817.23	25354
817.371	25308
817.512	25324
817.653	25274
817.793	25198
817.934	25365
818.075	25297
818.216	25259
818.356	25202
818.497	25148
818.638	24962
818.778	24958
818.919	24894
819.06	25050
819.2	25065
819.341	25126
819.481	25057
819.622	25430
819.762	25419
819.903	25415
820.043	25316
820.184	25228
820.324	25301
820.465	25388
820.605	25426
820.746	25278
820.886	25095
821.026	25171
821.167	25236
821.307	25259
821.447	25156
821.588	24996
821.728	24958
821.868	24840
822.008	24631
822.149	24494
822.289	24574
822.429	24475
822.569	24296
822.709	24209
822.849	24171
822.99	24079
823.13	24060
823.27	23939
823.41	23889
823.55	23783
823.69	23878
823.83	23904
823.97	23821
824.11	23551
824.25	23729
824.389	23615
824.529	23657
824.669	23710
824.809	23691
824.949	23657
825.089	23718
825.228	23714
825.368	23444
825.508	23493
825.648	23551
825.787	23417
825.927	23516
826.067	23349
826.206	23353
826.346	23414
826.485	23452
826.625	23417
826.765	23433
826.904	23356
827.044	23227
827.183	23143
827.323	23086
827.462	23132
827.601	23067
827.741	23064
827.88	23208
828.02	23090
828.159	22984
828.298	23128
828.437	23151
828.577	23052
828.716	23060
828.855	22953
828.994	22892
829.134	22835
829.273	22991
829.412	22828
829.551	22637
829.69	22771
829.829	22850
829.968	22759
830.107	22858
830.246	22938
830.385	22611
830.524	22561
830.663	22691
830.802	22474
830.941	22379
831.08	22386
831.219	22451
831.357	22417
831.496	22538
831.635	22379
831.774	22268
831.913	22287
832.051	22036
832.19	22188
832.329	22112
832.467	22006
832.606	22093
832.744	21945
832.883	21827
833.022	21835
833.16	21949
833.299	22154
833.437	22032
833.576	22204
833.714	21983
833.852	22017
833.991	22070
834.129	22200
834.267	22105
834.406	21937
834.544	22048
834.682	22021
834.821	21895
834.959	22063
835.097	21884
835.235	22105
835.373	21926
835.511	21987
835.65	21926
835.788	21808
835.926	21781
836.064	21572
836.202	21538
836.34	21865
836.478	21918
836.615	21812
836.753	21880
836.891	21861
837.029	21854
837.167	21823
837.305	21671
837.443	21656
837.58	21652
837.718	21720
837.856	21686
837.993	21500
838.131	21728
838.269	21492
838.406	21568
838.544	21431
838.681	21351
838.819	21424
838.956	21146
839.094	21188
839.231	21119
839.369	21310
839.506	21386
839.643	21306
839.781	21165
839.918	21005
840.055	21199
840.193	21070
840.33	21009
840.467	20971
840.604	21005
840.742	21325
840.879	20914
841.016	21039
841.153	20971
841.29	21070
841.427	21001
841.564	20952
841.701	20952
841.838	20887
841.975	20853
842.112	20830
842.249	20792
842.385	20712
842.522	20960
842.659	20906
842.796	20796
842.933	20834
843.069	20708
843.206	20792
843.343	20773
843.479	20720
843.616	20598
843.752	20522
843.889	20522
844.025	20640
844.162	20396
844.298	20575
844.435	20427
844.571	20412
844.708	20541
844.844	20495
844.98	20594
845.117	20533
845.253	20408
845.389	20423
845.525	20450
845.661	20473
845.798	20282
845.934	20499
846.07	20362
846.206	20476
846.342	20427
846.478	20343
846.614	20122
846.75	19959
846.886	19947
847.022	20024
847.158	20027
847.294	20050
847.429	19913
847.565	19860
847.701	20199
847.837	19502
847.972	19677
848.108	19704
848.244	19662
848.379	19556
848.515	19540
848.65	19601
848.786	19434
848.921	19521
849.057	19719
849.192	19544
849.328	19601
849.463	19491
849.598	19464
849.734	19483
849.869	19384
850.004	19350
850.14	19221
850.275	19251
850.41	19160
850.545	19179
850.68	19312
850.815	19403
850.95	19183
851.085	19464
851.22	19327
851.355	19221
851.49	19255
851.625	19202
851.76	19168
851.895	19133
852.03	19114
852.165	19202
852.299	19274
852.434	19266
852.569	19152
852.703	19194
852.838	19255
852.973	19343
853.107	19415
853.242	19069
853.376	19126
853.511	18951
853.645	19027
853.78	19175
853.914	19023
854.048	19027
854.183	18985
854.317	19042
854.451	19263
854.585	19000
854.72	19107
854.854	18993
854.988	18875
855.122	19183
855.256	18878
855.39	19015
855.524	19046
855.658	19084
855.792	19072
855.926	19095
856.06	19042
856.194	19103
856.327	19031
856.461	18909
856.595	18985
856.729	18993
856.862	19206
856.996	19095
857.13	19114
857.263	19175
857.397	19129
857.53	18924
857.664	19065
857.797	19080
857.931	19080
858.064	19072
858.197	19000
858.331	18981
858.464	19095
858.597	18890
858.731	18886
858.864	18894
858.997	18859
859.13	19148
859.263	19012
859.396	19091
859.529	19019
859.662	18867
859.795	18890
859.928	19069
860.061	19183
860.194	19194
860.327	18939
860.46	19038
860.592	19122
860.725	19057
860.858	19046
860.99	19046
861.123	18970
861.256	19000
861.388	19031
861.521	19518
861.653	18821
861.786	18795
861.918	18924
862.05	19008
862.183	18951
862.315	19050
862.447	19122
862.58	19034
862.712	18867
862.844	18700
862.976	18932
863.108	18806
863.24	19152
863.372	18646
863.504	18764
863.636	18688
863.768	18791
863.9	18753
864.032	18578
864.164	18593
864.296	18616
864.428	18700
864.559	18802
864.691	18749
864.823	18802
864.954	18768
865.086	18597
865.217	18703
865.349	18509
865.48	18582
865.612	18684
865.743	18791
865.875	18650
866.006	18677
866.137	18597
866.269	18620
866.4	18654
866.531	18604
866.662	18540
866.793	18540
866.924	18601
867.055	18471
867.186	18601
867.317	18646
867.448	18551
867.579	18547
867.71	18338
867.841	18528
867.972	18585
868.103	18646
868.233	18589
868.364	18536
868.495	18631
868.625	18711
868.756	18913
868.886	18741
869.017	18806
869.147	18954
869.278	18821
869.408	18825
869.539	18817
869.669	18913
869.799	18821
869.929	18905
870.06	18894
870.19	19114
870.32	19110
870.45	19141
870.58	19251
870.71	19274
870.84	19240
870.97	19225
871.1	19145
871.23	19407
871.36	19316
871.489	19350
871.619	19392
871.749	19312
871.879	19358
872.008	19651
872.138	19491
872.267	19377
872.397	19285
872.526	19183
872.656	19312
872.785	19206
872.915	19487
873.044	19388
873.173	19411
873.303	19453
873.432	19468
873.561	19453
873.69	19476
873.819	19430
873.948	19575
874.077	19480
874.206	19346
874.335	19434
874.464	19567
874.593	19624
874.722	19632
874.851	19746
874.979	19681
875.108	19635
875.237	19639
875.365	19594
875.494	19655
875.623	19708
875.751	19632
875.88	19685
876.008	19860
876.136	19894
876.265	20130
876.393	20248
876.521	20172
876.65	20138
876.778	20100
876.906	20088
877.034	20043
877.162	20084
877.29	20115
877.418	20214
877.546	20024
877.674	20081
877.802	20100
877.93	20126
878.058	20107
878.185	19928
878.313	19970
878.441	20157
878.568	19951
878.696	20096
878.824	20115
878.951	20126
879.079	20320
879.206	20484
879.333	20324
879.461	20153
879.588	20294
879.715	20358
879.842	20377
879.97	20111
880.097	19925
880.224	20012
880.351	19967
880.478	20020
880.605	19936
880.732	19906
880.859	20134
880.986	19909
881.112	19894
881.239	19906
881.366	19647
881.493	19586
881.619	19548
881.746	19662
881.872	19609
881.999	19510
882.125	19426
882.252	19628
882.378	19597
882.505	19651
882.631	19430
882.757	19297
882.883	19362
883.01	19255
883.136	19308
883.262	19114
883.388	19110
883.514	19285
883.64	19457
883.766	19251
883.892	19088
884.018	19168
884.143	19278
884.269	19327
884.395	19031
884.52	19027
884.646	19061
884.772	18878
884.897	18856
885.023	19050
885.148	19145
885.274	19137
885.399	19019
885.524	18935
885.65	18966
885.775	18897
885.9	18901
886.025	19042
886.15	19065
886.275	18909
886.4	18719
886.525	18833
886.65	18821
886.775	18951
886.9	19137
887.025	19019
887.149	18886
887.274	18772
887.399	18760
887.523	18738
887.648	18707
887.773	18582
887.897	18726
888.021	18806
888.146	18582
888.27	18829
888.395	18871
888.519	18753
888.643	18726
888.767	18825
888.891	18597
889.015	18555
889.139	18551
889.263	18521
889.387	18650
889.511	18810
889.635	18639
889.759	18566
889.883	18441
890.006	18483
890.13	18555
890.254	18342
890.377	18437
890.501	18304
890.624	18292
890.748	18224
890.871	18228
890.995	18068
891.118	18209
891.241	18076
891.364	18167
891.488	18235
891.611	18072
891.734	18110
891.857	18235
891.98	18140
892.103	18136
892.226	18060
892.349	18098
892.471	17973
892.594	17996
892.717	18072
892.839	18007
892.962	18049
893.085	18106
893.207	18022
893.33	18011
893.452	17916
893.575	18155
893.697	18076
893.819	18194
893.941	18277
894.064	18247
894.186	17954
894.308	18003
894.43	18068
894.552	18232
894.674	18174
894.796	17984
894.918	18003
895.04	18011
895.161	18125
895.283	18129
895.405	17961
895.526	18068
895.648	18060
895.769	18114
895.891	18114
896.012	18213
896.134	18174
896.255	18174
896.376	18026
896.498	18136
896.619	18125
896.74	18205
896.861	18292
896.982	18437
897.103	18722
897.224	18338
897.345	18372
897.466	18369
897.587	18346
897.708	18456
897.828	18376
897.949	18338
898.07	18235
898.19	18273
898.311	18437
898.431	18289
898.552	18357
898.672	18479
898.792	18399
898.913	18315
899.033	18038
899.153	18144
899.273	18053
899.393	18030
899.513	18140
899.633	18114
899.753	18228
899.873	18038
899.993	18194
900.113	18087
900.232	18171
900.352	18057
900.472	18038
900.591	17840
900.711	17920
900.83	17851
900.95	18019
901.069	18041
901.189	17923
901.308	17528
901.427	17414
901.546	17512
901.665	17665
901.784	17615
901.904	17478
902.023	17322
902.141	17105
902.26	17159
902.379	17174
902.498	17079
902.617	17064
902.735	17060
902.854	17075
902.973	16911
903.091	16702
903.21	16797
903.328	16759
903.446	16710
903.565	16691
903.683	16691
903.801	16409
903.919	16489
904.038	16516
904.156	16405
904.274	16455
904.392	16443
904.51	16284
904.627	16337
904.745	16356
904.863	16440
904.981	16124
905.098	15983
905.216	16040
905.334	16078
905.451	16055
905.569	16002
905.686	16101
905.803	16055
905.921	15838
906.038	15827
906.155	15766
906.272	15728
906.389	15781
906.506	15545
906.623	15561
906.74	15526
906.857	15530
906.974	15424
907.091	15637
907.208	15709
907.324	15515
907.441	15443
907.557	15310
907.674	15306
907.79	15203
907.907	15161
908.023	15294
908.139	15306
908.256	15233
908.372	15047
908.488	15127
908.604	14929
908.72	14914
908.836	14902
908.952	14921
909.068	14952
909.184	15062
909.3	14887
909.415	14941
909.531	14918
909.647	14750
909.762	14716
909.878	14590
909.993	14579
910.108	14655
910.224	14636
910.339	14629
910.454	14473
910.57	14530
910.685	14328
910.8	14667
910.915	14731
911.03	14465
911.145	14313
911.259	14282
911.374	14377
911.489	14347
911.604	14225
911.718	14050
911.833	14050
911.947	13898
912.062	13856
912.176	13947
912.291	14058
912.405	14065
912.519	14259
912.633	14237
912.748	14100
912.862	13955
912.976	13860
913.09	13700
913.204	13818
913.318	13944
913.431	14035
913.545	13883
913.659	13970
913.772	13830
913.886	13772
914	13685
914.113	13826
914.226	13761
914.34	13727
914.453	13567
914.566	13715
914.68	13605
914.793	13597
914.906	13403
915.019	13346
915.132	13304
915.245	13350
915.358	13403
915.47	13289
915.583	13331
915.696	13480
915.809	13480
915.921	13472
916.034	13304
916.146	13232
916.259	13156
916.371	13373
916.483	13289
916.595	13316
916.708	13278
916.82	13236
916.932	13095
917.044	13217
917.156	13133
917.268	13084
917.38	13019
917.491	13019
917.603	13069
917.715	13183
917.826	13156
917.938	12943
918.049	12928
918.161	12985
918.272	13183
918.384	13053
918.495	12989
918.606	12821
918.717	12802
918.828	12817
918.939	12875
919.05	12806
919.161	12886
919.272	12597
919.383	12669
919.494	12798
919.604	13008
919.715	12787
919.826	12787
919.936	12814
920.047	12894
920.157	12760
920.267	12954
920.378	12814
920.488	12738
920.598	12920
920.708	13061
920.818	12973
920.928	12985
921.038	13133
921.148	13038
921.258	12791
921.368	12715
921.477	12604
921.587	12589
921.697	12384
921.806	12563
921.916	12384
922.025	12296
922.134	12213
922.244	12190
922.353	12289
922.462	12102
922.571	12030
922.68	11950
922.789	11897
922.898	11958
923.007	11794
923.116	11870
923.224	11908
923.333	11805
923.442	11809
923.55	11722
923.659	11699
923.767	11821
923.876	11646
923.984	11802
924.092	11615
924.201	11817
924.309	11703
924.417	11684
924.525	11695
924.633	11627
924.741	12654
924.849	11440
924.956	11547
925.064	11452
925.172	11402
925.279	11395
925.387	11486
925.494	11364
925.602	11623
925.709	11436
925.816	11269
925.924	11402
926.031	11512
926.138	11337
926.245	11398
926.352	11220
926.459	11452
926.566	11501
926.673	11395
926.779	11239
926.886	11193
926.993	11067
927.099	11056
927.206	11033
927.312	11060
927.419	11102
927.525	11090
927.631	11025
927.737	10972
927.843	10904
927.95	10805
928.056	10968
928.162	10908
928.267	10968
928.373	11482
928.479	10965
928.585	10774
928.69	10934
928.796	10911
928.901	10786
929.007	10649
929.112	10793
929.218	10725
929.323	10721
929.428	10622
929.533	10748
929.638	10626
929.743	10672
929.848	10649
929.953	10626
930.058	10573
930.163	10386
930.267	10356
930.372	10546
930.477	10398
930.581	10573
930.685	10432
930.79	10185
930.894	10299
930.998	10246
931.103	10409
931.207	10063
931.311	9998
931.415	9922
931.519	9656
931.623	9717
