Data from test_V78500241_624.txt Node
Date: Fri Mar 25 14:38:03 CST 2022
User: usil
Spectrometer: V785-0024
Trigger mode: 0
Integration Time (sec): 4.000000E-1
Scans to average: 1
Nonlinearity correction enabled: false
Boxcar width: 0
Storing dark spectrum: false
XAxis mode: Wavelengths
Number of Pixels in Spectrum: 1024
>>>>>Begin Spectral Data<<<<<
801.071	27930
801.214	27797
801.356	27675
801.499	27530
801.641	27386
801.783	27344
801.926	27485
802.068	27169
802.211	27176
802.353	27024
802.496	26826
802.638	26811
802.78	26918
802.923	26769
803.065	26621
803.208	26796
803.35	26823
803.492	26910
803.635	27001
803.777	26781
803.919	26785
804.061	27310
804.204	27108
804.346	26986
804.488	27001
804.63	27058
804.773	27055
804.915	27146
805.057	27161
805.199	27252
805.341	27214
805.483	27466
805.626	27526
805.768	27329
805.91	27443
806.052	27466
806.194	27675
806.336	27934
806.478	27850
806.62	27979
806.762	28550
806.904	28634
807.046	29178
807.188	29391
807.33	29627
807.472	30144
807.614	30593
807.756	31323
807.898	32046
808.04	33291
808.182	34767
808.324	36719
808.465	39062
808.607	41608
808.749	43753
808.891	45051
809.033	45135
809.174	43890
809.316	41691
809.458	39074
809.6	36532
809.741	34557
809.883	32724
810.025	31712
810.166	30897
810.308	30205
810.45	29714
810.591	29433
810.733	28984
810.875	28767
811.016	28348
811.158	28253
811.299	28261
811.441	28371
811.582	28067
811.724	27766
811.865	27869
812.007	27751
812.148	27583
812.29	27694
812.431	27770
812.573	27854
812.714	27789
812.855	27911
812.997	27934
813.138	27994
813.279	28025
813.421	27819
813.562	27770
813.703	27492
813.845	27374
813.986	26979
814.127	26845
814.268	26651
814.41	26762
814.551	26708
814.692	26804
814.833	26613
814.974	26636
815.115	26644
815.256	26434
815.397	26336
815.539	26286
815.68	26396
815.821	26221
815.962	26202
816.103	26218
816.244	26111
816.385	25921
816.526	25868
816.666	25723
816.807	25533
816.948	25658
817.089	25696
817.23	25624
817.371	25571
817.512	25559
817.653	25312
817.793	25540
817.934	25529
818.075	25479
818.216	25479
818.356	25301
818.497	25396
818.638	25080
818.778	25133
818.919	25198
819.06	25179
819.2	25396
819.341	25426
819.481	25335
819.622	25571
819.762	25662
819.903	25571
820.043	25666
820.184	25388
820.324	25335
820.465	25544
820.605	25324
820.746	25304
820.886	25304
821.026	25377
821.167	25270
821.307	25259
821.447	25126
821.588	25091
821.728	24966
821.868	24749
822.008	24585
822.149	24654
822.289	24642
822.429	24273
822.569	24186
822.709	24232
822.849	24125
822.99	24030
823.13	24011
823.27	24030
823.41	23794
823.55	23703
823.69	23832
823.83	23923
823.97	23745
824.11	23509
824.25	23676
824.389	23611
824.529	23710
824.669	23680
824.809	23558
824.949	23775
825.089	23733
825.228	23608
825.368	23372
825.508	23486
825.648	23406
825.787	23452
825.927	23410
826.067	23433
826.206	23398
826.346	23425
826.485	23273
826.625	23364
826.765	23318
826.904	23261
827.044	23227
827.183	23060
827.323	22980
827.462	23033
827.601	23083
827.741	22995
827.88	23121
828.02	22919
828.159	22919
828.298	22980
828.437	23029
828.577	22930
828.716	23048
828.855	22896
828.994	22824
829.134	22736
829.273	22752
829.412	22736
829.551	22653
829.69	22656
829.829	22717
829.968	22767
830.107	22755
830.246	22812
830.385	22542
830.524	22656
830.663	22481
830.802	22352
830.941	22242
831.08	22329
831.219	22276
831.357	22306
831.496	22527
831.635	22261
831.774	22204
831.913	22219
832.051	22070
832.19	22055
832.329	22055
832.467	22101
832.606	22051
832.744	22067
832.883	22109
833.022	22139
833.16	22238
833.299	22516
833.437	22474
833.576	22569
833.714	22698
833.852	22668
833.991	22824
834.129	22927
834.267	22991
834.406	22828
834.544	22763
834.682	22767
834.821	22618
834.959	22725
835.097	22310
835.235	22462
835.373	22318
835.511	22276
835.65	21964
835.788	22017
835.926	21827
836.064	21789
836.202	21728
836.34	21884
836.478	21983
836.615	21766
836.753	21850
836.891	21934
837.029	21804
837.167	21732
837.305	21599
837.443	21599
837.58	21663
837.718	21709
837.856	21595
837.993	21534
838.131	21595
838.269	21458
838.406	21519
838.544	21416
838.681	21150
838.819	21306
838.956	21017
839.094	20994
839.231	21161
839.369	21252
839.506	21374
839.643	21325
839.781	21081
839.918	20979
840.055	21028
840.193	20906
840.33	20861
840.467	20963
840.604	20921
840.742	21176
840.879	20819
841.016	20918
841.153	20727
841.29	21108
841.427	20952
841.564	20967
841.701	20906
841.838	20937
841.975	20800
842.112	20868
842.249	20811
842.385	20781
842.522	20910
842.659	20781
842.796	20815
842.933	20781
843.069	20735
843.206	20899
843.343	20872
843.479	20819
843.616	20826
843.752	20602
843.889	20716
844.025	20868
844.162	20800
844.298	20933
844.435	20982
844.571	21154
844.708	21488
844.844	21728
844.98	21991
845.117	22675
845.253	23166
845.389	24502
845.525	27214
845.661	31381
845.798	36475
845.934	40653
846.07	42273
846.206	41197
846.342	37708
846.478	32484
846.614	27979
846.75	25061
846.886	23360
847.022	22249
847.158	21633
847.294	21161
847.429	20701
847.565	20640
847.701	20686
847.837	20138
847.972	20008
848.108	20035
848.244	19944
848.379	19852
848.515	19780
848.65	19639
848.786	19655
848.921	19651
849.057	19719
849.192	19731
849.328	19616
849.463	19597
849.598	19506
849.734	19422
849.869	19483
850.004	19362
850.14	19430
850.275	19339
850.41	19278
850.545	19331
850.68	19438
850.815	19365
850.95	19331
851.085	19381
851.22	19358
851.355	19289
851.49	19244
851.625	19304
851.76	19240
851.895	19244
852.03	19266
852.165	19301
852.299	19320
852.434	19358
852.569	19369
852.703	19365
852.838	19396
852.973	19468
853.107	19480
853.242	19381
853.376	19282
853.511	19282
853.645	19160
853.78	19457
853.914	19411
854.048	19377
854.183	19540
854.317	19426
854.451	19620
854.585	19464
854.72	19369
854.854	19491
854.988	19278
855.122	19320
855.256	19179
855.39	19221
855.524	19293
855.658	19263
855.792	19217
855.926	19244
856.06	19335
856.194	19164
856.327	19168
856.461	19145
856.595	19034
856.729	19057
856.862	19240
856.996	19091
857.13	19206
857.263	19187
857.397	19152
857.53	19057
857.664	19095
857.797	19247
857.931	19171
858.064	19046
858.197	19236
858.331	19053
858.464	18993
858.597	18859
858.731	18909
858.864	19023
858.997	18993
859.13	19008
859.263	19080
859.396	19042
859.529	18973
859.662	18932
859.795	19019
859.928	18817
860.061	19228
860.194	19118
860.327	18878
860.46	18943
860.592	19114
860.725	19110
860.858	19072
860.99	18920
861.123	19015
861.256	18954
861.388	18840
861.521	19601
861.653	18837
861.786	18814
861.918	18829
862.05	18871
862.183	18935
862.315	19019
862.447	18958
862.58	18886
862.712	18722
862.844	18696
862.976	18791
863.108	18722
863.24	18924
863.372	18673
863.504	18661
863.636	18563
863.768	18738
863.9	18608
864.032	18532
864.164	18585
864.296	18521
864.428	18730
864.559	18749
864.691	18795
864.823	18559
864.954	18608
865.086	18703
865.217	18570
865.349	18456
865.48	18574
865.612	18540
865.743	18658
865.875	18555
866.006	18536
866.137	18578
866.269	18517
866.4	18536
866.531	18540
866.662	18528
866.793	18452
866.924	18494
867.055	18509
867.186	18559
867.317	18448
867.448	18452
867.579	18448
867.71	18467
867.841	18426
867.972	18536
868.103	18521
868.233	18513
868.364	18517
868.495	18582
868.625	18787
868.756	18821
868.886	18817
869.017	18764
869.147	18821
869.278	18962
869.408	18878
869.539	18783
869.669	18798
869.799	18844
869.929	18947
870.06	18905
870.19	19133
870.32	19110
870.45	19194
870.58	19209
870.71	19202
870.84	19293
870.97	19270
871.1	19202
871.23	19316
871.36	19502
871.489	19369
871.619	19487
871.749	19415
871.879	19525
872.008	19556
872.138	19563
872.267	19594
872.397	19510
872.526	19320
872.656	19365
872.785	19438
872.915	19521
873.044	19723
873.173	19693
873.303	19643
873.432	19594
873.561	19674
873.69	19674
873.819	19647
873.948	19750
874.077	19689
874.206	19757
874.335	19814
874.464	19944
874.593	20088
874.722	20138
874.851	20180
874.979	20161
875.108	20298
875.237	20130
875.365	20183
875.494	20138
875.623	20263
875.751	20286
875.88	20366
876.008	20518
876.136	20621
876.265	20861
876.393	20998
876.521	20979
876.65	20990
876.778	20971
876.906	20887
877.034	21020
877.162	21165
877.29	21203
877.418	21245
877.546	21279
877.674	21336
877.802	21492
877.93	21523
878.058	21736
878.185	21682
878.313	22101
878.441	22154
878.568	22398
878.696	22984
878.824	23592
878.951	24490
879.079	25696
879.206	27199
879.333	28797
879.461	30155
879.588	31061
879.715	31137
879.842	30220
879.97	28930
880.097	27123
880.224	25860
880.351	25038
880.478	24471
880.605	23920
880.732	23684
880.859	23630
880.986	23277
881.112	23402
881.239	23022
881.366	22820
881.493	22790
881.619	22889
881.746	22767
881.872	22911
881.999	22904
882.125	22824
882.252	22976
882.378	22957
882.505	23117
882.631	22858
882.757	22793
882.883	22713
883.01	22736
883.136	22630
883.262	22687
883.388	22550
883.514	22736
883.64	22801
883.766	22637
883.892	22516
884.018	22421
884.143	22649
884.269	22873
884.395	22417
884.52	22470
884.646	22527
884.772	22443
884.897	22299
885.023	22455
885.148	22474
885.274	22459
885.399	22363
885.524	22253
885.65	22173
885.775	22048
885.9	21926
886.025	22059
886.15	21732
886.275	21656
886.4	21485
886.525	21416
886.65	21321
886.775	21256
886.9	21332
887.025	21279
887.149	21028
887.274	20834
887.399	20533
887.523	20602
887.648	20556
887.773	20305
887.897	20552
888.021	20492
888.146	20400
888.27	20469
888.395	20336
888.519	20313
888.643	20290
888.767	20218
888.891	20119
889.015	19887
889.139	19936
889.263	19742
889.387	19940
889.511	20073
889.635	19890
889.759	19738
889.883	19700
890.006	19731
890.13	19757
890.254	19635
890.377	19529
890.501	19365
890.624	19468
890.748	19457
890.871	19213
890.995	19247
891.118	19099
891.241	19107
891.364	19118
891.488	19259
891.611	19027
891.734	18939
891.857	19042
891.98	18875
892.103	19069
892.226	18943
892.349	18829
892.471	18768
892.594	18840
892.717	18787
892.839	18696
892.962	18658
893.085	18848
893.207	18661
893.33	18536
893.452	18719
893.575	18631
893.697	18612
893.819	18821
893.941	18795
894.064	18734
894.186	18601
894.308	18604
894.43	18574
894.552	18627
894.674	18494
894.796	18525
894.918	18357
895.04	18308
895.161	18486
895.283	18395
895.405	18258
895.526	18384
895.648	18429
895.769	18521
895.891	18372
896.012	18517
896.134	18509
896.255	18464
896.376	18235
896.498	18361
896.619	18467
896.74	18342
896.861	18532
896.982	18700
897.103	18821
897.224	18795
897.345	18620
897.466	18426
897.587	18540
897.708	18787
897.828	18540
897.949	18494
898.07	18296
898.19	18456
898.311	18620
898.431	18540
898.552	18612
898.672	18559
898.792	18528
898.913	18551
899.033	18395
899.153	18429
899.273	18251
899.393	18251
899.513	18327
899.633	18327
899.753	18239
899.873	18365
899.993	18330
900.113	18289
900.232	18372
900.352	18281
900.472	18304
900.591	18117
900.711	18079
900.83	18144
900.95	18174
901.069	18201
901.189	18106
901.308	17809
901.427	17771
901.546	17794
901.665	17802
901.784	17722
901.904	17585
902.023	17414
902.141	17227
902.26	17216
902.379	17284
902.498	17208
902.617	17181
902.735	17151
902.854	17193
902.973	17113
903.091	16805
903.21	16858
903.328	16740
903.446	16755
903.565	16634
903.683	16637
903.801	16478
903.919	16459
904.038	16637
904.156	16333
904.274	16398
904.392	16360
904.51	16398
904.627	16303
904.745	16341
904.863	16428
904.981	16071
905.098	15960
905.216	15949
905.334	16036
905.451	16044
905.569	15899
905.686	16040
905.803	15994
905.921	15857
906.038	15987
906.155	15899
906.272	15747
906.389	15690
906.506	15538
906.623	15473
906.74	15500
906.857	15344
906.974	15424
907.091	15587
907.208	15644
907.324	15549
907.441	15439
907.557	15386
907.674	15226
907.79	15108
907.907	15237
908.023	15165
908.139	15279
908.256	15154
908.372	15104
908.488	15070
908.604	15024
908.72	14933
908.836	14986
908.952	14918
909.068	14902
909.184	14899
909.3	14918
909.415	14834
909.531	14921
909.647	14689
909.762	14598
909.878	14644
909.993	14632
910.108	14686
910.224	14560
910.339	14606
910.454	14552
910.57	14431
910.685	14396
910.8	14712
910.915	14594
911.03	14446
911.145	14294
911.259	14328
911.374	14328
911.489	14218
911.604	14183
911.718	14039
911.833	14039
911.947	13970
912.062	13830
912.176	14001
912.291	14069
912.405	14016
912.519	14229
912.633	14278
912.748	14069
912.862	14069
912.976	13830
913.09	13704
913.204	13879
913.318	13909
913.431	13871
913.545	13947
913.659	13879
913.772	13894
913.886	13757
914	13632
914.113	13769
914.226	13807
914.34	13715
914.453	13567
914.566	13814
914.68	13578
914.793	13567
914.906	13411
915.019	13301
915.132	13289
915.245	13304
915.358	13430
915.47	13362
915.583	13381
915.696	13449
915.809	13422
915.921	13533
916.034	13331
916.146	13430
916.259	13285
916.371	13396
916.483	13297
916.595	13266
916.708	13403
916.82	13339
916.932	13244
917.044	13236
917.156	13312
917.268	13171
917.38	13137
917.491	13107
917.603	13088
917.715	13221
917.826	13190
917.938	13038
918.049	13038
918.161	13050
918.272	13110
918.384	13110
918.495	13046
918.606	12829
918.717	12840
918.828	12897
918.939	12928
919.05	12703
919.161	12700
919.272	12631
919.383	12764
919.494	12890
919.604	13088
919.715	12795
919.826	12825
919.936	12726
920.047	12829
920.157	12897
920.267	12939
920.378	12837
920.488	12783
920.598	13000
920.708	13061
920.818	12920
920.928	12905
921.038	13145
921.148	13095
921.258	12715
921.368	12692
921.477	12551
921.587	12498
921.697	12365
921.806	12559
921.916	12395
922.025	12361
922.134	12292
922.244	12235
922.353	12220
922.462	12064
922.571	12079
922.68	11954
922.789	11950
922.898	11904
923.007	11790
923.116	11847
923.224	11931
923.333	11920
923.442	11752
923.55	11729
923.659	11733
923.767	11783
923.876	11726
923.984	11729
924.092	11638
924.201	11775
924.309	11718
924.417	11672
924.525	11718
924.633	11680
924.741	12311
924.849	11440
924.956	11554
925.064	11398
925.172	11383
925.279	11376
925.387	11410
925.494	11414
925.602	11509
925.709	11433
925.816	11444
925.924	11395
926.031	11440
926.138	11417
926.245	11368
926.352	11216
926.459	11402
926.566	11512
926.673	11383
926.779	11220
926.886	11220
926.993	11075
927.099	11079
927.206	10949
927.312	10957
927.419	11033
927.525	11018
927.631	11056
927.737	10889
927.843	10881
927.95	10729
928.056	10790
928.162	10854
928.267	10854
928.373	11436
928.479	10900
928.585	10771
928.69	10915
928.796	10828
928.901	10714
929.007	10626
929.112	10782
929.218	10733
929.323	10710
929.428	10626
929.533	10782
929.638	10531
929.743	10634
929.848	10630
929.953	10565
930.058	10542
930.163	10405
930.267	10299
930.372	10527
930.477	10295
930.581	10561
930.685	10402
930.79	10185
930.894	10310
930.998	10284
931.103	10394
931.207	9983
931.311	10002
931.415	9915
931.519	9671
931.623	9675
