Data from test_V78500241_991.txt Node
Date: Fri Mar 25 14:40:37 CST 2022
User: usil
Spectrometer: V785-0024
Trigger mode: 0
Integration Time (sec): 4.000000E-1
Scans to average: 1
Nonlinearity correction enabled: false
Boxcar width: 0
Storing dark spectrum: false
XAxis mode: Wavelengths
Number of Pixels in Spectrum: 1024
>>>>>Begin Spectral Data<<<<<
801.071	23277
801.214	23075
801.356	22896
801.499	22679
801.641	22519
801.783	22561
801.926	22622
802.068	22470
802.211	22398
802.353	22424
802.496	22177
802.638	22021
802.78	21968
802.923	21888
803.065	21876
803.208	21728
803.35	21937
803.492	22059
803.635	21991
803.777	21892
803.919	21945
804.061	22246
804.204	21922
804.346	21861
804.488	21812
804.63	21907
804.773	21751
804.915	21907
805.057	21876
805.199	21876
805.341	21945
805.483	22093
805.626	22082
805.768	21884
805.91	21937
806.052	21907
806.194	21724
806.336	21998
806.478	22040
806.62	21884
806.762	22021
806.904	22112
807.046	22299
807.188	22291
807.33	22257
807.472	22516
807.614	22375
807.756	22584
807.898	22451
808.04	22394
808.182	22538
808.324	22786
808.465	22980
808.607	23303
808.749	23436
808.891	23783
809.033	23760
809.174	23604
809.316	23311
809.458	23132
809.6	22869
809.741	22801
809.883	22752
810.025	22812
810.166	22702
810.308	22721
810.45	22702
810.591	22538
810.733	22265
810.875	22314
811.016	22173
811.158	22143
811.299	22253
811.441	22246
811.582	22257
811.724	22116
811.865	22078
812.007	22109
812.148	22116
812.29	22131
812.431	22295
812.573	22527
812.714	22516
812.855	22618
812.997	22755
813.138	22831
813.279	22645
813.421	22706
813.562	22500
813.703	22329
813.845	22291
813.986	21831
814.127	21895
814.268	21717
814.41	21675
814.551	21747
814.692	21633
814.833	21595
814.974	21568
815.115	21679
815.256	21408
815.397	21458
815.539	21545
815.68	21344
815.821	21332
815.962	21325
816.103	21306
816.244	21188
816.385	21100
816.526	21047
816.666	20979
816.807	20777
816.948	20815
817.089	20918
817.23	20804
817.371	20769
817.512	20807
817.653	20670
817.793	20773
817.934	20849
818.075	20758
818.216	20845
818.356	20788
818.497	20701
818.638	20530
818.778	20492
818.919	20503
819.06	20526
819.2	20503
819.341	20617
819.481	20625
819.622	20708
819.762	21001
819.903	20948
820.043	20857
820.184	20750
820.324	20708
820.465	20838
820.605	20731
820.746	20724
820.886	20545
821.026	20746
821.167	20716
821.307	20807
821.447	20697
821.588	20530
821.728	20301
821.868	20187
822.008	20027
822.149	20088
822.289	20020
822.429	19807
822.569	19818
822.709	19784
822.849	19597
822.99	19620
823.13	19700
823.27	19563
823.41	19472
823.55	19403
823.69	19415
823.83	19388
823.97	19282
824.11	19190
824.25	19084
824.389	19183
824.529	19324
824.669	19152
824.809	19259
824.949	19304
825.089	19171
825.228	19168
825.368	19012
825.508	18966
825.648	18954
825.787	19031
825.927	19057
826.067	18916
826.206	18947
826.346	18928
826.485	18962
826.625	19008
826.765	18996
826.904	18973
827.044	18810
827.183	18772
827.323	18498
827.462	18760
827.601	18601
827.741	18696
827.88	18631
828.02	18475
828.159	18620
828.298	18707
828.437	18810
828.577	18608
828.716	18673
828.855	18597
828.994	18399
829.134	18448
829.273	18498
829.412	18452
829.551	18330
829.69	18410
829.829	18448
829.968	18582
830.107	18388
830.246	18422
830.385	18251
830.524	18330
830.663	18087
830.802	18076
830.941	18079
831.08	18045
831.219	18022
831.357	18083
831.496	18216
831.635	17939
831.774	17847
831.913	17840
832.051	17756
832.19	17885
832.329	17843
832.467	17771
832.606	17611
832.744	17729
832.883	17604
833.022	17680
833.16	17718
833.299	17783
833.437	17851
833.576	17828
833.714	17729
833.852	17817
833.991	17821
834.129	17965
834.267	17824
834.406	17767
834.544	17828
834.682	17783
834.821	17764
834.959	17908
835.097	17760
835.235	17764
835.373	17786
835.511	17699
835.65	17672
835.788	17783
835.926	17532
836.064	17512
836.202	17490
836.34	17623
836.478	17684
836.615	17589
836.753	17589
836.891	17691
837.029	17707
837.167	17592
837.305	17577
837.443	17490
837.58	17379
837.718	17558
837.856	17528
837.993	17463
838.131	17444
838.269	17326
838.406	17444
838.544	17345
838.681	17216
838.819	17204
838.956	17064
839.094	16991
839.231	17075
839.369	17140
839.506	17512
839.643	17239
839.781	17003
839.918	16987
840.055	17041
840.193	17022
840.33	17071
840.467	16946
840.604	16968
840.742	17269
840.879	16828
841.016	16957
841.153	16915
841.29	17128
841.427	17094
841.564	16965
841.701	17071
841.838	17022
841.975	16892
842.112	16896
842.249	16786
842.385	16774
842.522	16938
842.659	16782
842.796	16736
842.933	16862
843.069	16740
843.206	16771
843.343	16771
843.479	16717
843.616	16733
843.752	16584
843.889	16546
844.025	16740
844.162	16649
844.298	16584
844.435	16603
844.571	16527
844.708	16683
844.844	16645
844.98	16729
845.117	16698
845.253	16774
845.389	16759
845.525	17033
845.661	17208
845.798	17512
845.934	17904
846.07	17958
846.206	18053
846.342	17802
846.478	17220
846.614	16820
846.75	16440
846.886	16246
847.022	16265
847.158	16177
847.294	16219
847.429	16181
847.565	16158
847.701	16299
847.837	15888
847.972	15804
848.108	15972
848.244	16029
848.379	15766
848.515	15717
848.65	15545
848.786	15732
848.921	15770
849.057	15823
849.192	15819
849.328	15759
849.463	15717
849.598	15599
849.734	15633
849.869	15606
850.004	15408
850.14	15507
850.275	15416
850.41	15340
850.545	15397
850.68	15382
850.815	15504
850.95	15466
851.085	15637
851.22	15397
851.355	15428
851.49	15450
851.625	15447
851.76	15382
851.895	15370
852.03	15291
852.165	15412
852.299	15477
852.434	15538
852.569	15439
852.703	15477
852.838	15500
852.973	15656
853.107	15584
853.242	15416
853.376	15249
853.511	15127
853.645	15195
853.78	15370
853.914	15317
854.048	15363
854.183	15169
854.317	15378
854.451	15367
854.585	15211
854.72	15256
854.854	15344
854.988	15184
855.122	15275
855.256	15260
855.39	15283
855.524	15397
855.658	15287
855.792	15310
855.926	15298
856.06	15332
856.194	15355
856.327	15279
856.461	15321
856.595	15260
856.729	15237
856.862	15382
856.996	15275
857.13	15355
857.263	15454
857.397	15378
857.53	15279
857.664	15378
857.797	15405
857.931	15428
858.064	15287
858.197	15397
858.331	15302
858.464	15321
858.597	15199
858.731	15233
858.864	15302
858.997	15264
859.13	15359
859.263	15401
859.396	15340
859.529	15127
859.662	15264
859.795	15245
859.928	15184
860.061	15587
860.194	15424
860.327	15367
860.46	15188
860.592	15564
860.725	15389
860.858	15420
860.99	15260
861.123	15188
861.256	15127
861.388	15344
861.521	15895
861.653	15119
861.786	15085
861.918	15154
862.05	15146
862.183	15211
862.315	15195
862.447	15351
862.58	15230
862.712	15020
862.844	15009
862.976	15089
863.108	15131
863.24	15530
863.372	14929
863.504	15100
863.636	14967
863.768	15097
863.9	15077
864.032	15013
864.164	14998
864.296	15112
864.428	15089
864.559	15123
864.691	15089
864.823	15138
864.954	15085
865.086	15123
865.217	14929
865.349	15039
865.48	15089
865.612	15108
865.743	15119
865.875	15032
866.006	15005
866.137	15017
866.269	15051
866.4	14941
866.531	14899
866.662	14956
866.793	15062
866.924	14933
867.055	15104
867.186	15058
867.317	14948
867.448	14925
867.579	14994
867.71	14948
867.841	14842
867.972	15005
868.103	15017
868.233	14967
868.364	15009
868.495	15142
868.625	15298
868.756	15435
868.886	15142
869.017	15233
869.147	15450
869.278	15363
869.408	15298
869.539	15203
869.669	15359
869.799	15344
869.929	15336
870.06	15336
870.19	15542
870.32	15534
870.45	15614
870.58	15584
870.71	15690
870.84	15850
870.97	15591
871.1	15648
871.23	15861
871.36	15835
871.489	15675
871.619	15808
871.749	15785
871.879	15854
872.008	15941
872.138	15835
872.267	15876
872.397	15644
872.526	15694
872.656	15774
872.785	15599
872.915	15937
873.044	16036
873.173	15953
873.303	15915
873.432	15915
873.561	15968
873.69	15949
873.819	15838
873.948	16086
874.077	15975
874.206	15930
874.335	15956
874.464	16032
874.593	16173
874.722	16109
874.851	16234
874.979	16261
875.108	16230
875.237	16154
875.365	16109
875.494	16158
875.623	16421
875.751	16261
875.88	16322
876.008	16398
876.136	16409
876.265	16649
876.393	16687
876.521	16774
876.65	16771
876.778	16672
876.906	16637
877.034	16558
877.162	16615
877.29	16717
877.418	16729
877.546	16683
877.674	16630
877.802	16748
877.93	16675
878.058	16793
878.185	16656
878.313	16687
878.441	16691
878.568	16596
878.696	16679
878.824	16869
878.951	16942
879.079	17242
879.206	17524
879.333	17459
879.461	17383
879.588	17547
879.715	17600
879.842	17775
879.97	17322
880.097	16995
880.224	16820
880.351	16824
880.478	16778
880.605	16774
880.732	16721
880.859	16919
880.986	16752
881.112	16706
881.239	16462
881.366	16428
881.493	16443
881.619	16390
881.746	16337
881.872	16333
881.999	16314
882.125	16249
882.252	16314
882.378	16371
882.505	16466
882.631	16219
882.757	16215
882.883	16265
883.01	16166
883.136	16032
883.262	15979
883.388	15911
883.514	16211
883.64	16150
883.766	16071
883.892	15907
884.018	15930
884.143	16150
884.269	16265
884.395	15903
884.52	15827
884.646	15698
884.772	15720
884.897	15785
885.023	15827
885.148	15991
885.274	15991
885.399	15884
885.524	15850
885.65	15895
885.775	15899
885.9	15854
886.025	15915
886.15	15888
886.275	15709
886.4	15633
886.525	15762
886.65	15709
886.775	15690
886.9	15873
887.025	15911
887.149	15770
887.274	15587
887.399	15584
887.523	15515
887.648	15507
887.773	15466
887.897	15679
888.021	15572
888.146	15481
888.27	15675
888.395	15622
888.519	15473
888.643	15576
888.767	15591
888.891	15401
889.015	15374
889.139	15386
889.263	15424
889.387	15473
889.511	15511
889.635	15587
889.759	15268
889.883	15249
890.006	15336
890.13	15420
890.254	15306
890.377	15275
890.501	15237
890.624	15055
890.748	15218
890.871	15074
890.995	14994
891.118	15036
891.241	15005
891.364	14956
891.488	15135
891.611	15104
891.734	15112
891.857	15123
891.98	15138
892.103	15112
892.226	15150
892.349	15020
892.471	14830
892.594	15013
892.717	15036
892.839	14902
892.962	15062
893.085	15001
893.207	14937
893.33	14895
893.452	14979
893.575	15013
893.697	14975
893.819	15150
893.941	15123
894.064	15119
894.186	14971
894.308	15047
894.43	15199
894.552	15138
894.674	15066
894.796	14921
894.918	14921
895.04	15074
895.161	15100
895.283	15097
895.405	14929
895.526	15020
895.648	15127
895.769	15131
895.891	15150
896.012	15138
896.134	15146
896.255	15032
896.376	15051
896.498	15135
896.619	15142
896.74	15127
896.861	15233
896.982	15424
897.103	15644
897.224	15389
897.345	15389
897.466	15378
897.587	15367
897.708	15443
897.828	15485
897.949	15317
898.07	15268
898.19	15313
898.311	15545
898.431	15450
898.552	15481
898.672	15568
898.792	15466
898.913	15523
899.033	15367
899.153	15359
899.273	15245
899.393	15230
899.513	15264
899.633	15351
899.753	15317
899.873	15283
899.993	15321
900.113	15214
900.232	15363
900.352	15294
900.472	15180
900.591	15085
900.711	15218
900.83	15123
900.95	15123
901.069	15287
901.189	15135
901.308	14933
901.427	14830
901.546	14727
901.665	14823
901.784	14842
901.904	14697
902.023	14724
902.141	14450
902.26	14358
902.379	14488
902.498	14328
902.617	14309
902.735	14434
902.854	14374
902.973	14271
903.091	14054
903.21	14142
903.328	14180
903.446	13959
903.565	13936
903.683	13894
903.801	13833
903.919	13921
904.038	13970
904.156	13731
904.274	13791
904.392	13636
904.51	13723
904.627	13643
904.745	13765
904.863	13757
904.981	13495
905.098	13407
905.216	13426
905.334	13480
905.451	13384
905.569	13407
905.686	13403
905.803	13381
905.921	13122
906.038	13190
906.155	13270
906.272	13152
906.389	13247
906.506	12966
906.623	13008
906.74	12962
906.857	12901
906.974	12890
907.091	13057
907.208	13061
907.324	13046
907.441	12905
907.557	12726
907.674	12692
907.79	12582
907.907	12700
908.023	12730
908.139	12681
908.256	12627
908.372	12620
908.488	12563
908.604	12490
908.72	12437
908.836	12456
908.952	12525
909.068	12509
909.184	12574
909.3	12467
909.415	12452
909.531	12441
909.647	12171
909.762	12228
909.878	12152
909.993	12213
910.108	12167
910.224	12136
910.339	12190
910.454	12091
910.57	12117
910.685	12041
910.8	12388
910.915	12216
911.03	12034
911.145	11965
911.259	11973
911.374	11916
911.489	11779
911.604	11756
911.718	11646
911.833	11657
911.947	11501
912.062	11516
912.176	11611
912.291	11665
912.405	11680
912.519	11813
912.633	11824
912.748	11646
912.862	11638
912.976	11566
913.09	11448
913.204	11425
913.318	11554
913.431	11619
913.545	11592
913.659	11634
913.772	11398
913.886	11398
914	11353
914.113	11398
914.226	11520
914.34	11429
914.453	11273
914.566	11509
914.68	11341
914.793	11330
914.906	11121
915.019	11060
915.132	10980
915.245	11128
915.358	11185
915.47	11155
915.583	11250
915.696	11174
915.809	11307
915.921	11284
916.034	11105
916.146	11060
916.259	10995
916.371	11147
916.483	11181
916.595	11029
916.708	11025
916.82	11033
916.932	10984
917.044	10999
917.156	10927
917.268	10889
917.38	10942
917.491	10930
917.603	10972
917.715	10961
917.826	11022
917.938	10919
918.049	10835
918.161	10972
918.272	11064
918.384	11083
918.495	10911
918.606	10744
918.717	10820
918.828	10809
918.939	10828
919.05	10698
919.161	10714
919.272	10592
919.383	10660
919.494	10824
919.604	10976
919.715	10782
919.826	10630
919.936	10691
920.047	10790
920.157	10786
920.267	11018
920.378	10710
920.488	10740
920.598	10999
920.708	11174
920.818	11083
920.928	10953
921.038	11197
921.148	11071
921.258	10824
921.368	10786
921.477	10637
921.587	10653
921.697	10474
921.806	10618
921.916	10527
922.025	10428
922.134	10310
922.244	10211
922.353	10371
922.462	10158
922.571	10124
922.68	9949
922.789	10002
922.898	10040
923.007	9964
923.116	10044
923.224	9972
923.333	9926
923.442	9918
923.55	9873
923.659	9960
923.767	9865
923.876	9842
923.984	9964
924.092	9732
924.201	9892
924.309	9865
924.417	9850
924.525	9755
924.633	9865
924.741	10729
924.849	9622
924.956	9781
925.064	9633
925.172	9568
925.279	9618
925.387	9660
925.494	9675
925.602	9793
925.709	9717
925.816	9523
925.924	9595
926.031	9709
926.138	9622
926.245	9595
926.352	9523
926.459	9641
926.566	9682
926.673	9523
926.779	9397
926.886	9431
926.993	9401
927.099	9351
927.206	9268
927.312	9336
927.419	9291
927.525	9306
927.631	9359
927.737	9260
927.843	9138
927.95	9085
928.056	9218
928.162	9233
928.267	9237
928.373	9679
928.479	9302
928.585	9104
928.69	9214
928.796	9245
928.901	9135
929.007	9005
929.112	9131
929.218	9055
929.323	9070
929.428	8960
929.533	9150
929.638	8998
929.743	8975
929.848	9039
929.953	8944
930.058	8899
930.163	8735
930.267	8830
930.372	8872
930.477	8769
930.581	8990
930.685	8849
930.79	8727
930.894	8724
930.998	8720
931.103	8819
931.207	8514
931.311	8423
931.415	8366
931.519	8225
931.623	8168
