Data from test_V78500241_3193.txt Node
Date: Fri Mar 25 14:55:56 CST 2022
User: usil
Spectrometer: V785-0024
Trigger mode: 0
Integration Time (sec): 4.000000E-1
Scans to average: 1
Nonlinearity correction enabled: false
Boxcar width: 0
Storing dark spectrum: false
XAxis mode: Wavelengths
Number of Pixels in Spectrum: 1024
>>>>>Begin Spectral Data<<<<<
801.071	22067
801.214	21953
801.356	21450
801.499	21606
801.641	21355
801.783	21249
801.926	21359
802.068	21370
802.211	21214
802.353	21142
802.496	20899
802.638	20785
802.78	20826
802.923	20815
803.065	20724
803.208	20632
803.35	20678
803.492	20811
803.635	20891
803.777	20743
803.919	20758
804.061	21001
804.204	20739
804.346	20655
804.488	20526
804.63	20746
804.773	20579
804.915	20575
805.057	20769
805.199	20621
805.341	20598
805.483	20712
805.626	20598
805.768	20575
805.91	20564
806.052	20617
806.194	20583
806.336	20750
806.478	20617
806.62	20594
806.762	20670
806.904	20724
807.046	21020
807.188	21039
807.33	20861
807.472	20982
807.614	20834
807.756	20823
807.898	20705
808.04	20651
808.182	20632
808.324	20693
808.465	20727
808.607	20838
808.749	20982
808.891	21039
809.033	21138
809.174	21001
809.316	20861
809.458	20914
809.6	20933
809.741	20960
809.883	21058
810.025	21135
810.166	21154
810.308	21051
810.45	21146
810.591	21005
810.733	20864
810.875	20906
811.016	20663
811.158	20693
811.299	20769
811.441	20872
811.582	20906
811.724	20746
811.865	20655
812.007	20769
812.148	20720
812.29	20735
812.431	20982
812.573	21055
812.714	21127
812.855	21279
812.997	21241
813.138	21408
813.279	21264
813.421	21260
813.562	21169
813.703	21066
813.845	20826
813.986	20575
814.127	20461
814.268	20336
814.41	20305
814.551	20244
814.692	20206
814.833	20206
814.974	20218
815.115	20221
815.256	20088
815.397	20119
815.539	20172
815.68	20031
815.821	19860
815.962	20027
816.103	19932
816.244	19780
816.385	19814
816.526	19734
816.666	19635
816.807	19419
816.948	19540
817.089	19563
817.23	19392
817.371	19438
817.512	19464
817.653	19441
817.793	19278
817.934	19430
818.075	19430
818.216	19396
818.356	19369
818.497	19232
818.638	19000
818.778	19171
818.919	19114
819.06	19213
819.2	19187
819.341	19331
819.481	19400
819.622	19476
819.762	19601
819.903	19571
820.043	19430
820.184	19457
820.324	19202
820.465	19499
820.605	19316
820.746	19312
820.886	19198
821.026	19422
821.167	19308
821.307	19415
821.447	19339
821.588	19179
821.728	19076
821.868	18886
822.008	18791
822.149	18867
822.289	18753
822.429	18616
822.569	18429
822.709	18372
822.849	18300
822.99	18323
823.13	18334
823.27	18228
823.41	18079
823.55	18022
823.69	18038
823.83	18053
823.97	18110
824.11	17961
824.25	17855
824.389	17771
824.529	17939
824.669	17851
824.809	17859
824.949	17866
825.089	17923
825.228	17840
825.368	17745
825.508	17627
825.648	17687
825.787	17630
825.927	17570
826.067	17551
826.206	17687
826.346	17699
826.485	17661
826.625	17570
826.765	17672
826.904	17764
827.044	17429
827.183	17296
827.323	17372
827.462	17303
827.601	17299
827.741	17307
827.88	17349
828.02	17212
828.159	17258
828.298	17455
828.437	17341
828.577	17246
828.716	17391
828.855	17223
828.994	17170
829.134	17197
829.273	17083
829.412	17098
829.551	17083
829.69	17079
829.829	17086
829.968	17151
830.107	17220
830.246	17174
830.385	17143
830.524	17041
830.663	16995
830.802	16710
830.941	16721
831.08	16615
831.219	16885
831.357	16839
831.496	16892
831.635	16694
831.774	16592
831.913	16653
832.051	16508
832.19	16474
832.329	16512
832.467	16394
832.606	16341
832.744	16348
832.883	16466
833.022	16367
833.16	16478
833.299	16382
833.437	16474
833.576	16367
833.714	16508
833.852	16459
833.991	16542
834.129	16531
834.267	16527
834.406	16455
834.544	16626
834.682	16500
834.821	16512
834.959	16649
835.097	16440
835.235	16599
835.373	16535
835.511	16470
835.65	16489
835.788	16405
835.926	16230
836.064	16185
836.202	16223
836.34	16356
836.478	16421
836.615	16424
836.753	16432
836.891	16470
837.029	16470
837.167	16367
837.305	16276
837.443	16295
837.58	16287
837.718	16375
837.856	16287
837.993	16215
838.131	16318
838.269	16150
838.406	16158
838.544	16173
838.681	16017
838.819	15956
838.956	15770
839.094	15739
839.231	15857
839.369	16036
839.506	16268
839.643	16025
839.781	15835
839.918	15789
840.055	15781
840.193	15717
840.33	15800
840.467	15846
840.604	15869
840.742	16048
840.879	15690
841.016	15781
841.153	15766
841.29	15892
841.427	15816
841.564	15880
841.701	15736
841.838	15701
841.975	15720
842.112	15717
842.249	15667
842.385	15622
842.522	15785
842.659	15614
842.796	15599
842.933	15591
843.069	15599
843.206	15580
843.343	15618
843.479	15519
843.616	15595
843.752	15397
843.889	15408
844.025	15466
844.162	15378
844.298	15424
844.435	15291
844.571	15519
844.708	15450
844.844	15553
844.98	15542
845.117	15538
845.253	15382
845.389	15260
845.525	15321
845.661	15279
845.798	15150
845.934	15199
846.07	15089
846.206	15173
846.342	15214
846.478	15161
846.614	14967
846.75	14963
846.886	14933
847.022	15024
847.158	14933
847.294	15070
847.429	15112
847.565	14925
847.701	15237
847.837	14659
847.972	14651
848.108	14689
848.244	14739
848.379	14587
848.515	14564
848.65	14465
848.786	14556
848.921	14465
849.057	14693
849.192	14659
849.328	14560
849.463	14617
849.598	14526
849.734	14541
849.869	14400
850.004	14351
850.14	14362
850.275	14317
850.41	14244
850.545	14324
850.68	14298
850.815	14362
850.95	14286
851.085	14431
851.22	14450
851.355	14347
851.49	14259
851.625	14298
851.76	14301
851.895	14103
852.03	14206
852.165	14317
852.299	14351
852.434	14377
852.569	14377
852.703	14396
852.838	14396
852.973	14522
853.107	14454
853.242	14195
853.376	14157
853.511	14138
853.645	14229
853.78	14393
853.914	14157
854.048	14126
854.183	14134
854.317	14168
854.451	14366
854.585	14145
854.72	14191
854.854	14168
854.988	14088
855.122	14077
855.256	14084
855.39	14157
855.524	14214
855.658	14221
855.792	14218
855.926	14157
856.06	14237
856.194	14305
856.327	14244
856.461	14111
856.595	14199
856.729	14214
856.862	14332
856.996	14267
857.13	14275
857.263	14252
857.397	14351
857.53	14259
857.664	14206
857.797	14282
857.931	14267
858.064	14168
858.197	14301
858.331	14138
858.464	14164
858.597	14096
858.731	14191
858.864	14123
858.997	14119
859.13	14267
859.263	14142
859.396	14244
859.529	14263
859.662	14130
859.795	14103
859.928	14263
860.061	14298
860.194	14377
860.327	14202
860.46	14176
860.592	14218
860.725	14317
860.858	14412
860.99	14149
861.123	14058
861.256	14096
861.388	14206
861.521	14956
861.653	14096
861.786	13898
861.918	14024
862.05	14073
862.183	14065
862.315	14157
862.447	14225
862.58	14126
862.712	13944
862.844	13928
862.976	14039
863.108	14054
863.24	14290
863.372	13932
863.504	14012
863.636	13940
863.768	14035
863.9	13959
864.032	13940
864.164	13936
864.296	14008
864.428	14088
864.559	14161
864.691	14039
864.823	13951
864.954	14050
865.086	13993
865.217	13951
865.349	13849
865.48	14024
865.612	13940
865.743	14081
865.875	14012
866.006	13989
866.137	13890
866.269	13932
866.4	13940
866.531	13917
866.662	13864
866.793	13940
866.924	13951
867.055	13909
867.186	13902
867.317	13864
867.448	13845
867.579	13864
867.71	13769
867.841	13856
867.972	14016
868.103	13871
868.233	13974
868.364	13944
868.495	14050
868.625	14172
868.756	14267
868.886	14126
869.017	14164
869.147	14400
869.278	14275
869.408	14206
869.539	14107
869.669	14313
869.799	14176
869.929	14358
870.06	14305
870.19	14530
870.32	14473
870.45	14530
870.58	14644
870.71	14705
870.84	14701
870.97	14629
871.1	14648
871.23	14743
871.36	14826
871.489	14667
871.619	14765
871.749	14834
871.879	14880
872.008	14861
872.138	14823
872.267	14815
872.397	14697
872.526	14701
872.656	14636
872.785	14636
872.915	14952
873.044	14868
873.173	14861
873.303	14921
873.432	14960
873.561	14899
873.69	14906
873.819	14910
873.948	14948
874.077	14883
874.206	14864
874.335	14876
874.464	14998
874.593	15085
874.722	15062
874.851	15226
874.979	15241
875.108	15226
875.237	15222
875.365	15039
875.494	15180
875.623	15268
875.751	15230
875.88	15180
876.008	15382
876.136	15367
876.265	15542
876.393	15572
876.521	15549
876.65	15519
876.778	15633
876.906	15610
877.034	15542
877.162	15515
877.29	15542
877.418	15553
877.546	15576
877.674	15652
877.802	15549
877.93	15530
878.058	15625
878.185	15481
878.313	15526
878.441	15443
878.568	15351
878.696	15477
878.824	15584
878.951	15473
879.079	15846
879.206	15930
879.333	15705
879.461	15660
879.588	15690
879.715	15709
879.842	15755
879.97	15698
880.097	15473
880.224	15557
880.351	15473
880.478	15420
880.605	15439
880.732	15416
880.859	15614
880.986	15485
881.112	15496
881.239	15321
881.366	15218
881.493	15131
881.619	15081
881.746	15058
881.872	15135
881.999	15020
882.125	15074
882.252	15043
882.378	15226
882.505	15199
882.631	15009
882.757	14868
882.883	14975
883.01	14982
883.136	14864
883.262	14754
883.388	14743
883.514	14963
883.64	14986
883.766	14861
883.892	14686
884.018	14686
884.143	14990
884.269	15005
884.395	14724
884.52	14522
884.646	14648
884.772	14469
884.897	14499
885.023	14678
885.148	14670
885.274	14792
885.399	14750
885.524	14598
885.65	14663
885.775	14575
885.9	14602
886.025	14743
886.15	14655
886.275	14602
886.4	14484
886.525	14613
886.65	14511
886.775	14556
886.9	14724
887.025	14906
887.149	14552
887.274	14446
887.399	14450
887.523	14385
887.648	14377
887.773	14336
887.897	14476
888.021	14552
888.146	14396
888.27	14575
888.395	14571
888.519	14488
888.643	14522
888.767	14590
888.891	14434
889.015	14309
889.139	14457
889.263	14301
889.387	14457
889.511	14431
889.635	14461
889.759	14370
889.883	14324
890.006	14332
890.13	14454
890.254	14225
890.377	14309
890.501	14103
890.624	14115
890.748	14164
890.871	14043
890.995	13993
891.118	13906
891.241	14043
891.364	13989
891.488	14088
891.611	14043
891.734	14035
891.857	14107
891.98	14001
892.103	13978
892.226	14005
892.349	14031
892.471	13852
892.594	14027
892.717	14050
892.839	13947
892.962	14065
893.085	14103
893.207	14062
893.33	13883
893.452	13909
893.575	14077
893.697	13986
893.819	14172
893.941	14210
894.064	14119
894.186	14035
894.308	13993
894.43	14202
894.552	14214
894.674	14180
894.796	13993
894.918	14046
895.04	14077
895.161	14126
895.283	14126
895.405	14050
895.526	14084
895.648	14161
895.769	14142
895.891	14199
896.012	14263
896.134	14286
896.255	14252
896.376	14103
896.498	14248
896.619	14286
896.74	14191
896.861	14187
896.982	14537
897.103	14746
897.224	14431
897.345	14469
897.466	14446
897.587	14533
897.708	14556
897.828	14457
897.949	14381
898.07	14263
898.19	14507
898.311	14598
898.431	14541
898.552	14454
898.672	14537
898.792	14655
898.913	14598
899.033	14434
899.153	14381
899.273	14252
899.393	14400
899.513	14431
899.633	14415
899.753	14469
899.873	14347
899.993	14499
900.113	14427
900.232	14385
900.352	14343
900.472	14305
900.591	14111
900.711	14324
900.83	14290
900.95	14339
901.069	14404
901.189	14256
901.308	14069
901.427	13849
901.546	13982
901.665	13993
901.784	13932
901.904	13772
902.023	13651
902.141	13514
902.26	13472
902.379	13510
902.498	13578
902.617	13453
902.735	13548
902.854	13453
902.973	13365
903.091	13236
903.21	13179
903.328	13255
903.446	13084
903.565	13122
903.683	13084
903.801	13000
903.919	13076
904.038	13034
904.156	12905
904.274	12958
904.392	12863
904.51	13019
904.627	12966
904.745	12890
904.863	12981
904.981	12703
905.098	12593
905.216	12559
905.334	12612
905.451	12582
905.569	12612
905.686	12692
905.803	12547
905.921	12304
906.038	12471
906.155	12448
906.272	12365
906.389	12330
906.506	12136
906.623	12178
906.74	12190
906.857	12087
906.974	12098
907.091	12277
907.208	12232
907.324	12167
907.441	11984
907.557	12022
907.674	11965
907.79	11851
907.907	11916
908.023	11958
908.139	11893
908.256	11889
908.372	11802
908.488	11840
908.604	11722
908.72	11627
908.836	11676
908.952	11661
909.068	11707
909.184	11741
909.3	11646
909.415	11764
909.531	11745
909.647	11463
909.762	11547
909.878	11493
909.993	11436
910.108	11444
910.224	11459
910.339	11436
910.454	11353
910.57	11334
910.685	11231
910.8	11524
910.915	11402
911.03	11383
911.145	11124
911.259	11109
911.374	11170
911.489	11037
911.604	10980
911.718	11003
911.833	10869
911.947	10869
912.062	10786
912.176	10919
912.291	10930
912.405	10957
912.519	11132
912.633	11064
912.748	11003
912.862	10930
912.976	10763
913.09	10687
913.204	10714
913.318	10812
913.431	10934
913.545	10820
913.659	10869
913.772	10801
913.886	10725
914	10721
914.113	10771
914.226	10828
914.34	10755
914.453	10584
914.566	10767
914.68	10637
914.793	10611
914.906	10402
915.019	10390
915.132	10371
915.245	10398
915.358	10333
915.47	10421
915.583	10455
915.696	10402
915.809	10516
915.921	10577
916.034	10360
916.146	10352
916.259	10325
916.371	10523
916.483	10398
916.595	10314
916.708	10322
916.82	10367
916.932	10402
917.044	10310
917.156	10310
917.268	10261
917.38	10219
917.491	10192
917.603	10284
917.715	10295
917.826	10337
917.938	10204
918.049	10128
918.161	10291
918.272	10447
918.384	10428
918.495	10177
918.606	10101
918.717	10040
918.828	10162
918.939	10166
919.05	10055
919.161	10116
919.272	9945
919.383	9991
919.494	10196
919.604	10409
919.715	10166
919.826	10090
919.936	10120
920.047	10230
920.157	10162
920.267	10371
920.378	10139
920.488	10162
920.598	10432
920.708	10500
920.818	10253
920.928	10344
921.038	10516
921.148	10519
921.258	10234
921.368	10093
921.477	10006
921.587	10002
921.697	9903
921.806	10021
921.916	9899
922.025	9766
922.134	9667
922.244	9686
922.353	9743
922.462	9610
922.571	9469
922.68	9393
922.789	9424
922.898	9458
923.007	9393
923.116	9412
923.224	9397
923.333	9447
923.442	9321
923.55	9287
923.659	9283
923.767	9355
923.876	9230
923.984	9397
924.092	9207
924.201	9275
924.309	9298
924.417	9310
924.525	9218
924.633	9253
924.741	10143
924.849	9017
924.956	9192
925.064	9017
925.172	9020
925.279	9066
925.387	9097
925.494	9066
925.602	9241
925.709	9161
925.816	9001
925.924	9017
926.031	9203
926.138	9077
926.245	9146
926.352	8952
926.459	9146
926.566	9207
926.673	9058
926.779	8887
926.886	8880
926.993	8845
927.099	8766
927.206	8716
927.312	8731
927.419	8842
927.525	8796
927.631	8815
927.737	8731
927.843	8663
927.95	8503
928.056	8610
928.162	8674
928.267	8750
928.373	9184
928.479	8807
928.585	8454
928.69	8655
928.796	8708
928.901	8682
929.007	8450
929.112	8568
929.218	8564
929.323	8507
929.428	8541
929.533	8686
929.638	8434
929.743	8484
929.848	8507
929.953	8446
930.058	8434
930.163	8191
930.267	8290
930.372	8450
930.477	8259
930.581	8526
930.685	8358
930.79	8164
930.894	8210
930.998	8206
931.103	8381
931.207	8012
931.311	8001
931.415	7890
931.519	7784
931.623	7780
