Data from test_V78500241_3216.txt Node
Date: Fri Mar 25 14:56:06 CST 2022
User: usil
Spectrometer: V785-0024
Trigger mode: 0
Integration Time (sec): 4.000000E-1
Scans to average: 1
Nonlinearity correction enabled: false
Boxcar width: 0
Storing dark spectrum: false
XAxis mode: Wavelengths
Number of Pixels in Spectrum: 1024
>>>>>Begin Spectral Data<<<<<
801.071	21972
801.214	22002
801.356	21603
801.499	21477
801.641	21431
801.783	21393
801.926	21344
802.068	21260
802.211	21252
802.353	21203
802.496	20910
802.638	20880
802.78	20861
802.923	20743
803.065	20617
803.208	20697
803.35	20781
803.492	20777
803.635	20750
803.777	20750
803.919	20762
804.061	21001
804.204	20754
804.346	20731
804.488	20522
804.63	20579
804.773	20545
804.915	20560
805.057	20629
805.199	20556
805.341	20552
805.483	20705
805.626	20530
805.768	20609
805.91	20495
806.052	20651
806.194	20495
806.336	20800
806.478	20480
806.62	20575
806.762	20526
806.904	20758
807.046	20941
807.188	20872
807.33	20921
807.472	21058
807.614	20845
807.756	20872
807.898	20727
808.04	20625
808.182	20663
808.324	20701
808.465	20670
808.607	20906
808.749	20872
808.891	20929
809.033	21112
809.174	20963
809.316	20826
809.458	20982
809.6	20861
809.741	21009
809.883	21017
810.025	21157
810.166	21036
810.308	21150
810.45	21081
810.591	20937
810.733	20899
810.875	20746
811.016	20636
811.158	20632
811.299	20769
811.441	20800
811.582	20914
811.724	20708
811.865	20731
812.007	20731
812.148	20659
812.29	20743
812.431	20971
812.573	21074
812.714	21085
812.855	21195
812.997	21363
813.138	21416
813.279	21370
813.421	21252
813.562	21230
813.703	21001
813.845	20842
813.986	20613
814.127	20415
814.268	20298
814.41	20328
814.551	20301
814.692	20404
814.833	20145
814.974	20244
815.115	20275
815.256	20157
815.397	20142
815.539	20122
815.68	20084
815.821	20054
815.962	20054
816.103	19902
816.244	19871
816.385	19734
816.526	19708
816.666	19559
816.807	19575
816.948	19468
817.089	19514
817.23	19480
817.371	19331
817.512	19339
817.653	19438
817.793	19422
817.934	19415
818.075	19362
818.216	19331
818.356	19320
818.497	19171
818.638	18970
818.778	19084
818.919	19148
819.06	19019
819.2	19232
819.341	19225
819.481	19304
819.622	19495
819.762	19556
819.903	19464
820.043	19502
820.184	19537
820.324	19335
820.465	19358
820.605	19400
820.746	19373
820.886	19198
821.026	19365
821.167	19320
821.307	19282
821.447	19327
821.588	19152
821.728	19145
821.868	19042
822.008	18760
822.149	18867
822.289	18749
822.429	18578
822.569	18486
822.709	18429
822.849	18281
822.99	18247
823.13	18308
823.27	18159
823.41	18102
823.55	17965
823.69	18171
823.83	18125
823.97	17988
824.11	17824
824.25	17855
824.389	17821
824.529	17866
824.669	17866
824.809	17980
824.949	17874
825.089	17950
825.228	17920
825.368	17627
825.508	17611
825.648	17604
825.787	17665
825.927	17661
826.067	17615
826.206	17551
826.346	17611
826.485	17684
826.625	17687
826.765	17726
826.904	17646
827.044	17376
827.183	17421
827.323	17311
827.462	17433
827.601	17349
827.741	17299
827.88	17383
828.02	17200
828.159	17353
828.298	17353
828.437	17433
828.577	17242
828.716	17368
828.855	17307
828.994	17090
829.134	17147
829.273	17010
829.412	17083
829.551	16934
829.69	17147
829.829	17090
829.968	17109
830.107	17010
830.246	17155
830.385	17056
830.524	16984
830.663	16991
830.802	16736
830.941	16687
831.08	16687
831.219	16995
831.357	16763
831.496	17003
831.635	16778
831.774	16649
831.913	16596
832.051	16470
832.19	16436
832.329	16569
832.467	16417
832.606	16375
832.744	16375
832.883	16432
833.022	16417
833.16	16440
833.299	16474
833.437	16424
833.576	16432
833.714	16523
833.852	16542
833.991	16519
834.129	16565
834.267	16470
834.406	16443
834.544	16573
834.682	16417
834.821	16405
834.959	16656
835.097	16432
835.235	16558
835.373	16565
835.511	16424
835.65	16447
835.788	16379
835.926	16322
836.064	16215
836.202	16299
836.34	16333
836.478	16443
836.615	16466
836.753	16394
836.891	16500
837.029	16390
837.167	16257
837.305	16341
837.443	16261
837.58	16291
837.718	16337
837.856	16207
837.993	16272
838.131	16238
838.269	16207
838.406	16226
838.544	16109
838.681	16013
838.819	15956
838.956	15747
839.094	15781
839.231	15888
839.369	15797
839.506	16128
839.643	16086
839.781	15861
839.918	15819
840.055	15869
840.193	15873
840.33	15682
840.467	15888
840.604	15861
840.742	16032
840.879	15736
841.016	15713
841.153	15724
841.29	15846
841.427	15861
841.564	15835
841.701	15941
841.838	15755
841.975	15652
842.112	15724
842.249	15580
842.385	15549
842.522	15797
842.659	15629
842.796	15622
842.933	15671
843.069	15595
843.206	15542
843.343	15549
843.479	15580
843.616	15652
843.752	15424
843.889	15294
844.025	15622
844.162	15279
844.298	15492
844.435	15310
844.571	15287
844.708	15428
844.844	15511
844.98	15488
845.117	15530
845.253	15298
845.389	15256
845.525	15165
845.661	15260
845.798	15184
845.934	15268
846.07	15150
846.206	15249
846.342	15374
846.478	15142
846.614	14956
846.75	14921
846.886	14804
847.022	14979
847.158	14937
847.294	14944
847.429	14895
847.565	14925
847.701	15146
847.837	14720
847.972	14613
848.108	14845
848.244	14796
848.379	14724
848.515	14533
848.65	14499
848.786	14560
848.921	14495
849.057	14663
849.192	14670
849.328	14587
849.463	14571
849.598	14438
849.734	14571
849.869	14454
850.004	14282
850.14	14336
850.275	14347
850.41	14202
850.545	14336
850.68	14263
850.815	14339
850.95	14298
851.085	14480
851.22	14415
851.355	14393
851.49	14339
851.625	14244
851.76	14225
851.895	14218
852.03	14161
852.165	14320
852.299	14336
852.434	14404
852.569	14320
852.703	14298
852.838	14358
852.973	14465
853.107	14461
853.242	14294
853.376	14202
853.511	14077
853.645	14107
853.78	14339
853.914	14145
854.048	14229
854.183	14107
854.317	14191
854.451	14278
854.585	14183
854.72	14100
854.854	14206
854.988	14039
855.122	14191
855.256	14024
855.39	14065
855.524	14240
855.658	14298
855.792	14202
855.926	14275
856.06	14240
856.194	14206
856.327	14126
856.461	14130
856.595	14172
856.729	14176
856.862	14298
856.996	14229
857.13	14275
857.263	14267
857.397	14237
857.53	14172
857.664	14202
857.797	14248
857.931	14278
858.064	14191
858.197	14229
858.331	14229
858.464	14100
858.597	14130
858.731	14191
858.864	14142
858.997	14214
859.13	14225
859.263	14142
859.396	14301
859.529	14142
859.662	14103
859.795	14172
859.928	14214
860.061	14377
860.194	14320
860.327	14199
860.46	14134
860.592	14355
860.725	14336
860.858	14290
860.99	14195
861.123	14073
861.256	14107
861.388	14176
861.521	15032
861.653	14100
861.786	14012
861.918	14096
862.05	14187
862.183	14123
862.315	14172
862.447	14244
862.58	14046
862.712	14027
862.844	13902
862.976	13978
863.108	14046
863.24	14446
863.372	13818
863.504	13959
863.636	13944
863.768	13982
863.9	13917
864.032	13803
864.164	13947
864.296	13970
864.428	14107
864.559	14020
864.691	14043
864.823	14039
864.954	14145
865.086	13986
865.217	14020
865.349	13894
865.48	13963
865.612	13963
865.743	14081
865.875	13883
866.006	13982
866.137	14001
866.269	13940
866.4	13974
866.531	13890
866.662	13970
866.793	13871
866.924	13890
867.055	13932
867.186	13879
867.317	13864
867.448	13803
867.579	13883
867.71	13925
867.841	13837
867.972	13890
868.103	14024
868.233	13989
868.364	14046
868.495	14062
868.625	14202
868.756	14282
868.886	14218
869.017	14233
869.147	14237
869.278	14294
869.408	14172
869.539	14259
869.669	14309
869.799	14221
869.929	14358
870.06	14256
870.19	14492
870.32	14533
870.45	14579
870.58	14568
870.71	14689
870.84	14697
870.97	14602
871.1	14495
871.23	14777
871.36	14857
871.489	14629
871.619	14769
871.749	14716
871.879	14948
872.008	14891
872.138	14796
872.267	14697
872.397	14712
872.526	14632
872.656	14644
872.785	14697
872.915	14792
873.044	14876
873.173	14960
873.303	14861
873.432	14899
873.561	15001
873.69	14864
873.819	14796
873.948	15017
874.077	14880
874.206	14739
874.335	14800
874.464	14994
874.593	15135
874.722	15081
874.851	15192
874.979	15146
875.108	15233
875.237	15062
875.365	15100
875.494	15173
875.623	15252
875.751	15222
875.88	15199
876.008	15252
876.136	15443
876.265	15595
876.393	15686
876.521	15663
876.65	15587
876.778	15542
876.906	15561
877.034	15534
877.162	15694
877.29	15523
877.418	15492
877.546	15618
877.674	15572
877.802	15652
877.93	15591
878.058	15572
878.185	15545
878.313	15416
878.441	15523
878.568	15435
878.696	15526
878.824	15618
878.951	15587
879.079	15701
879.206	16017
879.333	15793
879.461	15622
879.588	15755
879.715	15667
879.842	15846
879.97	15614
880.097	15408
880.224	15485
880.351	15538
880.478	15526
880.605	15466
880.732	15378
880.859	15656
880.986	15454
881.112	15500
881.239	15272
881.366	15169
881.493	15157
881.619	15047
881.746	15081
881.872	15001
881.999	15001
882.125	15161
882.252	15127
882.378	15085
882.505	15211
882.631	15047
882.757	14998
882.883	14975
883.01	14830
883.136	14857
883.262	14769
883.388	14769
883.514	14899
883.64	14948
883.766	14941
883.892	14800
884.018	14830
884.143	14864
884.269	14952
884.395	14701
884.52	14568
884.646	14708
884.772	14488
884.897	14606
885.023	14670
885.148	14765
885.274	14773
885.399	14724
885.524	14575
885.65	14617
885.775	14621
885.9	14560
886.025	14750
886.15	14659
886.275	14537
886.4	14575
886.525	14659
886.65	14610
886.775	14552
886.9	14621
887.025	14842
887.149	14708
887.274	14568
887.399	14412
887.523	14393
887.648	14355
887.773	14336
887.897	14564
888.021	14492
888.146	14423
888.27	14583
888.395	14613
888.519	14434
888.643	14465
888.767	14488
888.891	14423
889.015	14374
889.139	14343
889.263	14248
889.387	14393
889.511	14495
889.635	14476
889.759	14271
889.883	14259
890.006	14286
890.13	14336
890.254	14248
890.377	14199
890.501	14191
890.624	13978
890.748	14172
890.871	14035
890.995	13974
891.118	13887
891.241	13993
891.364	14035
891.488	14107
891.611	14031
891.734	14024
891.857	14130
891.98	14096
892.103	14126
892.226	14084
892.349	14039
892.471	13928
892.594	13997
892.717	13989
892.839	13982
892.962	14031
893.085	14058
893.207	14069
893.33	13909
893.452	13894
893.575	14008
893.697	13970
893.819	14168
893.941	14130
894.064	14035
894.186	14065
894.308	14035
894.43	14115
894.552	14309
894.674	14199
894.796	13978
894.918	14039
895.04	14001
895.161	14161
895.283	14142
895.405	13986
895.526	14077
895.648	14046
895.769	14225
895.891	14161
896.012	14176
896.134	14111
896.255	14195
896.376	14115
896.498	14081
896.619	14172
896.74	14183
896.861	14267
896.982	14499
897.103	14659
897.224	14522
897.345	14419
897.466	14412
897.587	14431
897.708	14511
897.828	14552
897.949	14492
898.07	14317
898.19	14461
898.311	14587
898.431	14488
898.552	14518
898.672	14659
898.792	14564
898.913	14556
899.033	14423
899.153	14427
899.273	14362
899.393	14358
899.513	14412
899.633	14336
899.753	14434
899.873	14366
899.993	14469
900.113	14415
900.232	14431
900.352	14282
900.472	14294
900.591	14263
900.711	14252
900.83	14168
900.95	14294
901.069	14358
901.189	14206
901.308	13940
901.427	13936
901.546	13894
901.665	13955
901.784	13902
901.904	13837
902.023	13742
902.141	13518
902.26	13460
902.379	13658
902.498	13468
902.617	13358
902.735	13544
902.854	13483
902.973	13415
903.091	13247
903.21	13179
903.328	13190
903.446	13095
903.565	13084
903.683	13122
903.801	12951
903.919	13069
904.038	13206
904.156	12897
904.274	13012
904.392	12882
904.51	12878
904.627	12905
904.745	12875
904.863	12958
904.981	12681
905.098	12639
905.216	12593
905.334	12521
905.451	12608
905.569	12502
905.686	12540
905.803	12627
905.921	12384
906.038	12540
906.155	12388
906.272	12350
906.389	12311
906.506	12178
906.623	12159
906.74	12190
906.857	12007
906.974	12144
907.091	12232
907.208	12353
907.324	12239
907.441	12102
907.557	11984
907.674	11980
907.79	11866
907.907	11817
908.023	12034
908.139	11946
908.256	11988
908.372	11870
908.488	11771
908.604	11688
908.72	11627
908.836	11748
908.952	11703
909.068	11665
909.184	11802
909.3	11695
909.415	11710
909.531	11653
909.647	11543
909.762	11433
909.878	11474
909.993	11482
910.108	11463
910.224	11436
910.339	11376
910.454	11353
910.57	11311
910.685	11254
910.8	11532
910.915	11497
911.03	11315
911.145	11216
911.259	11113
911.374	11181
911.489	11113
911.604	11010
911.718	10866
911.833	10972
911.947	10805
912.062	10736
912.176	10938
912.291	10877
912.405	10953
912.519	11045
912.633	11117
912.748	11037
912.862	10843
912.976	10824
913.09	10675
913.204	10752
913.318	10801
913.431	10923
913.545	10816
913.659	10873
913.772	10706
913.886	10683
914	10675
914.113	10774
914.226	10759
914.34	10771
914.453	10615
914.566	10767
914.68	10634
914.793	10599
914.906	10428
915.019	10402
915.132	10367
915.245	10287
915.358	10466
915.47	10417
915.583	10436
915.696	10428
915.809	10588
915.921	10519
916.034	10478
916.146	10390
916.259	10352
916.371	10436
916.483	10424
916.595	10382
916.708	10386
916.82	10398
916.932	10424
917.044	10413
917.156	10268
917.268	10200
917.38	10139
917.491	10154
917.603	10223
917.715	10348
917.826	10268
917.938	10257
918.049	10154
918.161	10253
918.272	10344
918.384	10253
918.495	10261
918.606	10097
918.717	10112
918.828	10135
918.939	10120
919.05	10112
919.161	10032
919.272	9972
919.383	10048
919.494	10166
919.604	10310
919.715	10192
919.826	10067
919.936	10192
920.047	10219
920.157	10173
920.267	10344
920.378	10196
920.488	10128
920.598	10310
920.708	10497
920.818	10306
920.928	10352
921.038	10531
921.148	10466
921.258	10207
921.368	10124
921.477	9964
921.587	9953
921.697	9865
921.806	10029
921.916	9884
922.025	9728
922.134	9747
922.244	9698
922.353	9778
922.462	9595
922.571	9496
922.68	9420
922.789	9302
922.898	9397
923.007	9386
923.116	9447
923.224	9477
923.333	9408
923.442	9268
923.55	9218
923.659	9329
923.767	9302
923.876	9302
923.984	9317
924.092	9256
924.201	9241
924.309	9272
924.417	9317
924.525	9211
924.633	9268
924.741	10120
924.849	9077
924.956	9214
925.064	9066
925.172	9001
925.279	9005
925.387	9108
925.494	9085
925.602	9150
925.709	9218
925.816	9013
925.924	9005
926.031	9157
926.138	9138
926.245	9161
926.352	9005
926.459	9119
926.566	9211
926.673	9043
926.779	8921
926.886	8944
926.993	8758
927.099	8731
927.206	8689
927.312	8697
927.419	8864
927.525	8807
927.631	8819
927.737	8758
927.843	8659
927.95	8564
928.056	8606
928.162	8655
928.267	8746
928.373	9184
928.479	8773
928.585	8556
928.69	8716
928.796	8716
928.901	8579
929.007	8461
929.112	8587
929.218	8571
929.323	8469
929.428	8454
929.533	8632
929.638	8473
929.743	8396
929.848	8568
929.953	8560
930.058	8484
930.163	8256
930.267	8275
930.372	8366
930.477	8252
930.581	8492
930.685	8400
930.79	8145
930.894	8240
930.998	8145
931.103	8305
931.207	7978
931.311	7967
931.415	7830
931.519	7734
931.623	7734
