Data from test_V78500241_1947.txt Node
Date: Fri Mar 25 14:47:16 CST 2022
User: usil
Spectrometer: V785-0024
Trigger mode: 0
Integration Time (sec): 4.000000E-1
Scans to average: 1
Nonlinearity correction enabled: false
Boxcar width: 0
Storing dark spectrum: false
XAxis mode: Wavelengths
Number of Pixels in Spectrum: 1024
>>>>>Begin Spectral Data<<<<<
801.071	22032
801.214	22017
801.356	21713
801.499	21564
801.641	21458
801.783	21443
801.926	21412
802.068	21428
802.211	21363
802.353	21272
802.496	21062
802.638	20929
802.78	20937
802.923	20857
803.065	20819
803.208	20769
803.35	20823
803.492	20914
803.635	20944
803.777	20655
803.919	20777
804.061	21100
804.204	20864
804.346	20853
804.488	20731
804.63	20667
804.773	20720
804.915	20594
805.057	20804
805.199	20632
805.341	20693
805.483	20815
805.626	20773
805.768	20636
805.91	20640
806.052	20609
806.194	20625
806.336	20921
806.478	20724
806.62	20533
806.762	20739
806.904	20876
807.046	21028
807.188	21043
807.33	21017
807.472	21104
807.614	20906
807.756	20872
807.898	20746
808.04	20724
808.182	20629
808.324	20762
808.465	20796
808.607	20929
808.749	21096
808.891	21146
809.033	21241
809.174	21024
809.316	20975
809.458	21058
809.6	21077
809.741	21066
809.883	21161
810.025	21230
810.166	21264
810.308	21241
810.45	21123
810.591	21116
810.733	20853
810.875	20804
811.016	20648
811.158	20587
811.299	20823
811.441	20857
811.582	20845
811.724	20944
811.865	20727
812.007	20796
812.148	20853
812.29	20826
812.431	20990
812.573	21142
812.714	21272
812.855	21397
812.997	21386
813.138	21462
813.279	21370
813.421	21306
813.562	21214
813.703	21055
813.845	20944
813.986	20743
814.127	20499
814.268	20400
814.41	20408
814.551	20366
814.692	20419
814.833	20229
814.974	20450
815.115	20355
815.256	20168
815.397	20263
815.539	20187
815.68	20119
815.821	20001
815.962	20092
816.103	20119
816.244	19864
816.385	19970
816.526	19780
816.666	19647
816.807	19556
816.948	19734
817.089	19681
817.23	19506
817.371	19597
817.512	19563
817.653	19518
817.793	19518
817.934	19468
818.075	19544
818.216	19506
818.356	19495
818.497	19171
818.638	19179
818.778	19209
818.919	19114
819.06	19263
819.2	19301
819.341	19415
819.481	19384
819.622	19438
819.762	19616
819.903	19639
820.043	19540
820.184	19384
820.324	19502
820.465	19594
820.605	19533
820.746	19480
820.886	19301
821.026	19460
821.167	19578
821.307	19472
821.447	19407
821.588	19289
821.728	19179
821.868	19175
822.008	18772
822.149	18738
822.289	18909
822.429	18646
822.569	18528
822.709	18483
822.849	18429
822.99	18414
823.13	18445
823.27	18311
823.41	18285
823.55	18289
823.69	18311
823.83	18144
823.97	18232
824.11	17942
824.25	17923
824.389	17882
824.529	17901
824.669	18015
824.809	18220
824.949	18041
825.089	17965
825.228	17969
825.368	17836
825.508	17737
825.648	17817
825.787	17855
825.927	17733
826.067	17737
826.206	17745
826.346	17748
826.485	17760
826.625	17722
826.765	17824
826.904	17726
827.044	17478
827.183	17471
827.323	17398
827.462	17524
827.601	17509
827.741	17474
827.88	17444
828.02	17372
828.159	17395
828.298	17512
828.437	17619
828.577	17376
828.716	17642
828.855	17474
828.994	17288
829.134	17189
829.273	17277
829.412	17079
829.551	17067
829.69	17231
829.829	17212
829.968	17334
830.107	17235
830.246	17117
830.385	17128
830.524	17220
830.663	17037
830.802	16946
830.941	16767
831.08	16820
831.219	16953
831.357	16934
831.496	17064
831.635	16854
831.774	16717
831.913	16767
832.051	16558
832.19	16546
832.329	16672
832.467	16580
832.606	16413
832.744	16413
832.883	16626
833.022	16523
833.16	16615
833.299	16645
833.437	16637
833.576	16618
833.714	16497
833.852	16683
833.991	16588
834.129	16626
834.267	16687
834.406	16565
834.544	16558
834.682	16580
834.821	16653
834.959	16713
835.097	16497
835.235	16660
835.373	16561
835.511	16596
835.65	16523
835.788	16447
835.926	16322
836.064	16356
836.202	16314
836.34	16500
836.478	16577
836.615	16440
836.753	16561
836.891	16622
837.029	16512
837.167	16527
837.305	16428
837.443	16443
837.58	16440
837.718	16462
837.856	16470
837.993	16360
838.131	16360
838.269	16249
838.406	16268
838.544	16219
838.681	16078
838.819	15979
838.956	15934
839.094	15972
839.231	15941
839.369	16010
839.506	16287
839.643	16124
839.781	15922
839.918	15941
840.055	15972
840.193	15895
840.33	15854
840.467	15945
840.604	15892
840.742	16173
840.879	15770
841.016	15850
841.153	15785
841.29	16090
841.427	15972
841.564	15987
841.701	15972
841.838	15880
841.975	15892
842.112	15854
842.249	15717
842.385	15743
842.522	15797
842.659	15804
842.796	15755
842.933	15633
843.069	15724
843.206	15629
843.343	15781
843.479	15774
843.616	15724
843.752	15485
843.889	15526
844.025	15667
844.162	15549
844.298	15686
844.435	15526
844.571	15408
844.708	15557
844.844	15675
844.98	15679
845.117	15580
845.253	15488
845.389	15386
845.525	15428
845.661	15386
845.798	15252
845.934	15397
846.07	15321
846.206	15397
846.342	15450
846.478	15405
846.614	15131
846.75	15055
846.886	15013
847.022	15062
847.158	15043
847.294	15154
847.429	15131
847.565	15104
847.701	15310
847.837	14838
847.972	14651
848.108	14921
848.244	14842
848.379	14678
848.515	14693
848.65	14644
848.786	14598
848.921	14640
849.057	14781
849.192	14739
849.328	14785
849.463	14636
849.598	14670
849.734	14575
849.869	14568
850.004	14450
850.14	14427
850.275	14495
850.41	14419
850.545	14393
850.68	14412
850.815	14492
850.95	14370
851.085	14587
851.22	14518
851.355	14473
851.49	14396
851.625	14434
851.76	14377
851.895	14324
852.03	14339
852.165	14469
852.299	14404
852.434	14446
852.569	14412
852.703	14465
852.838	14564
852.973	14590
853.107	14552
853.242	14457
853.376	14339
853.511	14221
853.645	14336
853.78	14480
853.914	14412
854.048	14377
854.183	14351
854.317	14412
854.451	14419
854.585	14328
854.72	14370
854.854	14415
854.988	14339
855.122	14339
855.256	14134
855.39	14313
855.524	14469
855.658	14427
855.792	14385
855.926	14252
856.06	14457
856.194	14415
856.327	14286
856.461	14233
856.595	14221
856.729	14294
856.862	14480
856.996	14415
857.13	14461
857.263	14511
857.397	14503
857.53	14377
857.664	14377
857.797	14457
857.931	14587
858.064	14374
858.197	14461
858.331	14362
858.464	14229
858.597	14286
858.731	14396
858.864	14347
858.997	14271
859.13	14423
859.263	14442
859.396	14480
859.529	14332
859.662	14412
859.795	14336
859.928	14499
860.061	14568
860.194	14583
860.327	14408
860.46	14408
860.592	14442
860.725	14473
860.858	14404
860.99	14282
861.123	14233
861.256	14320
861.388	14442
861.521	15116
861.653	14267
861.786	14172
861.918	14218
862.05	14229
862.183	14347
862.315	14457
862.447	14419
862.58	14343
862.712	14210
862.844	14069
862.976	14149
863.108	14191
863.24	14438
863.372	14081
863.504	14240
863.636	14180
863.768	14282
863.9	14103
864.032	14050
864.164	14126
864.296	14145
864.428	14199
864.559	14199
864.691	14100
864.823	14210
864.954	14126
865.086	14225
865.217	14077
865.349	14069
865.48	14081
865.612	14130
865.743	14271
865.875	14187
866.006	14145
866.137	14100
866.269	14069
866.4	14043
866.531	14073
866.662	13993
866.793	14084
866.924	14123
867.055	14119
867.186	14157
867.317	14084
867.448	14077
867.579	14123
867.71	14172
867.841	13982
867.972	13970
868.103	14084
868.233	14069
868.364	14107
868.495	14225
868.625	14320
868.756	14423
868.886	14332
869.017	14415
869.147	14507
869.278	14389
869.408	14442
869.539	14351
869.669	14526
869.799	14457
869.929	14408
870.06	14461
870.19	14583
870.32	14716
870.45	14590
870.58	14811
870.71	14819
870.84	14842
870.97	14636
871.1	14765
871.23	14986
871.36	14857
871.489	14967
871.619	14933
871.749	14937
871.879	14960
872.008	15036
872.138	14990
872.267	14853
872.397	14765
872.526	14811
872.656	14804
872.785	14758
872.915	15013
873.044	15074
873.173	15009
873.303	14986
873.432	14979
873.561	15127
873.69	14975
873.819	15051
873.948	15112
874.077	14952
874.206	14933
874.335	15055
874.464	15173
874.593	15260
874.722	15351
874.851	15374
874.979	15348
875.108	15370
875.237	15306
875.365	15203
875.494	15272
875.623	15424
875.751	15283
875.88	15306
876.008	15519
876.136	15599
876.265	15728
876.393	15873
876.521	15762
876.65	15873
876.778	15682
876.906	15656
877.034	15644
877.162	15648
877.29	15606
877.418	15728
877.546	15701
877.674	15717
877.802	15690
877.93	15892
878.058	15774
878.185	15732
878.313	15709
878.441	15694
878.568	15568
878.696	15713
878.824	15713
878.951	15850
879.079	15892
879.206	16002
879.333	15880
879.461	15827
879.588	15895
879.715	16029
879.842	15983
879.97	15747
880.097	15637
880.224	15587
880.351	15572
880.478	15591
880.605	15584
880.732	15584
880.859	15789
880.986	15526
881.112	15610
881.239	15515
881.366	15336
881.493	15370
881.619	15199
881.746	15275
881.872	15268
881.999	15157
882.125	15233
882.252	15294
882.378	15275
882.505	15325
882.631	15161
882.757	15013
882.883	15176
883.01	14971
883.136	15058
883.262	14929
883.388	14960
883.514	15119
883.64	15157
883.766	15001
883.892	14914
884.018	14872
884.143	14906
884.269	15135
884.395	14826
884.52	14613
884.646	14845
884.772	14693
884.897	14598
885.023	14823
885.148	14849
885.274	14864
885.399	14849
885.524	14682
885.65	14807
885.775	14872
885.9	14682
886.025	14906
886.15	14921
886.275	14697
886.4	14640
886.525	14686
886.65	14667
886.775	14693
886.9	14906
887.025	15013
887.149	14788
887.274	14617
887.399	14476
887.523	14583
887.648	14598
887.773	14488
887.897	14655
888.021	14708
888.146	14590
888.27	14632
888.395	14659
888.519	14724
888.643	14708
888.767	14663
888.891	14552
889.015	14473
889.139	14514
889.263	14495
889.387	14617
889.511	14727
889.635	14552
889.759	14492
889.883	14404
890.006	14423
890.13	14571
890.254	14339
890.377	14473
890.501	14336
890.624	14191
890.748	14351
890.871	14187
890.995	14199
891.118	14024
891.241	14103
891.364	14088
891.488	14237
891.611	14119
891.734	14267
891.857	14252
891.98	14153
892.103	14214
892.226	14259
892.349	14130
892.471	14035
892.594	14210
892.717	14157
892.839	14050
892.962	14180
893.085	14252
893.207	14164
893.33	14008
893.452	14016
893.575	14339
893.697	14161
893.819	14275
893.941	14374
894.064	14324
894.186	14084
894.308	14073
894.43	14240
894.552	14381
894.674	14259
894.796	14130
894.918	14172
895.04	14069
895.161	14271
895.283	14301
895.405	14324
895.526	14290
895.648	14221
895.769	14275
895.891	14328
896.012	14278
896.134	14427
896.255	14351
896.376	14301
896.498	14187
896.619	14362
896.74	14343
896.861	14499
896.982	14655
897.103	14861
897.224	14541
897.345	14571
897.466	14480
897.587	14583
897.708	14682
897.828	14610
897.949	14469
898.07	14495
898.19	14461
898.311	14621
898.431	14552
898.552	14716
898.672	14625
898.792	14880
898.913	14705
899.033	14594
899.153	14492
899.273	14465
899.393	14511
899.513	14503
899.633	14530
899.753	14495
899.873	14503
899.993	14598
900.113	14507
900.232	14522
900.352	14469
900.472	14488
900.591	14286
900.711	14343
900.83	14385
900.95	14431
901.069	14541
901.189	14339
901.308	14081
901.427	14024
901.546	13951
901.665	14043
901.784	14027
901.904	13974
902.023	13826
902.141	13746
902.26	13597
902.379	13590
902.498	13510
902.617	13529
902.735	13609
902.854	13655
902.973	13552
903.091	13411
903.21	13278
903.328	13354
903.446	13232
903.565	13149
903.683	13194
903.801	13145
903.919	13099
904.038	13145
904.156	12996
904.274	13065
904.392	13027
904.51	12966
904.627	12996
904.745	13122
904.863	13084
904.981	12844
905.098	12688
905.216	12700
905.334	12741
905.451	12696
905.569	12703
905.686	12703
905.803	12772
905.921	12551
906.038	12646
906.155	12506
906.272	12437
906.389	12471
906.506	12228
906.623	12334
906.74	12285
906.857	12190
906.974	12182
907.091	12296
907.208	12346
907.324	12334
907.441	12216
907.557	12011
907.674	12076
907.79	11916
907.907	12015
908.023	12064
908.139	12114
908.256	12015
908.372	11912
908.488	11920
908.604	11855
908.72	11783
908.836	11771
908.952	11798
909.068	11802
909.184	11923
909.3	11764
909.415	11836
909.531	11783
909.647	11600
909.762	11528
909.878	11558
909.993	11638
910.108	11471
910.224	11493
910.339	11562
910.454	11486
910.57	11436
910.685	11368
910.8	11672
910.915	11589
911.03	11387
911.145	11204
911.259	11223
911.374	11322
911.489	11326
911.604	11124
911.718	11102
911.833	11018
911.947	10980
912.062	10881
912.176	10976
912.291	11098
912.405	10946
912.519	11223
912.633	11220
912.748	11083
912.862	11045
912.976	10869
913.09	10831
913.204	10847
913.318	10869
913.431	10995
913.545	10987
913.659	10968
913.772	10904
913.886	10843
914	10809
914.113	10748
914.226	10930
914.34	10801
914.453	10725
914.566	10847
914.68	10714
914.793	10710
914.906	10577
915.019	10493
915.132	10394
915.245	10538
915.358	10542
915.47	10550
915.583	10535
915.696	10561
915.809	10592
915.921	10717
916.034	10554
916.146	10451
916.259	10497
916.371	10535
916.483	10561
916.595	10405
916.708	10500
916.82	10538
916.932	10356
917.044	10440
917.156	10318
917.268	10356
917.38	10303
917.491	10322
917.603	10405
917.715	10508
917.826	10474
917.938	10398
918.049	10280
918.161	10344
918.272	10447
918.384	10398
918.495	10390
918.606	10303
918.717	10162
918.828	10257
918.939	10261
919.05	10124
919.161	10139
919.272	10029
919.383	10131
919.494	10314
919.604	10424
919.715	10238
919.826	10128
919.936	10223
920.047	10295
920.157	10329
920.267	10455
920.378	10272
920.488	10219
920.598	10398
920.708	10622
920.818	10481
920.928	10329
921.038	10626
921.148	10554
921.258	10207
921.368	10227
921.477	10090
921.587	10101
921.697	9937
921.806	10048
921.916	10093
922.025	9949
922.134	9915
922.244	9804
922.353	9865
922.462	9732
922.571	9671
922.68	9485
922.789	9519
922.898	9580
923.007	9473
923.116	9538
923.224	9587
923.333	9485
923.442	9492
923.55	9340
923.659	9473
923.767	9515
923.876	9344
923.984	9443
924.092	9367
924.201	9473
924.309	9405
924.417	9401
924.525	9359
924.633	9313
924.741	10314
924.849	9211
924.956	9355
925.064	9176
925.172	9074
925.279	9195
925.387	9199
925.494	9173
925.602	9264
925.709	9283
925.816	9123
925.924	9146
926.031	9317
926.138	9218
926.245	9249
926.352	9146
926.459	9283
926.566	9279
926.673	9192
926.779	9112
926.886	9013
926.993	8941
927.099	8910
927.206	8838
927.312	8830
927.419	8941
927.525	8925
927.631	8899
927.737	8826
927.843	8796
927.95	8754
928.056	8788
928.162	8853
928.267	8830
928.373	9447
928.479	8872
928.585	8640
928.69	8773
928.796	8864
928.901	8610
929.007	8644
929.112	8788
929.218	8735
929.323	8655
929.428	8583
929.533	8678
929.638	8530
929.743	8575
929.848	8632
929.953	8629
930.058	8473
930.163	8332
930.267	8427
930.372	8484
930.477	8328
930.581	8667
930.685	8454
930.79	8336
930.894	8294
930.998	8328
931.103	8480
931.207	8130
931.311	8027
931.415	8008
931.519	7814
931.623	7788
