Data from test_V78500241_229.txt Node
Date: Fri Mar 25 14:35:19 CST 2022
User: usil
Spectrometer: V785-0024
Trigger mode: 0
Integration Time (sec): 4.000000E-1
Scans to average: 1
Nonlinearity correction enabled: false
Boxcar width: 0
Storing dark spectrum: false
XAxis mode: Wavelengths
Number of Pixels in Spectrum: 1024
>>>>>Begin Spectral Data<<<<<
801.071	27812
801.214	27629
801.356	27450
801.499	27435
801.641	27283
801.783	27157
801.926	27169
802.068	27013
802.211	27017
802.353	26918
802.496	26689
802.638	26697
802.78	26670
802.923	26693
803.065	26568
803.208	26602
803.35	26644
803.492	26769
803.635	26701
803.777	26670
803.919	26807
804.061	26967
804.204	26792
804.346	26564
804.488	26625
804.63	26689
804.773	26667
804.915	26735
805.057	26819
805.199	26621
805.341	26644
805.483	26800
805.626	26724
805.768	26587
805.91	26731
806.052	26670
806.194	26678
806.336	26864
806.478	26750
806.62	26705
806.762	26861
806.904	26807
807.046	27154
807.188	27116
807.33	27009
807.472	27195
807.614	27055
807.756	27051
807.898	27020
808.04	27062
808.182	27199
808.324	27032
808.465	27173
808.607	27313
808.749	27500
808.891	27462
809.033	27606
809.174	27648
809.316	27401
809.458	27515
809.6	27408
809.741	27435
809.883	27367
810.025	27485
810.166	27447
810.308	27515
810.45	27351
810.591	27382
810.733	27199
810.875	27230
811.016	26960
811.158	26979
811.299	27173
811.441	27195
811.582	27161
811.724	26990
811.865	27131
812.007	26952
812.148	27112
812.29	27180
812.431	27237
812.573	27310
812.714	27447
812.855	27519
812.997	27473
813.138	27778
813.279	27751
813.421	27545
813.562	27450
813.703	27336
813.845	27146
813.986	26899
814.127	26838
814.268	26488
814.41	26731
814.551	26762
814.692	26689
814.833	26606
814.974	26564
815.115	26674
815.256	26473
815.397	26625
815.539	26457
815.68	26370
815.821	26221
815.962	26415
816.103	26313
816.244	26267
816.385	25982
816.526	26008
816.666	25940
816.807	25795
816.948	25803
817.089	25814
817.23	25803
817.371	25769
817.512	25757
817.653	25666
817.793	25586
817.934	25734
818.075	25833
818.216	25807
818.356	25628
818.497	25544
818.638	25358
818.778	25514
818.919	25483
819.06	25556
819.2	25685
819.341	25575
819.481	25639
819.622	25803
819.762	25947
819.903	25947
820.043	25757
820.184	25727
820.324	25795
820.465	25902
820.605	25700
820.746	25845
820.886	25533
821.026	25727
821.167	25651
821.307	25674
821.447	25567
821.588	25407
821.728	25381
821.868	25232
822.008	25015
822.149	25019
822.289	25084
822.429	24764
822.569	24779
822.709	24749
822.849	24566
822.99	24627
823.13	24460
823.27	24505
823.41	24327
823.55	24205
823.69	24251
823.83	24380
823.97	24277
824.11	24053
824.25	23958
824.389	24148
824.529	24224
824.669	24053
824.809	24178
824.949	24095
825.089	24289
825.228	24125
825.368	23889
825.508	23946
825.648	23859
825.787	23908
825.927	23836
826.067	23798
826.206	23840
826.346	23855
826.485	24026
826.625	23859
826.765	23889
826.904	23901
827.044	23566
827.183	23531
827.323	23516
827.462	23619
827.601	23543
827.741	23611
827.88	23512
828.02	23299
828.159	23459
828.298	23493
828.437	23581
828.577	23398
828.716	23592
828.855	23524
828.994	23345
829.134	23220
829.273	23299
829.412	23231
829.551	23318
829.69	23197
829.829	23185
829.968	23235
830.107	23318
830.246	23292
830.385	23121
830.524	23193
830.663	23033
830.802	22976
830.941	22744
831.08	22854
831.219	22809
831.357	22828
831.496	22923
831.635	22782
831.774	22618
831.913	22634
832.051	22577
832.19	22447
832.329	22538
832.467	22497
832.606	22402
832.744	22428
832.883	22504
833.022	22424
833.16	22455
833.299	22478
833.437	22474
833.576	22443
833.714	22481
833.852	22508
833.991	22497
834.129	22527
834.267	22428
834.406	22478
834.544	22432
834.682	22295
834.821	22455
834.959	22679
835.097	22394
835.235	22421
835.373	22459
835.511	22394
835.65	22295
835.788	22295
835.926	22154
836.064	22055
836.202	22048
836.34	22238
836.478	22299
836.615	22188
836.753	22226
836.891	22257
837.029	22257
837.167	22188
837.305	22093
837.443	22101
837.58	22097
837.718	22139
837.856	22124
837.993	21930
838.131	22154
838.269	22040
838.406	22002
838.544	21922
838.681	21682
838.819	21663
838.956	21614
839.094	21587
839.231	21576
839.369	21762
839.506	21785
839.643	21857
839.781	21606
839.918	21454
840.055	21504
840.193	21481
840.33	21363
840.467	21469
840.604	21412
840.742	21583
840.879	21329
841.016	21359
841.153	21336
841.29	21614
841.427	21564
841.564	21492
841.701	21439
841.838	21260
841.975	21359
842.112	21344
842.249	21214
842.385	21131
842.522	21412
842.659	21104
842.796	21188
842.933	21180
843.069	21104
843.206	21108
843.343	21150
843.479	21055
843.616	21260
843.752	20883
843.889	20914
844.025	21020
844.162	20941
844.298	20998
844.435	20842
844.571	20819
844.708	20895
844.844	21028
844.98	20975
845.117	20910
845.253	20868
845.389	20921
845.525	20906
845.661	20868
845.798	20948
845.934	21058
846.07	21013
846.206	21085
846.342	21184
846.478	20937
846.614	20564
846.75	20484
846.886	20473
847.022	20511
847.158	20328
847.294	20347
847.429	20358
847.565	20275
847.701	20412
847.837	20092
847.972	19986
848.108	20054
848.244	20145
848.379	19944
848.515	19959
848.65	19898
848.786	19856
848.921	19906
849.057	19921
849.192	19963
849.328	19849
849.463	19849
849.598	19734
849.734	19799
849.869	19776
850.004	19655
850.14	19651
850.275	19597
850.41	19388
850.545	19632
850.68	19651
850.815	19708
850.95	19525
851.085	19685
851.22	19696
851.355	19624
851.49	19518
851.625	19628
851.76	19578
851.895	19403
852.03	19499
852.165	19430
852.299	19628
852.434	19666
852.569	19597
852.703	19434
852.838	19582
852.973	19704
853.107	19708
853.242	19495
853.376	19434
853.511	19297
853.645	19400
853.78	19597
853.914	19445
854.048	19441
854.183	19422
854.317	19415
854.451	19510
854.585	19346
854.72	19259
854.854	19430
854.988	19358
855.122	19346
855.256	19282
855.39	19422
855.524	19491
855.658	19365
855.792	19434
855.926	19381
856.06	19396
856.194	19384
856.327	19403
856.461	19365
856.595	19278
856.729	19373
856.862	19537
856.996	19403
857.13	19491
857.263	19518
857.397	19419
857.53	19381
857.664	19403
857.797	19396
857.931	19426
858.064	19438
858.197	19502
858.331	19422
858.464	19301
858.597	19270
858.731	19339
858.864	19369
858.997	19445
859.13	19495
859.263	19350
859.396	19396
859.529	19266
859.662	19285
859.795	19274
859.928	19556
860.061	19567
860.194	19609
860.327	19358
860.46	19438
860.592	19438
860.725	19426
860.858	19411
860.99	19251
861.123	19217
861.256	19202
861.388	19407
861.521	20001
861.653	19198
861.786	19145
861.918	19293
862.05	19301
862.183	19228
862.315	19468
862.447	19476
862.58	19430
862.712	19099
862.844	19042
862.976	19137
863.108	19160
863.24	19445
863.372	18996
863.504	19080
863.636	19122
863.768	19110
863.9	19190
864.032	18970
864.164	19027
864.296	19084
864.428	19118
864.559	19099
864.691	19137
864.823	19133
864.954	19072
865.086	19088
865.217	19091
865.349	18875
865.48	18897
865.612	18939
865.743	19110
865.875	18973
866.006	18985
866.137	18985
866.269	18943
866.4	18977
866.531	18909
866.662	18886
866.793	18924
866.924	18951
867.055	19069
867.186	19023
867.317	18924
867.448	18730
867.579	18878
867.71	18886
867.841	18856
867.972	18825
868.103	18939
868.233	18943
868.364	18897
868.495	18894
868.625	19027
868.756	19324
868.886	19076
869.017	19091
869.147	19171
869.278	19228
869.408	19221
869.539	19194
869.669	19194
869.799	19304
869.929	19187
870.06	19259
870.19	19396
870.32	19491
870.45	19567
870.58	19491
870.71	19616
870.84	19677
870.97	19480
871.1	19499
871.23	19647
871.36	19799
871.489	19635
871.619	19651
871.749	19826
871.879	19753
872.008	19822
872.138	19769
872.267	19666
872.397	19597
872.526	19521
872.656	19544
872.785	19670
872.915	19753
873.044	19811
873.173	19837
873.303	19761
873.432	19776
873.561	19932
873.69	19788
873.819	19750
873.948	19913
874.077	19822
874.206	19620
874.335	19742
874.464	19928
874.593	20240
874.722	19898
874.851	20046
874.979	20065
875.108	20115
875.237	20012
875.365	19883
875.494	20008
875.623	20138
875.751	20005
875.88	20111
876.008	20259
876.136	20294
876.265	20393
876.393	20495
876.521	20571
876.65	20415
876.778	20541
876.906	20415
877.034	20339
877.162	20438
877.29	20366
877.418	20545
877.546	20526
877.674	20393
877.802	20442
877.93	20370
878.058	20552
878.185	20309
878.313	20427
878.441	20438
878.568	20290
878.696	20438
878.824	20495
878.951	20598
879.079	20686
879.206	20849
879.333	20750
879.461	20670
879.588	20743
879.715	20807
879.842	20986
879.97	20720
880.097	20286
880.224	20358
880.351	20332
880.478	20336
880.605	20332
880.732	20396
880.859	20625
880.986	20442
881.112	20381
881.239	20183
881.366	20092
881.493	19974
881.619	19871
881.746	19967
881.872	19868
881.999	19871
882.125	19871
882.252	20081
882.378	19902
882.505	20027
882.631	19769
882.757	19738
882.883	19814
883.01	19597
883.136	19632
883.262	19594
883.388	19605
883.514	19712
883.64	19681
883.766	19616
883.892	19476
884.018	19457
884.143	19674
884.269	19742
884.395	19407
884.52	19316
884.646	19392
884.772	19343
884.897	19244
885.023	19320
885.148	19434
885.274	19510
885.399	19388
885.524	19388
885.65	19308
885.775	19365
885.9	19225
886.025	19384
886.15	19377
886.275	19225
886.4	19103
886.525	19202
886.65	19152
886.775	19251
886.9	19320
887.025	19453
887.149	19232
887.274	19076
887.399	18996
887.523	18970
887.648	19023
887.773	18909
887.897	19061
888.021	19072
888.146	18981
888.27	19164
888.395	19148
888.519	19114
888.643	19103
888.767	19046
888.891	18973
889.015	18878
889.139	18935
889.263	18802
889.387	18916
889.511	18981
889.635	19076
889.759	18810
889.883	18840
890.006	18791
890.13	18920
890.254	18779
890.377	18616
890.501	18502
890.624	18585
890.748	18665
890.871	18532
890.995	18372
891.118	18330
891.241	18490
891.364	18502
891.488	18570
891.611	18486
891.734	18407
891.857	18471
891.98	18448
892.103	18479
892.226	18448
892.349	18414
892.471	18273
892.594	18338
892.717	18376
892.839	18300
892.962	18399
893.085	18547
893.207	18410
893.33	18254
893.452	18319
893.575	18410
893.697	18357
893.819	18593
893.941	18525
894.064	18471
894.186	18319
894.308	18216
894.43	18456
894.552	18536
894.674	18460
894.796	18197
894.918	18281
895.04	18365
895.161	18490
895.283	18224
895.405	18315
895.526	18452
895.648	18369
895.769	18506
895.891	18475
896.012	18486
896.134	18429
896.255	18414
896.376	18391
896.498	18426
896.619	18490
896.74	18380
896.861	18407
896.982	18707
897.103	18890
897.224	18696
897.345	18684
897.466	18597
897.587	18658
897.708	18684
897.828	18734
897.949	18475
898.07	18517
898.19	18642
898.311	18791
898.431	18639
898.552	18654
898.672	18639
898.792	18738
898.913	18532
899.033	18608
899.153	18418
899.273	18323
899.393	18517
899.513	18540
899.633	18410
899.753	18414
899.873	18327
899.993	18506
900.113	18391
900.232	18369
900.352	18410
900.472	18273
900.591	18133
900.711	18239
900.83	18216
900.95	18361
901.069	18380
901.189	18216
901.308	17977
901.427	17847
901.546	17771
901.665	17920
901.784	17866
901.904	17707
902.023	17653
902.141	17509
902.26	17364
902.379	17509
902.498	17299
902.617	17383
902.735	17311
902.854	17334
902.973	17280
903.091	17033
903.21	17132
903.328	17025
903.446	17102
903.565	16881
903.683	16900
903.801	16786
903.919	16835
904.038	16831
904.156	16710
904.274	16660
904.392	16641
904.51	16592
904.627	16637
904.745	16565
904.863	16713
904.981	16455
905.098	16333
905.216	16238
905.334	16325
905.451	16238
905.569	16173
905.686	16325
905.803	16249
905.921	16101
906.038	16200
906.155	16101
906.272	15953
906.389	16010
906.506	15835
906.623	15762
906.74	15865
906.857	15682
906.974	15778
907.091	15842
907.208	15998
907.324	15800
907.441	15728
907.557	15614
907.674	15473
907.79	15325
907.907	15496
908.023	15523
908.139	15591
908.256	15382
908.372	15332
908.488	15291
908.604	15237
908.72	15161
908.836	15245
908.952	15203
909.068	15294
909.184	15298
909.3	15116
909.415	15195
909.531	15237
909.647	14967
909.762	14937
909.878	14902
909.993	14826
910.108	14990
910.224	14849
910.339	14895
910.454	14826
910.57	14648
910.685	14792
910.8	14929
910.915	14842
911.03	14758
911.145	14564
911.259	14511
911.374	14507
911.489	14488
911.604	14377
911.718	14195
911.833	14206
911.947	14229
912.062	14157
912.176	14298
912.291	14298
912.405	14267
912.519	14507
912.633	14484
912.748	14286
912.862	14218
912.976	14084
913.09	14081
913.204	14088
913.318	14008
913.431	14145
913.545	14149
913.659	14130
913.772	14062
913.886	14001
914	13913
914.113	13932
914.226	14031
914.34	13989
914.453	13738
914.566	13959
914.68	13753
914.793	13731
914.906	13609
915.019	13643
915.132	13556
915.245	13647
915.358	13658
915.47	13628
915.583	13609
915.696	13609
915.809	13670
915.921	13700
916.034	13613
916.146	13392
916.259	13464
916.371	13510
916.483	13491
916.595	13388
916.708	13384
916.82	13533
916.932	13377
917.044	13350
917.156	13339
917.268	13308
917.38	13354
917.491	13270
917.603	13312
917.715	13308
917.826	13369
917.938	13247
918.049	13126
918.161	13240
918.272	13320
918.384	13346
918.495	13228
918.606	13080
918.717	13103
918.828	12985
918.939	13110
919.05	13042
919.161	13027
919.272	12913
919.383	12859
919.494	13099
919.604	13232
919.715	12993
919.826	12886
919.936	12973
920.047	13160
920.157	12993
920.267	13160
920.378	13126
920.488	13133
920.598	13240
920.708	13396
920.818	13141
920.928	13198
921.038	13270
921.148	13278
921.258	12932
921.368	12848
921.477	12890
921.587	12806
921.697	12684
921.806	12768
921.916	12681
922.025	12486
922.134	12513
922.244	12456
922.353	12437
922.462	12376
922.571	12220
922.68	12121
922.789	12072
922.898	12125
923.007	12159
923.116	12175
923.224	12011
923.333	12087
923.442	11897
923.55	11893
923.659	11980
923.767	11927
923.876	11870
923.984	11954
924.092	11889
924.201	11912
924.309	11851
924.417	11901
924.525	11870
924.633	11843
924.741	12749
924.849	11623
924.956	11741
925.064	11672
925.172	11486
925.279	11558
925.387	11562
925.494	11611
925.602	11764
925.709	11638
925.816	11471
925.924	11474
926.031	11676
926.138	11592
926.245	11558
926.352	11425
926.459	11665
926.566	11646
926.673	11406
926.779	11288
926.886	11368
926.993	11235
927.099	11242
927.206	11162
927.312	11189
927.419	11220
927.525	11136
927.631	11185
927.737	11079
927.843	11075
927.95	10900
928.056	11064
928.162	11041
928.267	11041
928.373	11611
928.479	11121
928.585	10915
928.69	10995
928.796	11102
928.901	10919
929.007	10733
929.112	10881
929.218	10778
929.323	10763
929.428	10782
929.533	10946
929.638	10763
929.743	10778
929.848	10767
929.953	10649
930.058	10660
930.163	10447
930.267	10535
930.372	10672
930.477	10493
930.581	10649
930.685	10577
930.79	10356
930.894	10447
930.998	10379
931.103	10569
931.207	10143
931.311	10021
931.415	10051
931.519	9812
931.623	9823
