Data from test_V78500241_2732.txt Node
Date: Fri Mar 25 14:52:44 CST 2022
User: usil
Spectrometer: V785-0024
Trigger mode: 0
Integration Time (sec): 4.000000E-1
Scans to average: 1
Nonlinearity correction enabled: false
Boxcar width: 0
Storing dark spectrum: false
XAxis mode: Wavelengths
Number of Pixels in Spectrum: 1024
>>>>>Begin Spectral Data<<<<<
801.071	22074
801.214	21968
801.356	21732
801.499	21671
801.641	21481
801.783	21355
801.926	21481
802.068	21378
802.211	21458
802.353	21188
802.496	21024
802.638	20819
802.78	20864
802.923	20804
803.065	20693
803.208	20724
803.35	20613
803.492	20883
803.635	21017
803.777	20727
803.919	20792
804.061	21047
804.204	20883
804.346	20663
804.488	20556
804.63	20724
804.773	20590
804.915	20674
805.057	20758
805.199	20617
805.341	20701
805.483	20830
805.626	20708
805.768	20579
805.91	20644
806.052	20712
806.194	20587
806.336	20731
806.478	20575
806.62	20499
806.762	20670
806.904	20823
807.046	21020
807.188	20864
807.33	20994
807.472	21036
807.614	20895
807.756	20937
807.898	20830
808.04	20686
808.182	20655
808.324	20758
808.465	20853
808.607	20956
808.749	21043
808.891	21142
809.033	21207
809.174	21173
809.316	20967
809.458	21001
809.6	21089
809.741	21051
809.883	21051
810.025	21207
810.166	21138
810.308	21017
810.45	21112
810.591	20979
810.733	20979
810.875	20842
811.016	20678
811.158	20667
811.299	20804
811.441	20933
811.582	20872
811.724	20739
811.865	20819
812.007	20724
812.148	20853
812.29	20902
812.431	20944
812.573	21135
812.714	21241
812.855	21226
812.997	21405
813.138	21462
813.279	21431
813.421	21287
813.562	21272
813.703	21089
813.845	20899
813.986	20594
814.127	20454
814.268	20457
814.41	20328
814.551	20328
814.692	20374
814.833	20199
814.974	20317
815.115	20278
815.256	20199
815.397	20225
815.539	20195
815.68	19978
815.821	19978
815.962	20115
816.103	20073
816.244	19989
816.385	19791
816.526	19765
816.666	19723
816.807	19438
816.948	19491
817.089	19571
817.23	19590
817.371	19419
817.512	19396
817.653	19510
817.793	19407
817.934	19388
818.075	19472
818.216	19403
818.356	19487
818.497	19400
818.638	19027
818.778	19088
818.919	19038
819.06	19282
819.2	19236
819.341	19365
819.481	19259
819.622	19491
819.762	19658
819.903	19666
820.043	19468
820.184	19510
820.324	19419
820.465	19643
820.605	19396
820.746	19358
820.886	19240
821.026	19453
821.167	19335
821.307	19518
821.447	19381
821.588	19225
821.728	19088
821.868	18947
822.008	18817
822.149	18844
822.289	18776
822.429	18631
822.569	18448
822.709	18456
822.849	18410
822.99	18239
823.13	18319
823.27	18289
823.41	18106
823.55	18053
823.69	18213
823.83	18148
823.97	18076
824.11	17980
824.25	17832
824.389	17931
824.529	17935
824.669	17908
824.809	18026
824.949	17931
825.089	17965
825.228	17950
825.368	17767
825.508	17767
825.648	17737
825.787	17756
825.927	17840
826.067	17756
826.206	17699
826.346	17722
826.485	17687
826.625	17718
826.765	17771
826.904	17714
827.044	17482
827.183	17486
827.323	17360
827.462	17387
827.601	17387
827.741	17387
827.88	17349
828.02	17307
828.159	17410
828.298	17452
828.437	17433
828.577	17372
828.716	17455
828.855	17364
828.994	17098
829.134	17223
829.273	17117
829.412	17003
829.551	17178
829.69	17075
829.829	17098
829.968	17235
830.107	17170
830.246	17212
830.385	17083
830.524	17064
830.663	17022
830.802	16892
830.941	16793
831.08	16710
831.219	16877
831.357	16763
831.496	16965
831.635	16782
831.774	16679
831.913	16664
832.051	16645
832.19	16558
832.329	16531
832.467	16478
832.606	16447
832.744	16508
832.883	16432
833.022	16356
833.16	16538
833.299	16607
833.437	16474
833.576	16527
833.714	16550
833.852	16504
833.991	16531
834.129	16607
834.267	16523
834.406	16455
834.544	16569
834.682	16577
834.821	16500
834.959	16653
835.097	16485
835.235	16592
835.373	16523
835.511	16523
835.65	16390
835.788	16451
835.926	16303
836.064	16257
836.202	16261
836.34	16459
836.478	16558
836.615	16337
836.753	16428
836.891	16386
837.029	16493
837.167	16314
837.305	16329
837.443	16287
837.58	16219
837.718	16413
837.856	16303
837.993	16306
838.131	16379
838.269	16223
838.406	16291
838.544	16135
838.681	16086
838.819	16017
838.956	15819
839.094	15774
839.231	15808
839.369	15953
839.506	16261
839.643	16143
839.781	15835
839.918	15781
840.055	15778
840.193	15922
840.33	15865
840.467	15857
840.604	15884
840.742	16082
840.879	15770
841.016	15747
841.153	15747
841.29	15949
841.427	15880
841.564	15747
841.701	15861
841.838	15774
841.975	15762
842.112	15770
842.249	15633
842.385	15652
842.522	15774
842.659	15743
842.796	15641
842.933	15561
843.069	15587
843.206	15568
843.343	15770
843.479	15610
843.616	15766
843.752	15439
843.889	15382
844.025	15481
844.162	15473
844.298	15439
844.435	15412
844.571	15469
844.708	15447
844.844	15561
844.98	15660
845.117	15511
845.253	15329
845.389	15268
845.525	15306
845.661	15321
845.798	15222
845.934	15245
846.07	15131
846.206	15237
846.342	15336
846.478	15222
846.614	14998
846.75	14956
846.886	14960
847.022	15199
847.158	14921
847.294	14990
847.429	14998
847.565	15001
847.701	15157
847.837	14777
847.972	14724
848.108	14773
848.244	14754
848.379	14682
848.515	14541
848.65	14590
848.786	14552
848.921	14575
849.057	14765
849.192	14651
849.328	14590
849.463	14514
849.598	14606
849.734	14587
849.869	14431
850.004	14377
850.14	14381
850.275	14370
850.41	14328
850.545	14286
850.68	14320
850.815	14278
850.95	14343
851.085	14526
851.22	14511
851.355	14423
851.49	14374
851.625	14263
851.76	14339
851.895	14309
852.03	14263
852.165	14309
852.299	14355
852.434	14450
852.569	14305
852.703	14434
852.838	14404
852.973	14537
853.107	14503
853.242	14275
853.376	14324
853.511	14111
853.645	14134
853.78	14233
853.914	14240
854.048	14199
854.183	14237
854.317	14339
854.451	14427
854.585	14164
854.72	14149
854.854	14275
854.988	14206
855.122	14343
855.256	14046
855.39	14168
855.524	14301
855.658	14221
855.792	14298
855.926	14172
856.06	14343
856.194	14343
856.327	14218
856.461	14134
856.595	14123
856.729	14092
856.862	14263
856.996	14233
857.13	14267
857.263	14362
857.397	14404
857.53	14233
857.664	14294
857.797	14244
857.931	14381
858.064	14286
858.197	14332
858.331	14183
858.464	14263
858.597	14153
858.731	14206
858.864	14229
858.997	14290
859.13	14248
859.263	14199
859.396	14301
859.529	14206
859.662	14153
859.795	14195
859.928	14343
860.061	14332
860.194	14347
860.327	14199
860.46	14176
860.592	14434
860.725	14332
860.858	14332
860.99	14225
861.123	14119
861.256	14199
861.388	14244
861.521	14857
861.653	14084
861.786	13967
861.918	13879
862.05	14142
862.183	14187
862.315	14138
862.447	14168
862.58	14244
862.712	13947
862.844	13932
862.976	13997
863.108	14081
863.24	14484
863.372	13936
863.504	13932
863.636	13906
863.768	14012
863.9	13986
864.032	13940
864.164	14035
864.296	14020
864.428	14100
864.559	14130
864.691	14142
864.823	14077
864.954	14008
865.086	14043
865.217	13967
865.349	13898
865.48	14103
865.612	14046
865.743	14153
865.875	14012
866.006	13811
866.137	13993
866.269	13940
866.4	13982
866.531	14005
866.662	13860
866.793	13974
866.924	13879
867.055	14024
867.186	13959
867.317	13928
867.448	13780
867.579	13951
867.71	13879
867.841	13898
867.972	13982
868.103	14001
868.233	13887
868.364	13890
868.495	13997
868.625	14100
868.756	14317
868.886	14088
869.017	14126
869.147	14336
869.278	14336
869.408	14332
869.539	14130
869.669	14248
869.799	14244
869.929	14400
870.06	14218
870.19	14507
870.32	14552
870.45	14545
870.58	14629
870.71	14701
870.84	14785
870.97	14583
871.1	14693
871.23	14743
871.36	14819
871.489	14735
871.619	14667
871.749	14842
871.879	14800
872.008	14914
872.138	14880
872.267	14815
872.397	14712
872.526	14594
872.656	14712
872.785	14663
872.915	14918
873.044	14971
873.173	14857
873.303	14887
873.432	14956
873.561	14986
873.69	14910
873.819	14838
873.948	15066
874.077	14906
874.206	14895
874.335	14887
874.464	15161
874.593	15154
874.722	15184
874.851	15256
874.979	15165
875.108	15340
875.237	15165
875.365	15112
875.494	15279
875.623	15355
875.751	15279
875.88	15329
876.008	15340
876.136	15431
876.265	15736
876.393	15778
876.521	15724
876.65	15713
876.778	15682
876.906	15591
877.034	15549
877.162	15553
877.29	15587
877.418	15492
877.546	15557
877.674	15675
877.802	15591
877.93	15618
878.058	15614
878.185	15572
878.313	15591
878.441	15774
878.568	15462
878.696	15530
878.824	15663
878.951	15633
879.079	15819
879.206	15812
879.333	15816
879.461	15694
879.588	15762
879.715	15770
879.842	15972
879.97	15713
880.097	15389
880.224	15401
880.351	15507
880.478	15511
880.605	15507
880.732	15450
880.859	15622
880.986	15507
881.112	15469
881.239	15363
881.366	15291
881.493	15142
881.619	15195
881.746	15142
881.872	15142
881.999	15180
882.125	15047
882.252	15199
882.378	15157
882.505	15241
882.631	15077
882.757	15001
882.883	14937
883.01	15043
883.136	14899
883.262	14819
883.388	14853
883.514	15020
883.64	14994
883.766	14990
883.892	14689
884.018	14849
884.143	14982
884.269	14990
884.395	14765
884.52	14651
884.646	14712
884.772	14568
884.897	14606
885.023	14754
885.148	14739
885.274	14769
885.399	14830
885.524	14632
885.65	14560
885.775	14750
885.9	14663
886.025	14762
886.15	14792
886.275	14629
886.4	14541
886.525	14526
886.65	14598
886.775	14514
886.9	14838
887.025	14845
887.149	14629
887.274	14484
887.399	14404
887.523	14412
887.648	14370
887.773	14419
887.897	14625
888.021	14457
888.146	14385
888.27	14651
888.395	14602
888.519	14564
888.643	14575
888.767	14556
888.891	14419
889.015	14324
889.139	14374
889.263	14423
889.387	14507
889.511	14533
889.635	14465
889.759	14324
889.883	14305
890.006	14419
890.13	14457
890.254	14339
890.377	14240
890.501	14107
890.624	14187
890.748	14210
890.871	14058
890.995	14035
891.118	13879
891.241	13989
891.364	14081
891.488	14218
891.611	14180
891.734	14008
891.857	14138
891.98	14100
892.103	14149
892.226	14153
892.349	14073
892.471	14035
892.594	14119
892.717	14191
892.839	14039
892.962	14088
893.085	14081
893.207	14008
893.33	13951
893.452	14092
893.575	13993
893.697	14043
893.819	14218
893.941	14218
894.064	14267
894.186	13967
894.308	14073
894.43	14092
894.552	14301
894.674	14252
894.796	13978
894.918	14115
895.04	14119
895.161	14191
895.283	14153
895.405	14092
895.526	14092
895.648	14111
895.769	14187
895.891	14168
896.012	14214
896.134	14202
896.255	14229
896.376	14240
896.498	14305
896.619	14252
896.74	14210
896.861	14309
896.982	14590
897.103	14777
897.224	14568
897.345	14454
897.466	14438
897.587	14465
897.708	14632
897.828	14537
897.949	14412
898.07	14377
898.19	14507
898.311	14724
898.431	14514
898.552	14454
898.672	14629
898.792	14636
898.913	14621
899.033	14579
899.153	14457
899.273	14423
899.393	14400
899.513	14522
899.633	14446
899.753	14492
899.873	14366
899.993	14480
900.113	14427
900.232	14427
900.352	14374
900.472	14396
900.591	14298
900.711	14298
900.83	14320
900.95	14385
901.069	14400
901.189	14191
901.308	14012
901.427	13959
901.546	13921
901.665	13970
901.784	14050
901.904	13852
902.023	13750
902.141	13613
902.26	13556
902.379	13548
902.498	13556
902.617	13495
902.735	13601
902.854	13575
902.973	13438
903.091	13236
903.21	13282
903.328	13331
903.446	13118
903.565	13179
903.683	13095
903.801	13065
903.919	13088
904.038	13034
904.156	12909
904.274	13076
904.392	12932
904.51	12928
904.627	12890
904.745	12958
904.863	13038
904.981	12730
905.098	12662
905.216	12631
905.334	12593
905.451	12513
905.569	12555
905.686	12673
905.803	12517
905.921	12456
906.038	12540
906.155	12475
906.272	12304
906.389	12372
906.506	12190
906.623	12224
906.74	12251
906.857	12098
906.974	12117
907.091	12277
907.208	12353
907.324	12209
907.441	12163
907.557	11961
907.674	11992
907.79	11901
907.907	11927
908.023	11912
908.139	11950
908.256	11961
908.372	11920
908.488	11882
908.604	11676
908.72	11611
908.836	11745
908.952	11680
909.068	11764
909.184	11832
909.3	11722
909.415	11756
909.531	11695
909.647	11535
909.762	11543
909.878	11486
909.993	11512
910.108	11539
910.224	11497
910.339	11516
910.454	11368
910.57	11356
910.685	11136
910.8	11570
910.915	11528
911.03	11391
911.145	11162
911.259	11185
911.374	11197
911.489	11075
911.604	11045
911.718	10911
911.833	10968
911.947	10904
912.062	10778
912.176	10953
912.291	10972
912.405	10984
912.519	11098
912.633	11189
912.748	11083
912.862	10938
912.976	10755
913.09	10748
913.204	10805
913.318	10797
913.431	10976
913.545	10866
913.659	10923
913.772	10755
913.886	10668
914	10729
914.113	10767
914.226	10904
914.34	10740
914.453	10607
914.566	10824
914.68	10603
914.793	10637
914.906	10519
915.019	10405
915.132	10459
915.245	10481
915.358	10398
915.47	10363
915.583	10451
915.696	10504
915.809	10478
915.921	10637
916.034	10451
916.146	10306
916.259	10432
916.371	10512
916.483	10561
916.595	10379
916.708	10356
916.82	10413
916.932	10291
917.044	10314
917.156	10333
917.268	10287
917.38	10299
917.491	10303
917.603	10375
917.715	10451
917.826	10443
917.938	10261
918.049	10192
918.161	10291
918.272	10382
918.384	10440
918.495	10287
918.606	10204
918.717	10109
918.828	10219
918.939	10200
919.05	10101
919.161	10143
919.272	9956
919.383	10082
919.494	10238
919.604	10417
919.715	10166
919.826	10086
919.936	10177
920.047	10272
920.157	10284
920.267	10375
920.378	10268
920.488	10200
920.598	10375
920.708	10554
920.818	10455
920.928	10413
921.038	10512
921.148	10508
921.258	10318
921.368	10124
921.477	10044
921.587	10025
921.697	9888
921.806	10078
921.916	9926
922.025	9717
922.134	9751
922.244	9717
922.353	9800
922.462	9652
922.571	9549
922.68	9393
922.789	9412
922.898	9397
923.007	9386
923.116	9488
923.224	9389
923.333	9412
923.442	9287
923.55	9298
923.659	9355
923.767	9382
923.876	9325
923.984	9329
924.092	9226
924.201	9279
924.309	9306
924.417	9268
924.525	9237
924.633	9268
924.741	10071
924.849	9077
924.956	9226
925.064	9108
925.172	9005
925.279	9017
925.387	9135
925.494	9097
925.602	9218
925.709	9138
925.816	8971
925.924	9116
926.031	9131
926.138	9100
926.245	9146
926.352	9047
926.459	9241
926.566	9097
926.673	9028
926.779	8944
926.886	8960
926.993	8845
927.099	8777
927.206	8743
927.312	8781
927.419	8838
927.525	8811
927.631	8807
927.737	8697
927.843	8655
927.95	8610
928.056	8720
928.162	8724
928.267	8708
928.373	9348
928.479	8769
928.585	8526
928.69	8629
928.796	8743
928.901	8583
929.007	8488
929.112	8655
929.218	8644
929.323	8495
929.428	8526
929.533	8678
929.638	8480
929.743	8488
929.848	8541
929.953	8518
930.058	8438
930.163	8229
930.267	8324
930.372	8393
930.477	8279
930.581	8499
930.685	8423
930.79	8237
930.894	8267
930.998	8229
931.103	8396
931.207	8031
931.311	7986
931.415	7951
931.519	7746
931.623	7704
