Data from test_V78500241_2627.txt Node
Date: Fri Mar 25 14:52:00 CST 2022
User: usil
Spectrometer: V785-0024
Trigger mode: 0
Integration Time (sec): 4.000000E-1
Scans to average: 1
Nonlinearity correction enabled: false
Boxcar width: 0
Storing dark spectrum: false
XAxis mode: Wavelengths
Number of Pixels in Spectrum: 1024
>>>>>Begin Spectral Data<<<<<
801.071	21892
801.214	21842
801.356	21690
801.499	21614
801.641	21405
801.783	21481
801.926	21458
802.068	21382
802.211	21275
802.353	21325
802.496	20979
802.638	20906
802.78	20887
802.923	20815
803.065	20689
803.208	20686
803.35	20880
803.492	20689
803.635	20925
803.777	20819
803.919	20689
804.061	21066
804.204	20754
804.346	20552
804.488	20575
804.63	20746
804.773	20621
804.915	20655
805.057	20697
805.199	20594
805.341	20667
805.483	20701
805.626	20712
805.768	20636
805.91	20552
806.052	20594
806.194	20564
806.336	20724
806.478	20636
806.62	20552
806.762	20648
806.904	20902
807.046	20998
807.188	21055
807.33	20963
807.472	21036
807.614	20876
807.756	20895
807.898	20792
808.04	20621
808.182	20731
808.324	20670
808.465	20731
808.607	20830
808.749	21043
808.891	21146
809.033	21180
809.174	21036
809.316	20864
809.458	20921
809.6	20937
809.741	21043
809.883	21066
810.025	21161
810.166	21157
810.308	21157
810.45	21055
810.591	21127
810.733	20971
810.875	20800
811.016	20674
811.158	20651
811.299	20864
811.441	20883
811.582	20944
811.724	20769
811.865	20689
812.007	20773
812.148	20708
812.29	20750
812.431	21051
812.573	20986
812.714	21112
812.855	21226
812.997	21317
813.138	21393
813.279	21389
813.421	21264
813.562	21116
813.703	21116
813.845	20956
813.986	20632
814.127	20495
814.268	20324
814.41	20488
814.551	20282
814.692	20385
814.833	20130
814.974	20275
815.115	20355
815.256	20301
815.397	20183
815.539	20176
815.68	20153
815.821	19913
815.962	19963
816.103	19936
816.244	19765
816.385	19776
816.526	19651
816.666	19586
816.807	19419
816.948	19533
817.089	19582
817.23	19586
817.371	19483
817.512	19480
817.653	19381
817.793	19426
817.934	19293
818.075	19434
818.216	19422
818.356	19293
818.497	19362
818.638	19137
818.778	19168
818.919	19202
819.06	19107
819.2	19327
819.341	19343
819.481	19362
819.622	19472
819.762	19655
819.903	19616
820.043	19506
820.184	19552
820.324	19426
820.465	19434
820.605	19365
820.746	19419
820.886	19343
821.026	19396
821.167	19270
821.307	19453
821.447	19327
821.588	19240
821.728	19076
821.868	18981
822.008	18916
822.149	18867
822.289	18772
822.429	18559
822.569	18601
822.709	18540
822.849	18357
822.99	18422
823.13	18270
823.27	18289
823.41	18194
823.55	18072
823.69	18201
823.83	18102
823.97	18083
824.11	17885
824.25	17904
824.389	17832
824.529	17923
824.669	17885
824.809	17954
824.949	17935
825.089	17946
825.228	17824
825.368	17714
825.508	17657
825.648	17718
825.787	17649
825.927	17722
826.067	17661
826.206	17691
826.346	17794
826.485	17680
826.625	17718
826.765	17828
826.904	17634
827.044	17471
827.183	17459
827.323	17360
827.462	17429
827.601	17364
827.741	17315
827.88	17436
828.02	17368
828.159	17360
828.298	17334
828.437	17376
828.577	17311
828.716	17444
828.855	17299
828.994	17045
829.134	17121
829.273	17204
829.412	17200
829.551	17124
829.69	17083
829.829	17143
829.968	17288
830.107	17330
830.246	17208
830.385	16980
830.524	17025
830.663	16938
830.802	16866
830.941	16706
831.08	16622
831.219	16873
831.357	16812
831.496	16968
831.635	16717
831.774	16615
831.913	16523
832.051	16577
832.19	16618
832.329	16596
832.467	16462
832.606	16367
832.744	16390
832.883	16424
833.022	16497
833.16	16470
833.299	16485
833.437	16466
833.576	16580
833.714	16405
833.852	16500
833.991	16577
834.129	16596
834.267	16523
834.406	16584
834.544	16470
834.682	16497
834.821	16455
834.959	16702
835.097	16386
835.235	16653
835.373	16542
835.511	16538
835.65	16493
835.788	16470
835.926	16310
836.064	16181
836.202	16325
836.34	16489
836.478	16481
836.615	16371
836.753	16436
836.891	16462
837.029	16516
837.167	16379
837.305	16272
837.443	16333
837.58	16280
837.718	16325
837.856	16287
837.993	16230
838.131	16318
838.269	16162
838.406	16238
838.544	16230
838.681	15926
838.819	16017
838.956	15816
839.094	15778
839.231	15873
839.369	15968
839.506	16284
839.643	16101
839.781	15842
839.918	15766
840.055	15816
840.193	15873
840.33	15907
840.467	15831
840.604	15861
840.742	16074
840.879	15728
841.016	15751
841.153	15686
841.29	16029
841.427	15835
841.564	15983
841.701	15911
841.838	15819
841.975	15816
842.112	15766
842.249	15614
842.385	15629
842.522	15827
842.659	15770
842.796	15652
842.933	15648
843.069	15656
843.206	15660
843.343	15610
843.479	15675
843.616	15766
843.752	15443
843.889	15420
844.025	15526
844.162	15370
844.298	15538
844.435	15450
844.571	15363
844.708	15496
844.844	15553
844.98	15584
845.117	15561
845.253	15378
845.389	15218
845.525	15462
845.661	15241
845.798	15142
845.934	15329
846.07	15241
846.206	15306
846.342	15336
846.478	15279
846.614	14971
846.75	14937
846.886	14906
847.022	15070
847.158	15039
847.294	14944
847.429	15036
847.565	15093
847.701	15298
847.837	14769
847.972	14746
848.108	14781
848.244	14746
848.379	14598
848.515	14602
848.65	14651
848.786	14587
848.921	14560
849.057	14651
849.192	14625
849.328	14590
849.463	14590
849.598	14511
849.734	14492
849.869	14469
850.004	14415
850.14	14408
850.275	14408
850.41	14259
850.545	14263
850.68	14381
850.815	14355
850.95	14355
851.085	14499
851.22	14533
851.355	14324
851.49	14320
851.625	14206
851.76	14267
851.895	14145
852.03	14199
852.165	14301
852.299	14381
852.434	14396
852.569	14336
852.703	14324
852.838	14480
852.973	14579
853.107	14522
853.242	14301
853.376	14183
853.511	14065
853.645	14180
853.78	14389
853.914	14187
854.048	14161
854.183	14248
854.317	14229
854.451	14332
854.585	14115
854.72	14237
854.854	14256
854.988	14134
855.122	14138
855.256	14191
855.39	14218
855.524	14347
855.658	14294
855.792	14240
855.926	14290
856.06	14336
856.194	14275
856.327	14309
856.461	14161
856.595	14218
856.729	14176
856.862	14343
856.996	14362
857.13	14218
857.263	14400
857.397	14423
857.53	14244
857.664	14282
857.797	14309
857.931	14393
858.064	14286
858.197	14343
858.331	14100
858.464	14168
858.597	14164
858.731	14324
858.864	14252
858.997	14187
859.13	14221
859.263	14278
859.396	14332
859.529	14176
859.662	14126
859.795	14206
859.928	14183
860.061	14366
860.194	14450
860.327	14221
860.46	14294
860.592	14400
860.725	14355
860.858	14343
860.99	14244
861.123	14145
861.256	14218
861.388	14267
861.521	14868
861.653	14172
861.786	14020
861.918	14103
862.05	14153
862.183	14256
862.315	14240
862.447	14225
862.58	14096
862.712	14020
862.844	13955
862.976	14115
863.108	13982
863.24	14499
863.372	13883
863.504	13993
863.636	13936
863.768	14012
863.9	14039
864.032	13986
864.164	13951
864.296	14050
864.428	14016
864.559	14168
864.691	14046
864.823	14065
864.954	14103
865.086	14077
865.217	14073
865.349	13890
865.48	13925
865.612	14020
865.743	14126
865.875	13932
866.006	13921
866.137	14069
866.269	14084
866.4	14008
866.531	13947
866.662	14050
866.793	13989
866.924	13947
867.055	13997
867.186	13951
867.317	13959
867.448	13841
867.579	13967
867.71	14020
867.841	13852
867.972	13993
868.103	13974
868.233	13959
868.364	13997
868.495	14058
868.625	14233
868.756	14336
868.886	14161
869.017	14256
869.147	14377
869.278	14454
869.408	14328
869.539	14294
869.669	14290
869.799	14355
869.929	14252
870.06	14358
870.19	14495
870.32	14514
870.45	14613
870.58	14636
870.71	14792
870.84	14773
870.97	14659
871.1	14579
871.23	14811
871.36	14796
871.489	14663
871.619	14921
871.749	14769
871.879	14887
872.008	14842
872.138	14750
872.267	14773
872.397	14705
872.526	14594
872.656	14769
872.785	14712
872.915	14819
873.044	14956
873.173	14853
873.303	14925
873.432	14937
873.561	14986
873.69	14918
873.819	14967
873.948	15051
874.077	15024
874.206	14887
874.335	14952
874.464	14994
874.593	15157
874.722	15173
874.851	15260
874.979	15237
875.108	15203
875.237	15169
875.365	15195
875.494	15192
875.623	15310
875.751	15241
875.88	15291
876.008	15306
876.136	15416
876.265	15557
876.393	15804
876.521	15724
876.65	15770
876.778	15717
876.906	15625
877.034	15477
877.162	15633
877.29	15553
877.418	15724
877.546	15641
877.674	15694
877.802	15466
877.93	15675
878.058	15519
878.185	15584
878.313	15690
878.441	15732
878.568	15549
878.696	15469
878.824	15701
878.951	15701
879.079	15857
879.206	16006
879.333	15857
879.461	15709
879.588	15736
879.715	15857
879.842	15888
879.97	15637
880.097	15511
880.224	15454
880.351	15519
880.478	15523
880.605	15412
880.732	15485
880.859	15679
880.986	15477
881.112	15496
881.239	15374
881.366	15245
881.493	15150
881.619	15100
881.746	15142
881.872	15184
881.999	15100
882.125	15100
882.252	15165
882.378	15192
882.505	15256
882.631	15146
882.757	14929
882.883	15013
883.01	14967
883.136	14918
883.262	14838
883.388	14864
883.514	14963
883.64	14960
883.766	14864
883.892	14648
884.018	14864
884.143	14883
884.269	15013
884.395	14758
884.52	14644
884.646	14640
884.772	14621
884.897	14530
885.023	14689
885.148	14705
885.274	14708
885.399	14686
885.524	14598
885.65	14640
885.775	14674
885.9	14724
886.025	14773
886.15	14754
886.275	14670
886.4	14602
886.525	14613
886.65	14568
886.775	14602
886.9	14746
887.025	14933
887.149	14674
887.274	14465
887.399	14480
887.523	14427
887.648	14454
887.773	14415
887.897	14564
888.021	14465
888.146	14507
888.27	14663
888.395	14598
888.519	14488
888.643	14602
888.767	14571
888.891	14423
889.015	14301
889.139	14358
889.263	14412
889.387	14438
889.511	14514
889.635	14518
889.759	14332
889.883	14385
890.006	14381
890.13	14454
890.254	14206
890.377	14278
890.501	14145
890.624	14115
890.748	14221
890.871	14123
890.995	14016
891.118	13970
891.241	14031
891.364	14065
891.488	14161
891.611	14077
891.734	14119
891.857	14062
891.98	14126
892.103	14107
892.226	14088
892.349	14081
892.471	13921
892.594	14073
892.717	14153
892.839	14031
892.962	14008
893.085	14123
893.207	14077
893.33	14035
893.452	13989
893.575	14111
893.697	13993
893.819	14191
893.941	14290
894.064	14149
894.186	14005
894.308	13940
894.43	14206
894.552	14282
894.674	14259
894.796	14119
894.918	14130
895.04	14161
895.161	14191
895.283	14233
895.405	14043
895.526	14100
895.648	14221
895.769	14206
895.891	14134
896.012	14256
896.134	14271
896.255	14206
896.376	14183
896.498	14256
896.619	14225
896.74	14290
896.861	14275
896.982	14537
897.103	14705
897.224	14564
897.345	14594
897.466	14469
897.587	14465
897.708	14655
897.828	14514
897.949	14511
898.07	14377
898.19	14377
898.311	14640
898.431	14587
898.552	14575
898.672	14678
898.792	14678
898.913	14617
899.033	14469
899.153	14423
899.273	14320
899.393	14404
899.513	14400
899.633	14404
899.753	14503
899.873	14389
899.993	14530
900.113	14381
900.232	14545
900.352	14385
900.472	14408
900.591	14248
900.711	14374
900.83	14305
900.95	14404
901.069	14366
901.189	14206
901.308	14043
901.427	13902
901.546	13898
901.665	14100
901.784	14043
901.904	13921
902.023	13769
902.141	13624
902.26	13597
902.379	13578
902.498	13548
902.617	13422
902.735	13613
902.854	13525
902.973	13445
903.091	13270
903.21	13247
903.328	13285
903.446	13160
903.565	13133
903.683	13149
903.801	13046
903.919	13057
904.038	13015
904.156	13046
904.274	12993
904.392	12920
904.51	12901
904.627	12894
904.745	12943
904.863	13069
904.981	12673
905.098	12528
905.216	12536
905.334	12684
905.451	12639
905.569	12612
905.686	12566
905.803	12623
905.921	12452
906.038	12513
906.155	12448
906.272	12388
906.389	12361
906.506	12190
906.623	12197
906.74	12220
906.857	12064
906.974	12136
907.091	12254
907.208	12304
907.324	12300
907.441	12110
907.557	11912
907.674	11889
907.79	11885
907.907	11931
908.023	12034
908.139	11961
908.256	11973
908.372	11824
908.488	11836
908.604	11817
908.72	11722
908.836	11718
908.952	11638
909.068	11840
909.184	11828
909.3	11699
909.415	11802
909.531	11707
909.647	11577
909.762	11505
909.878	11448
909.993	11505
910.108	11452
910.224	11391
910.339	11543
910.454	11452
910.57	11406
910.685	11246
910.8	11543
910.915	11589
911.03	11444
911.145	11265
911.259	11193
911.374	11242
911.489	11045
911.604	11071
911.718	10923
911.833	10953
911.947	10824
912.062	10786
912.176	10873
912.291	10953
912.405	10911
912.519	11193
912.633	11136
912.748	11067
912.862	10972
912.976	10843
913.09	10740
913.204	10824
913.318	10748
913.431	10957
913.545	10843
913.659	10980
913.772	10847
913.886	10694
914	10641
914.113	10824
914.226	10782
914.34	10797
914.453	10615
914.566	10866
914.68	10615
914.793	10615
914.906	10531
915.019	10382
915.132	10436
915.245	10375
915.358	10428
915.47	10550
915.583	10462
915.696	10554
915.809	10656
915.921	10641
916.034	10405
916.146	10348
916.259	10348
916.371	10504
916.483	10531
916.595	10409
916.708	10390
916.82	10333
916.932	10379
917.044	10287
917.156	10284
917.268	10291
917.38	10295
917.491	10276
917.603	10253
917.715	10363
917.826	10344
917.938	10238
918.049	10181
918.161	10276
918.272	10424
918.384	10440
918.495	10265
918.606	10192
918.717	10215
918.828	10204
918.939	10097
919.05	10109
919.161	10139
919.272	9937
919.383	10048
919.494	10154
919.604	10344
919.715	10185
919.826	10078
919.936	10173
920.047	10261
920.157	10166
920.267	10291
920.378	10204
920.488	10169
920.598	10405
920.708	10561
920.818	10386
920.928	10409
921.038	10535
921.148	10565
921.258	10188
921.368	10143
921.477	10040
921.587	10006
921.697	9937
921.806	10093
921.916	9937
922.025	9789
922.134	9720
922.244	9633
922.353	9774
922.462	9625
922.571	9530
922.68	9492
922.789	9435
922.898	9545
923.007	9367
923.116	9549
923.224	9439
923.333	9374
923.442	9287
923.55	9340
923.659	9351
923.767	9317
923.876	9253
923.984	9378
924.092	9237
924.201	9294
924.309	9275
924.417	9321
924.525	9260
924.633	9180
924.741	10036
924.849	9097
924.956	9325
925.064	9077
925.172	9009
925.279	9043
925.387	9131
925.494	9020
925.602	9180
925.709	9154
925.816	8967
925.924	9112
926.031	9138
926.138	9165
926.245	9165
926.352	9047
926.459	9157
926.566	9192
926.673	9066
926.779	8944
926.886	8937
926.993	8861
927.099	8762
927.206	8906
927.312	8758
927.419	8864
927.525	8807
927.631	8887
927.737	8754
927.843	8705
927.95	8594
928.056	8686
928.162	8693
928.267	8758
928.373	9401
928.479	8815
928.585	8568
928.69	8682
928.796	8777
928.901	8644
929.007	8454
929.112	8613
929.218	8594
929.323	8606
929.428	8507
929.533	8625
929.638	8423
929.743	8480
929.848	8564
929.953	8556
930.058	8423
930.163	8320
930.267	8358
930.372	8415
930.477	8240
930.581	8488
930.685	8377
930.79	8233
930.894	8282
930.998	8252
931.103	8374
931.207	8046
931.311	7997
931.415	7932
931.519	7727
931.623	7757
