Data from test_V78500241_2413.txt Node
Date: Fri Mar 25 14:50:30 CST 2022
User: usil
Spectrometer: V785-0024
Trigger mode: 0
Integration Time (sec): 4.000000E-1
Scans to average: 1
Nonlinearity correction enabled: false
Boxcar width: 0
Storing dark spectrum: false
XAxis mode: Wavelengths
Number of Pixels in Spectrum: 1024
>>>>>Begin Spectral Data<<<<<
801.071	22169
801.214	22044
801.356	21766
801.499	21766
801.641	21530
801.783	21557
801.926	21382
802.068	21420
802.211	21416
802.353	21306
802.496	21157
802.638	21020
802.78	21032
802.923	20796
803.065	20830
803.208	20796
803.35	20781
803.492	20918
803.635	20918
803.777	20800
803.919	20914
804.061	21089
804.204	20842
804.346	20849
804.488	20636
804.63	20815
804.773	20583
804.915	20693
805.057	20902
805.199	20621
805.341	20880
805.483	20804
805.626	20845
805.768	20625
805.91	20788
806.052	20781
806.194	20655
806.336	20929
806.478	20724
806.62	20773
806.762	20785
806.904	20876
807.046	21146
807.188	21051
807.33	21024
807.472	21066
807.614	20998
807.756	20933
807.898	20769
808.04	20800
808.182	20857
808.324	20872
808.465	20868
808.607	21093
808.749	21138
808.891	21348
809.033	21203
809.174	21363
809.316	21146
809.458	21150
809.6	21093
809.741	21275
809.883	21218
810.025	21321
810.166	21157
810.308	21275
810.45	21264
810.591	21275
810.733	20960
810.875	20941
811.016	20880
811.158	20853
811.299	21009
811.441	21112
811.582	20929
811.724	20929
811.865	20792
812.007	20948
812.148	20800
812.29	20853
812.431	21085
812.573	21180
812.714	21310
812.855	21420
812.997	21408
813.138	21542
813.279	21481
813.421	21401
813.562	21336
813.703	21112
813.845	21077
813.986	20689
814.127	20587
814.268	20385
814.41	20579
814.551	20533
814.692	20522
814.833	20419
814.974	20400
815.115	20457
815.256	20362
815.397	20180
815.539	20221
815.68	20199
815.821	20168
815.962	20069
816.103	20221
816.244	20008
816.385	19868
816.526	19944
816.666	19723
816.807	19609
816.948	19674
817.089	19723
817.23	19616
817.371	19559
817.512	19635
817.653	19586
817.793	19400
817.934	19582
818.075	19715
818.216	19449
818.356	19582
818.497	19354
818.638	19240
818.778	19236
818.919	19278
819.06	19263
819.2	19381
819.341	19422
819.481	19460
819.622	19590
819.762	19845
819.903	19776
820.043	19708
820.184	19597
820.324	19609
820.465	19590
820.605	19510
820.746	19521
820.886	19476
821.026	19506
821.167	19487
821.307	19567
821.447	19426
821.588	19282
821.728	19225
821.868	19031
822.008	18935
822.149	18924
822.289	18954
822.429	18764
822.569	18681
822.709	18745
822.849	18460
822.99	18384
823.13	18426
823.27	18384
823.41	18254
823.55	18098
823.69	18163
823.83	18209
823.97	18194
824.11	18095
824.25	18049
824.389	17942
824.529	18057
824.669	18068
824.809	18049
824.949	18117
825.089	18148
825.228	17984
825.368	17805
825.508	17870
825.648	17790
825.787	17764
825.927	17821
826.067	17714
826.206	17794
826.346	17790
826.485	17771
826.625	17775
826.765	17961
826.904	17760
827.044	17619
827.183	17570
827.323	17467
827.462	17611
827.601	17360
827.741	17448
827.88	17459
828.02	17341
828.159	17410
828.298	17433
828.437	17482
828.577	17387
828.716	17649
828.855	17395
828.994	17307
829.134	17159
829.273	17258
829.412	17124
829.551	17124
829.69	17170
829.829	17246
829.968	17280
830.107	17254
830.246	17143
830.385	17117
830.524	17174
830.663	17041
830.802	16934
830.941	16889
831.08	16839
831.219	16911
831.357	16904
831.496	17113
831.635	16927
831.774	16752
831.913	16793
832.051	16622
832.19	16554
832.329	16615
832.467	16558
832.606	16481
832.744	16485
832.883	16504
833.022	16497
833.16	16588
833.299	16504
833.437	16596
833.576	16500
833.714	16691
833.852	16573
833.991	16577
834.129	16634
834.267	16637
834.406	16611
834.544	16607
834.682	16653
834.821	16577
834.959	16725
835.097	16451
835.235	16721
835.373	16554
835.511	16675
835.65	16459
835.788	16436
835.926	16329
836.064	16249
836.202	16287
836.34	16485
836.478	16565
836.615	16394
836.753	16493
836.891	16588
837.029	16592
837.167	16493
837.305	16443
837.443	16405
837.58	16325
837.718	16382
837.856	16329
837.993	16325
838.131	16310
838.269	16257
838.406	16280
838.544	16162
838.681	16116
838.819	15888
838.956	15861
839.094	15945
839.231	15930
839.369	16074
839.506	16306
839.643	16226
839.781	15968
839.918	15922
840.055	15953
840.193	15869
840.33	15907
840.467	15922
840.604	15918
840.742	16177
840.879	15618
841.016	15781
841.153	15739
841.29	16021
841.427	15895
841.564	15892
841.701	15892
841.838	15850
841.975	15781
842.112	15823
842.249	15652
842.385	15736
842.522	15892
842.659	15679
842.796	15671
842.933	15694
843.069	15614
843.206	15584
843.343	15694
843.479	15819
843.616	15720
843.752	15450
843.889	15526
844.025	15618
844.162	15526
844.298	15656
844.435	15378
844.571	15382
844.708	15504
844.844	15606
844.98	15637
845.117	15530
845.253	15359
845.389	15302
845.525	15408
845.661	15355
845.798	15226
845.934	15272
846.07	15154
846.206	15329
846.342	15370
846.478	15207
846.614	15074
846.75	15058
846.886	14960
847.022	15081
847.158	15039
847.294	14990
847.429	15089
847.565	15032
847.701	15310
847.837	14781
847.972	14682
848.108	14872
848.244	14895
848.379	14746
848.515	14651
848.65	14606
848.786	14667
848.921	14602
849.057	14743
849.192	14689
849.328	14708
849.463	14708
849.598	14526
849.734	14514
849.869	14442
850.004	14377
850.14	14465
850.275	14366
850.41	14267
850.545	14328
850.68	14393
850.815	14358
850.95	14305
851.085	14568
851.22	14480
851.355	14454
851.49	14347
851.625	14396
851.76	14415
851.895	14256
852.03	14240
852.165	14343
852.299	14366
852.434	14492
852.569	14377
852.703	14404
852.838	14556
852.973	14549
853.107	14511
853.242	14389
853.376	14225
853.511	14050
853.645	14176
853.78	14461
853.914	14240
854.048	14195
854.183	14237
854.317	14214
854.451	14476
854.585	14271
854.72	14244
854.854	14244
854.988	14183
855.122	14244
855.256	14123
855.39	14256
855.524	14298
855.658	14385
855.792	14347
855.926	14351
856.06	14362
856.194	14336
856.327	14202
856.461	14199
856.595	14214
856.729	14225
856.862	14370
856.996	14362
857.13	14412
857.263	14252
857.397	14294
857.53	14286
857.664	14317
857.797	14347
857.931	14389
858.064	14332
858.197	14343
858.331	14271
858.464	14301
858.597	14142
858.731	14343
858.864	14237
858.997	14263
859.13	14355
859.263	14317
859.396	14381
859.529	14237
859.662	14263
859.795	14218
859.928	14267
860.061	14423
860.194	14408
860.327	14275
860.46	14309
860.592	14415
860.725	14419
860.858	14343
860.99	14271
861.123	14119
861.256	14191
861.388	14309
861.521	14880
861.653	14180
861.786	14107
861.918	14077
862.05	14275
862.183	14233
862.315	14164
862.447	14309
862.58	14199
862.712	14035
862.844	14046
862.976	14062
863.108	14046
863.24	14347
863.372	13989
863.504	13974
863.636	14001
863.768	14142
863.9	14043
864.032	13986
864.164	13951
864.296	14103
864.428	14054
864.559	14176
864.691	14115
864.823	14111
864.954	14168
865.086	14138
865.217	14016
865.349	13944
865.48	14054
865.612	13997
865.743	14111
865.875	14050
866.006	14039
866.137	14001
866.269	14027
866.4	14012
866.531	13967
866.662	13951
866.793	13978
866.924	13944
867.055	13970
867.186	14020
867.317	13986
867.448	13917
867.579	14001
867.71	13917
867.841	13917
867.972	14005
868.103	14050
868.233	13986
868.364	14020
868.495	14119
868.625	14271
868.756	14374
868.886	14210
869.017	14195
869.147	14370
869.278	14473
869.408	14195
869.539	14355
869.669	14282
869.799	14358
869.929	14457
870.06	14309
870.19	14648
870.32	14511
870.45	14693
870.58	14640
870.71	14716
870.84	14739
870.97	14629
871.1	14621
871.23	14895
871.36	14853
871.489	14804
871.619	14788
871.749	14838
871.879	14910
872.008	14914
872.138	14830
872.267	14895
872.397	14769
872.526	14667
872.656	14693
872.785	14754
872.915	14998
873.044	14944
873.173	14925
873.303	14902
873.432	14979
873.561	15009
873.69	14956
873.819	14887
873.948	14998
874.077	14990
874.206	14918
874.335	14963
874.464	15081
874.593	15211
874.722	15230
874.851	15142
874.979	15256
875.108	15291
875.237	15214
875.365	15013
875.494	15230
875.623	15344
875.751	15252
875.88	15291
876.008	15439
876.136	15473
876.265	15679
876.393	15819
876.521	15667
876.65	15606
876.778	15675
876.906	15568
877.034	15576
877.162	15629
877.29	15641
877.418	15549
877.546	15614
877.674	15603
877.802	15644
877.93	15641
878.058	15637
878.185	15568
878.313	15641
878.441	15633
878.568	15485
878.696	15450
878.824	15739
878.951	15797
879.079	15835
879.206	15960
879.333	15835
879.461	15724
879.588	15793
879.715	15785
879.842	15854
879.97	15751
880.097	15500
880.224	15431
880.351	15534
880.478	15557
880.605	15488
880.732	15412
880.859	15701
880.986	15523
881.112	15587
881.239	15374
881.366	15241
881.493	15150
881.619	15161
881.746	15192
881.872	15097
881.999	15104
882.125	15081
882.252	15211
882.378	15157
882.505	15367
882.631	15131
882.757	14937
882.883	15020
883.01	14941
883.136	14925
883.262	14804
883.388	14895
883.514	15009
883.64	15020
883.766	14986
883.892	14849
884.018	14739
884.143	14868
884.269	15009
884.395	14720
884.52	14750
884.646	14678
884.772	14632
884.897	14526
885.023	14746
885.148	14861
885.274	14758
885.399	14777
885.524	14686
885.65	14678
885.775	14773
885.9	14651
886.025	14712
886.15	14720
886.275	14739
886.4	14564
886.525	14678
886.65	14651
886.775	14644
886.9	14785
887.025	14800
887.149	14602
887.274	14575
887.399	14507
887.523	14476
887.648	14381
887.773	14419
887.897	14571
888.021	14564
888.146	14476
888.27	14689
888.395	14610
888.519	14549
888.643	14549
888.767	14545
888.891	14438
889.015	14332
889.139	14351
889.263	14290
889.387	14526
889.511	14617
889.635	14571
889.759	14343
889.883	14256
890.006	14454
890.13	14442
890.254	14301
890.377	14347
890.501	14153
890.624	14138
890.748	14332
890.871	14027
890.995	14027
891.118	14016
891.241	14107
891.364	14084
891.488	14195
891.611	14016
891.734	14123
891.857	14149
891.98	14050
892.103	14259
892.226	14081
892.349	14073
892.471	13879
892.594	14084
892.717	14008
892.839	14054
892.962	13974
893.085	14092
893.207	14107
893.33	14043
893.452	14008
893.575	14202
893.697	13982
893.819	14206
893.941	14294
894.064	14176
894.186	14050
894.308	14035
894.43	14229
894.552	14183
894.674	14214
894.796	14065
894.918	14096
895.04	14202
895.161	14233
895.283	14278
895.405	14081
895.526	14237
895.648	14191
895.769	14210
895.891	14252
896.012	14298
896.134	14278
896.255	14176
896.376	14164
896.498	14202
896.619	14282
896.74	14240
896.861	14313
896.982	14659
897.103	14716
897.224	14526
897.345	14465
897.466	14461
897.587	14556
897.708	14602
897.828	14629
897.949	14522
898.07	14294
898.19	14442
898.311	14617
898.431	14522
898.552	14598
898.672	14598
898.792	14632
898.913	14575
899.033	14640
899.153	14431
899.273	14370
899.393	14423
899.513	14492
899.633	14389
899.753	14476
899.873	14434
899.993	14598
900.113	14431
900.232	14602
900.352	14469
900.472	14473
900.591	14358
900.711	14320
900.83	14328
900.95	14343
901.069	14374
901.189	14290
901.308	14134
901.427	13951
901.546	13940
901.665	14081
901.784	14111
901.904	13925
902.023	13841
902.141	13624
902.26	13575
902.379	13651
902.498	13556
902.617	13552
902.735	13613
902.854	13578
902.973	13449
903.091	13244
903.21	13213
903.328	13350
903.446	13285
903.565	13156
903.683	13141
903.801	13129
903.919	13137
904.038	13042
904.156	12924
904.274	13057
904.392	12943
904.51	12973
904.627	12943
904.745	13038
904.863	12993
904.981	12753
905.098	12677
905.216	12627
905.334	12642
905.451	12616
905.569	12593
905.686	12612
905.803	12673
905.921	12445
906.038	12528
906.155	12528
906.272	12323
906.389	12372
906.506	12285
906.623	12209
906.74	12350
906.857	12079
906.974	12106
907.091	12262
907.208	12372
907.324	12209
907.441	12228
907.557	11992
907.674	12007
907.79	11851
907.907	11973
908.023	12015
908.139	12015
908.256	11984
908.372	11863
908.488	11821
908.604	11794
908.72	11653
908.836	11771
908.952	11688
909.068	11760
909.184	11809
909.3	11714
909.415	11840
909.531	11718
909.647	11474
909.762	11497
909.878	11490
909.993	11524
910.108	11455
910.224	11516
910.339	11471
910.454	11414
910.57	11368
910.685	11231
910.8	11581
910.915	11509
911.03	11391
911.145	11265
911.259	11216
911.374	11166
911.489	11151
911.604	11185
911.718	10961
911.833	10972
911.947	10972
912.062	10793
912.176	10999
912.291	10972
912.405	10995
912.519	11170
912.633	11166
912.748	11056
912.862	11022
912.976	10816
913.09	10778
913.204	10831
913.318	10820
913.431	10980
913.545	10911
913.659	11029
913.772	10729
913.886	10717
914	10744
914.113	10755
914.226	10771
914.34	10790
914.453	10664
914.566	10824
914.68	10694
914.793	10592
914.906	10527
915.019	10497
915.132	10402
915.245	10459
915.358	10478
915.47	10451
915.583	10478
915.696	10500
915.809	10668
915.921	10626
916.034	10432
916.146	10398
916.259	10390
916.371	10542
916.483	10466
916.595	10337
916.708	10447
916.82	10363
916.932	10322
917.044	10371
917.156	10375
917.268	10249
917.38	10436
917.491	10261
917.603	10394
917.715	10360
917.826	10409
917.938	10337
918.049	10227
918.161	10318
918.272	10466
918.384	10379
918.495	10386
918.606	10192
918.717	10154
918.828	10238
918.939	10185
919.05	10036
919.161	10128
919.272	10029
919.383	10059
919.494	10234
919.604	10402
919.715	10158
919.826	10188
919.936	10150
920.047	10325
920.157	10246
920.267	10436
920.378	10352
920.488	10207
920.598	10417
920.708	10523
920.818	10386
920.928	10405
921.038	10588
921.148	10538
921.258	10211
921.368	10143
921.477	9983
921.587	9987
921.697	9979
921.806	10128
921.916	9903
922.025	9751
922.134	9747
922.244	9599
922.353	9816
922.462	9637
922.571	9603
922.68	9526
922.789	9488
922.898	9389
923.007	9355
923.116	9496
923.224	9473
923.333	9416
923.442	9447
923.55	9351
923.659	9378
923.767	9408
923.876	9340
923.984	9370
924.092	9302
924.201	9336
924.309	9332
924.417	9317
924.525	9272
924.633	9287
924.741	10063
924.849	9043
924.956	9218
925.064	9081
925.172	8967
925.279	9070
925.387	9131
925.494	9127
925.602	9241
925.709	9138
925.816	9047
925.924	9036
926.031	9195
926.138	9074
926.245	9173
926.352	9024
926.459	9169
926.566	9184
926.673	9104
926.779	8963
926.886	9024
926.993	8902
927.099	8788
927.206	8769
927.312	8766
927.419	8834
927.525	8826
927.631	8880
927.737	8746
927.843	8670
927.95	8556
928.056	8674
928.162	8743
928.267	8788
928.373	9386
928.479	8815
928.585	8583
928.69	8705
928.796	8743
928.901	8640
929.007	8488
929.112	8617
929.218	8613
929.323	8556
929.428	8549
929.533	8682
929.638	8442
929.743	8560
929.848	8636
929.953	8571
930.058	8408
930.163	8313
930.267	8370
930.372	8495
930.477	8317
930.581	8545
930.685	8374
930.79	8233
930.894	8275
930.998	8199
931.103	8454
931.207	8062
931.311	8008
931.415	7936
931.519	7765
931.623	7719
