Data from test_V78500241_3332.txt Node
Date: Fri Mar 25 14:56:54 CST 2022
User: usil
Spectrometer: V785-0024
Trigger mode: 0
Integration Time (sec): 4.000000E-1
Scans to average: 1
Nonlinearity correction enabled: false
Boxcar width: 0
Storing dark spectrum: false
XAxis mode: Wavelengths
Number of Pixels in Spectrum: 1024
>>>>>Begin Spectral Data<<<<<
801.071	21998
801.214	21838
801.356	21671
801.499	21504
801.641	21340
801.783	21249
801.926	21298
802.068	21211
802.211	21104
802.353	21047
802.496	20826
802.638	20800
802.78	20781
802.923	20670
803.065	20575
803.208	20545
803.35	20686
803.492	20720
803.635	20788
803.777	20545
803.919	20811
804.061	21184
804.204	20758
804.346	20579
804.488	20446
804.63	20651
804.773	20381
804.915	20583
805.057	20541
805.199	20492
805.341	20594
805.483	20697
805.626	20663
805.768	20533
805.91	20594
806.052	20564
806.194	20507
806.336	20629
806.478	20526
806.62	20484
806.762	20484
806.904	20724
807.046	20880
807.188	20921
807.33	20765
807.472	20979
807.614	20750
807.756	20765
807.898	20720
808.04	20556
808.182	20541
808.324	20727
808.465	20629
808.607	20777
808.749	20937
808.891	20960
809.033	20944
809.174	20956
809.316	20861
809.458	20834
809.6	20899
809.741	20952
809.883	21066
810.025	21051
810.166	20952
810.308	21028
810.45	21127
810.591	20952
810.733	20845
810.875	20686
811.016	20613
811.158	20484
811.299	20788
811.441	20731
811.582	20868
811.724	20613
811.865	20651
812.007	20575
812.148	20587
812.29	20629
812.431	20750
812.573	20773
812.714	20944
812.855	21108
812.997	21321
813.138	21378
813.279	21275
813.421	21199
813.562	21036
813.703	20906
813.845	20826
813.986	20358
814.127	20282
814.268	20377
814.41	20282
814.551	20145
814.692	20290
814.833	20054
814.974	20161
815.115	20275
815.256	19913
815.397	20122
815.539	19989
815.68	19833
815.821	19860
815.962	19795
816.103	19940
816.244	19898
816.385	19719
816.526	19480
816.666	19502
816.807	19373
816.948	19499
817.089	19441
817.23	19544
817.371	19339
817.512	19350
817.653	19346
817.793	19331
817.934	19221
818.075	19339
818.216	19320
818.356	19335
818.497	19076
818.638	18935
818.778	19000
818.919	18977
819.06	19015
819.2	19053
819.341	19190
819.481	19175
819.622	19384
819.762	19434
819.903	19476
820.043	19278
820.184	19365
820.324	19274
820.465	19377
820.605	19331
820.746	19274
820.886	19228
821.026	19282
821.167	19198
821.307	19327
821.447	19270
821.588	19031
821.728	19061
821.868	18821
822.008	18719
822.149	18681
822.289	18749
822.429	18403
822.569	18308
822.709	18407
822.849	18243
822.99	18273
823.13	18239
823.27	18182
823.41	18174
823.55	18041
823.69	18034
823.83	17904
823.97	17897
824.11	17657
824.25	17767
824.389	17813
824.529	17946
824.669	17897
824.809	17916
824.949	17805
825.089	17821
825.228	17779
825.368	17760
825.508	17554
825.648	17604
825.787	17623
825.927	17615
826.067	17444
826.206	17543
826.346	17566
826.485	17554
826.625	17585
826.765	17649
826.904	17490
827.044	17417
827.183	17280
827.323	17273
827.462	17231
827.601	17341
827.741	17170
827.88	17292
828.02	17193
828.159	17311
828.298	17299
828.437	17482
828.577	17227
828.716	17326
828.855	17193
828.994	17075
829.134	17151
829.273	17136
829.412	17045
829.551	16972
829.69	16991
829.829	17098
829.968	17117
830.107	17128
830.246	17136
830.385	17090
830.524	17022
830.663	16976
830.802	16801
830.941	16748
831.08	16607
831.219	16694
831.357	16805
831.496	16904
831.635	16687
831.774	16577
831.913	16550
832.051	16478
832.19	16599
832.329	16561
832.467	16390
832.606	16447
832.744	16421
832.883	16318
833.022	16249
833.16	16363
833.299	16531
833.437	16375
833.576	16405
833.714	16451
833.852	16500
833.991	16535
834.129	16493
834.267	16516
834.406	16424
834.544	16481
834.682	16363
834.821	16421
834.959	16649
835.097	16382
835.235	16470
835.373	16375
835.511	16542
835.65	16299
835.788	16363
835.926	16265
836.064	16173
836.202	16215
836.34	16379
836.478	16451
836.615	16428
836.753	16371
836.891	16497
837.029	16329
837.167	16329
837.305	16261
837.443	16246
837.58	16238
837.718	16272
837.856	16185
837.993	16166
838.131	16226
838.269	16177
838.406	16150
838.544	16200
838.681	15922
838.819	15899
838.956	15838
839.094	15686
839.231	15831
839.369	15899
839.506	16158
839.643	15991
839.781	15739
839.918	15797
840.055	15778
840.193	15682
840.33	15884
840.467	15823
840.604	15797
840.742	16051
840.879	15671
841.016	15671
841.153	15762
841.29	15907
841.427	15800
841.564	15842
841.701	15785
841.838	15690
841.975	15690
842.112	15667
842.249	15633
842.385	15549
842.522	15679
842.659	15652
842.796	15473
842.933	15549
843.069	15549
843.206	15557
843.343	15641
843.479	15584
843.616	15519
843.752	15302
843.889	15367
844.025	15496
844.162	15348
844.298	15587
844.435	15363
844.571	15332
844.708	15435
844.844	15412
844.98	15534
845.117	15561
845.253	15336
845.389	15336
845.525	15245
845.661	15245
845.798	15176
845.934	15192
846.07	15074
846.206	15218
846.342	15222
846.478	15195
846.614	14990
846.75	14937
846.886	14872
847.022	15001
847.158	14925
847.294	14982
847.429	15024
847.565	14929
847.701	15127
847.837	14682
847.972	14697
848.108	14796
848.244	14769
848.379	14564
848.515	14564
848.65	14522
848.786	14518
848.921	14545
849.057	14590
849.192	14644
849.328	14568
849.463	14602
849.598	14526
849.734	14522
849.869	14408
850.004	14286
850.14	14320
850.275	14370
850.41	14183
850.545	14320
850.68	14278
850.815	14317
850.95	14210
851.085	14431
851.22	14442
851.355	14305
851.49	14374
851.625	14324
851.76	14362
851.895	14168
852.03	14233
852.165	14233
852.299	14252
852.434	14328
852.569	14305
852.703	14240
852.838	14332
852.973	14469
853.107	14415
853.242	14278
853.376	14123
853.511	14069
853.645	14062
853.78	14355
853.914	14248
854.048	14142
854.183	14149
854.317	14248
854.451	14366
854.585	14119
854.72	14115
854.854	14317
854.988	14130
855.122	14119
855.256	14050
855.39	14126
855.524	14172
855.658	14195
855.792	14275
855.926	14248
856.06	14290
856.194	14305
856.327	14183
856.461	14199
856.595	14145
856.729	14168
856.862	14233
856.996	14301
857.13	14282
857.263	14290
857.397	14332
857.53	14168
857.664	14271
857.797	14271
857.931	14370
858.064	14290
858.197	14282
858.331	14221
858.464	14134
858.597	14008
858.731	14149
858.864	14092
858.997	14237
859.13	14210
859.263	14210
859.396	14298
859.529	14206
859.662	14161
859.795	14069
859.928	14153
860.061	14339
860.194	14332
860.327	14168
860.46	14168
860.592	14244
860.725	14362
860.858	14278
860.99	14130
861.123	14065
861.256	14069
861.388	14248
861.521	15036
861.653	14031
861.786	13978
861.918	14008
862.05	14084
862.183	14119
862.315	14168
862.447	14180
862.58	14084
862.712	14016
862.844	13951
862.976	14008
863.108	13986
863.24	14275
863.372	13913
863.504	13856
863.636	13974
863.768	13963
863.9	13932
864.032	13921
864.164	13898
864.296	13909
864.428	14077
864.559	14046
864.691	14016
864.823	13989
864.954	14031
865.086	13944
865.217	13928
865.349	13833
865.48	13955
865.612	13875
865.743	14096
865.875	13928
866.006	13925
866.137	13875
866.269	13955
866.4	13871
866.531	13947
866.662	13830
866.793	13925
866.924	13906
867.055	13993
867.186	13993
867.317	13936
867.448	13860
867.579	13841
867.71	13841
867.841	13852
867.972	14001
868.103	14027
868.233	13925
868.364	13849
868.495	13993
868.625	14221
868.756	14259
868.886	14100
869.017	14191
869.147	14328
869.278	14248
869.408	14199
869.539	14168
869.669	14248
869.799	14210
869.929	14370
870.06	14332
870.19	14499
870.32	14469
870.45	14522
870.58	14632
870.71	14598
870.84	14777
870.97	14549
871.1	14579
871.23	14708
871.36	14735
871.489	14769
871.619	14731
871.749	14785
871.879	14834
872.008	14921
872.138	14849
872.267	14762
872.397	14629
872.526	14617
872.656	14621
872.785	14648
872.915	14781
873.044	14849
873.173	14819
873.303	14925
873.432	14918
873.561	14944
873.69	14739
873.819	14868
873.948	14975
874.077	14781
874.206	14807
874.335	14891
874.464	14967
874.593	15119
874.722	15203
874.851	15161
874.979	15135
875.108	15154
875.237	15138
875.365	15074
875.494	15138
875.623	15252
875.751	15150
875.88	15249
876.008	15294
876.136	15317
876.265	15587
876.393	15709
876.521	15686
876.65	15724
876.778	15564
876.906	15492
877.034	15595
877.162	15530
877.29	15496
877.418	15534
877.546	15610
877.674	15428
877.802	15393
877.93	15656
878.058	15492
878.185	15374
878.313	15557
878.441	15595
878.568	15428
878.696	15580
878.824	15591
878.951	15614
879.079	15724
879.206	15854
879.333	15701
879.461	15713
879.588	15800
879.715	15793
879.842	15698
879.97	15633
880.097	15424
880.224	15473
880.351	15370
880.478	15458
880.605	15313
880.732	15431
880.859	15648
880.986	15458
881.112	15382
881.239	15374
881.366	15321
881.493	15112
881.619	15017
881.746	15112
881.872	15104
881.999	15157
882.125	14963
882.252	15146
882.378	15085
882.505	15283
882.631	14971
882.757	14857
882.883	15020
883.01	14891
883.136	14921
883.262	14781
883.388	14655
883.514	14914
883.64	15020
883.766	14815
883.892	14682
884.018	14727
884.143	14963
884.269	14910
884.395	14644
884.52	14533
884.646	14511
884.772	14575
884.897	14541
885.023	14571
885.148	14629
885.274	14667
885.399	14701
885.524	14541
885.65	14625
885.775	14686
885.9	14590
886.025	14731
886.15	14716
886.275	14579
886.4	14511
886.525	14549
886.65	14484
886.775	14556
886.9	14640
887.025	14910
887.149	14598
887.274	14415
887.399	14465
887.523	14412
887.648	14381
887.773	14343
887.897	14556
888.021	14511
888.146	14355
888.27	14594
888.395	14541
888.519	14431
888.643	14499
888.767	14526
888.891	14469
889.015	14244
889.139	14362
889.263	14278
889.387	14442
889.511	14495
889.635	14412
889.759	14298
889.883	14431
890.006	14339
890.13	14343
890.254	14252
890.377	14313
890.501	14096
890.624	14050
890.748	14191
890.871	14069
890.995	14058
891.118	13852
891.241	14005
891.364	13982
891.488	14172
891.611	13963
891.734	14012
891.857	14084
891.98	14016
892.103	14084
892.226	14020
892.349	13951
892.471	13856
892.594	13997
892.717	14016
892.839	13917
892.962	14031
893.085	14157
893.207	14027
893.33	13928
893.452	13944
893.575	14100
893.697	13936
893.819	14244
893.941	14259
894.064	14084
894.186	13959
894.308	14001
894.43	14157
894.552	14278
894.674	13951
894.796	13959
894.918	13917
895.04	13932
895.161	14123
895.283	14103
895.405	13986
895.526	14069
895.648	14035
895.769	14153
895.891	14062
896.012	14164
896.134	14244
896.255	14130
896.376	14130
896.498	14111
896.619	14210
896.74	14164
896.861	14282
896.982	14473
897.103	14640
897.224	14484
897.345	14404
897.466	14393
897.587	14415
897.708	14579
897.828	14457
897.949	14427
898.07	14370
898.19	14454
898.311	14625
898.431	14503
898.552	14469
898.672	14640
898.792	14560
898.913	14678
899.033	14431
899.153	14396
899.273	14305
899.393	14351
899.513	14351
899.633	14377
899.753	14377
899.873	14366
899.993	14412
900.113	14355
900.232	14381
900.352	14248
900.472	14324
900.591	14218
900.711	14343
900.83	14191
900.95	14294
901.069	14244
901.189	14210
901.308	13951
901.427	13913
901.546	13868
901.665	13894
901.784	13959
901.904	13811
902.023	13647
902.141	13544
902.26	13483
902.379	13567
902.498	13411
902.617	13468
902.735	13533
902.854	13449
902.973	13369
903.091	13285
903.21	13209
903.328	13194
903.446	13171
903.565	12973
903.683	13015
903.801	13034
903.919	12970
904.038	12996
904.156	12859
904.274	12958
904.392	12859
904.51	12833
904.627	12894
904.745	12878
904.863	12951
904.981	12650
905.098	12662
905.216	12536
905.334	12612
905.451	12601
905.569	12532
905.686	12642
905.803	12513
905.921	12334
906.038	12506
906.155	12403
906.272	12323
906.389	12315
906.506	12213
906.623	12079
906.74	12194
906.857	11992
906.974	12121
907.091	12148
907.208	12243
907.324	12197
907.441	12091
907.557	11920
907.674	11912
907.79	11805
907.907	11847
908.023	12003
908.139	11920
908.256	11828
908.372	11904
908.488	11771
908.604	11634
908.72	11710
908.836	11623
908.952	11653
909.068	11665
909.184	11805
909.3	11714
909.415	11764
909.531	11748
909.647	11478
909.762	11440
909.878	11440
909.993	11486
910.108	11425
910.224	11429
910.339	11410
910.454	11395
910.57	11242
910.685	11341
910.8	11532
910.915	11383
911.03	11174
911.145	11124
911.259	11056
911.374	11094
911.489	11102
911.604	10999
911.718	10938
911.833	10892
911.947	10778
912.062	10744
912.176	10946
912.291	10877
912.405	10873
912.519	11102
912.633	11181
912.748	11006
912.862	10927
912.976	10812
913.09	10694
913.204	10717
913.318	10755
913.431	10885
913.545	10892
913.659	10987
913.772	10767
913.886	10725
914	10569
914.113	10729
914.226	10843
914.34	10714
914.453	10596
914.566	10755
914.68	10691
914.793	10550
914.906	10455
915.019	10352
915.132	10276
915.245	10360
915.358	10428
915.47	10428
915.583	10394
915.696	10481
915.809	10550
915.921	10523
916.034	10462
916.146	10329
916.259	10417
916.371	10459
916.483	10375
916.595	10363
916.708	10360
916.82	10238
916.932	10318
917.044	10352
917.156	10253
917.268	10230
917.38	10333
917.491	10257
917.603	10276
917.715	10367
917.826	10405
917.938	10211
918.049	10162
918.161	10188
918.272	10344
918.384	10413
918.495	10356
918.606	10128
918.717	10063
918.828	10116
918.939	10192
919.05	10074
919.161	10082
919.272	9934
919.383	9956
919.494	10177
919.604	10352
919.715	10124
919.826	10063
919.936	10135
920.047	10188
920.157	10166
920.267	10405
920.378	10207
920.488	10093
920.598	10386
920.708	10402
920.818	10344
920.928	10424
921.038	10565
921.148	10440
921.258	10223
921.368	10093
921.477	9987
921.587	9991
921.697	9857
921.806	10044
921.916	9880
922.025	9747
922.134	9732
922.244	9599
922.353	9675
922.462	9549
922.571	9545
922.68	9412
922.789	9359
922.898	9450
923.007	9359
923.116	9466
923.224	9401
923.333	9344
923.442	9302
923.55	9287
923.659	9355
923.767	9329
923.876	9218
923.984	9298
924.092	9218
924.201	9306
924.309	9237
924.417	9291
924.525	9233
924.633	9241
924.741	10147
924.849	9066
924.956	9165
925.064	9100
925.172	8963
925.279	8994
925.387	9100
925.494	8975
925.602	9184
925.709	9123
925.816	9024
925.924	9020
926.031	9222
926.138	9074
926.245	9062
926.352	9005
926.459	9135
926.566	9150
926.673	9100
926.779	8933
926.886	8918
926.993	8758
927.099	8754
927.206	8754
927.312	8796
927.419	8823
927.525	8754
927.631	8807
927.737	8693
927.843	8659
927.95	8594
928.056	8617
928.162	8735
928.267	8678
928.373	9351
928.479	8716
928.585	8583
928.69	8640
928.796	8712
928.901	8598
929.007	8495
929.112	8606
929.218	8636
929.323	8465
929.428	8522
929.533	8571
929.638	8454
929.743	8454
929.848	8518
929.953	8454
930.058	8423
930.163	8206
930.267	8202
930.372	8374
930.477	8282
930.581	8461
930.685	8259
930.79	8183
930.894	8271
930.998	8164
931.103	8294
931.207	8005
931.311	7902
931.415	7841
931.519	7788
931.623	7685
