Data from test_V78500241_842.txt Node
Date: Fri Mar 25 14:39:34 CST 2022
User: usil
Spectrometer: V785-0024
Trigger mode: 0
Integration Time (sec): 4.000000E-1
Scans to average: 1
Nonlinearity correction enabled: false
Boxcar width: 0
Storing dark spectrum: false
XAxis mode: Wavelengths
Number of Pixels in Spectrum: 1024
>>>>>Begin Spectral Data<<<<<
801.071	26054
801.214	25894
801.356	25613
801.499	25704
801.641	25365
801.783	25354
801.926	25297
802.068	25251
802.211	25137
802.353	25053
802.496	24920
802.638	24829
802.78	24878
802.923	24783
803.065	24658
803.208	24654
803.35	24894
803.492	24916
803.635	24875
803.777	24802
803.919	24806
804.061	25164
804.204	25008
804.346	24901
804.488	24745
804.63	24837
804.773	24829
804.915	24996
805.057	25156
805.199	25012
805.341	25046
805.483	25225
805.626	25152
805.768	25114
805.91	25232
806.052	25362
806.194	25422
806.336	25601
806.478	25571
806.62	25712
806.762	26039
806.904	26126
807.046	26617
807.188	26800
807.33	27013
807.472	27378
807.614	27732
807.756	28143
807.898	28877
808.04	29672
808.182	30943
808.324	32503
808.465	34192
808.607	36087
808.749	37803
808.891	38826
809.033	39024
809.174	37803
809.316	36091
809.458	34238
809.6	32153
809.741	30696
809.883	29520
810.025	28748
810.166	28048
810.308	27660
810.45	27108
810.591	26944
810.733	26511
810.875	26259
811.016	25932
811.158	25841
811.299	25989
811.441	25898
811.582	25723
811.724	25605
811.865	25578
812.007	25339
812.148	25468
812.29	25415
812.431	25472
812.573	25685
812.714	25811
812.855	25803
812.997	25906
813.138	25719
813.279	25647
813.421	25723
813.562	25567
813.703	25400
813.845	25293
813.986	25015
814.127	24722
814.268	24582
814.41	24768
814.551	24570
814.692	24692
814.833	24486
814.974	24361
815.115	24528
815.256	24342
815.397	24372
815.539	24407
815.68	24300
815.821	24133
815.962	24186
816.103	24102
816.244	24049
816.385	23996
816.526	23878
816.666	23600
816.807	23520
816.948	23543
817.089	23687
817.23	23634
817.371	23592
817.512	23543
817.653	23459
817.793	23459
817.934	23330
818.075	23592
818.216	23482
818.356	23490
818.497	23318
818.638	22984
818.778	23121
818.919	23178
819.06	23181
819.2	23178
819.341	23398
819.481	23406
819.622	23535
819.762	23707
819.903	23543
820.043	23497
820.184	23505
820.324	23261
820.465	23471
820.605	23463
820.746	23330
820.886	23174
821.026	23220
821.167	23303
821.307	23303
821.447	23212
821.588	22995
821.728	23037
821.868	22873
822.008	22660
822.149	22645
822.289	22561
822.429	22428
822.569	22310
822.709	22348
822.849	22147
822.99	22135
823.13	22078
823.27	22032
823.41	21907
823.55	21873
823.69	21831
823.83	21888
823.97	21759
824.11	21770
824.25	21553
824.389	21648
824.529	21747
824.669	21743
824.809	21728
824.949	21701
825.089	21667
825.228	21732
825.368	21679
825.508	21405
825.648	21458
825.787	21405
825.927	21507
826.067	21447
826.206	21477
826.346	21507
826.485	21466
826.625	21477
826.765	21603
826.904	21401
827.044	21188
827.183	21100
827.323	21154
827.462	21085
827.601	21085
827.741	21070
827.88	21062
828.02	20975
828.159	21058
828.298	21135
828.437	21150
828.577	20963
828.716	21272
828.855	20891
828.994	20925
829.134	20883
829.273	20727
829.412	20724
829.551	20697
829.69	20758
829.829	20720
829.968	20880
830.107	20868
830.246	20845
830.385	20811
830.524	20785
830.663	20560
830.802	20533
830.941	20431
831.08	20389
831.219	20473
831.357	20412
831.496	20636
831.635	20347
831.774	20343
831.913	20275
832.051	20187
832.19	20176
832.329	20286
832.467	20225
832.606	20176
832.744	20168
832.883	20176
833.022	20313
833.16	20282
833.299	20389
833.437	20476
833.576	20507
833.714	20617
833.852	20659
833.991	20743
834.129	20880
834.267	20735
834.406	20716
834.544	20773
834.682	20712
834.821	20590
834.959	20807
835.097	20427
835.235	20507
835.373	20313
835.511	20351
835.65	20164
835.788	20130
835.926	20065
836.064	19811
836.202	19917
836.34	19993
836.478	20122
836.615	19921
836.753	20031
836.891	20115
837.029	19940
837.167	19841
837.305	19955
837.443	19814
837.58	19628
837.718	19921
837.856	19822
837.993	19658
838.131	19708
838.269	19677
838.406	19734
838.544	19567
838.681	19460
838.819	19396
838.956	19228
839.094	19179
839.231	19289
839.369	19388
839.506	19685
839.643	19487
839.781	19228
839.918	19156
840.055	19304
840.193	19228
840.33	19156
840.467	19217
840.604	19251
840.742	19529
840.879	19129
841.016	19099
841.153	19133
841.29	19255
841.427	19301
841.564	19259
841.701	19187
841.838	19236
841.975	19103
842.112	19031
842.249	19012
842.385	18981
842.522	19076
842.659	18973
842.796	18920
842.933	19004
843.069	18878
843.206	19000
843.343	19053
843.479	19023
843.616	19027
843.752	18886
843.889	18867
844.025	19065
844.162	18821
844.298	19168
844.435	19114
844.571	19107
844.708	19392
844.844	19643
844.98	19955
845.117	20206
845.253	20632
845.389	21648
845.525	23615
845.661	26876
845.798	30722
845.934	33873
846.07	35117
846.206	34569
846.342	32024
846.478	28048
846.614	24563
846.75	22105
846.886	20762
847.022	20027
847.158	19529
847.294	19164
847.429	19004
847.565	18795
847.701	18867
847.837	18308
847.972	18258
848.108	18308
848.244	18365
848.379	18034
848.515	17939
848.65	17920
848.786	17927
848.921	17889
849.057	17965
849.192	18030
849.328	17904
849.463	17878
849.598	17741
849.734	17733
849.869	17733
850.004	17714
850.14	17634
850.275	17543
850.41	17589
850.545	17490
850.68	17611
850.815	17592
850.95	17547
851.085	17760
851.22	17687
851.355	17600
851.49	17512
851.625	17402
851.76	17554
851.895	17551
852.03	17486
852.165	17486
852.299	17630
852.434	17611
852.569	17657
852.703	17619
852.838	17745
852.973	17798
853.107	17748
853.242	17646
853.376	17524
853.511	17516
853.645	17634
853.78	17680
853.914	17676
854.048	17577
854.183	17604
854.317	17714
854.451	17920
854.585	17760
854.72	17596
854.854	17760
854.988	17524
855.122	17554
855.256	17471
855.39	17524
855.524	17695
855.658	17589
855.792	17493
855.926	17516
856.06	17455
856.194	17608
856.327	17311
856.461	17429
856.595	17406
856.729	17436
856.862	17467
856.996	17448
857.13	17501
857.263	17611
857.397	17482
857.53	17383
857.664	17634
857.797	17493
857.931	17509
858.064	17349
858.197	17459
858.331	17273
858.464	17296
858.597	17189
858.731	17189
858.864	17318
858.997	17197
859.13	17459
859.263	17273
859.396	17436
859.529	17360
859.662	17330
859.795	17265
859.928	17349
860.061	17463
860.194	17490
860.327	17265
860.46	17242
860.592	17395
860.725	17349
860.858	17474
860.99	17322
861.123	17220
861.256	17178
861.388	17311
861.521	17965
861.653	17159
861.786	17212
861.918	17132
862.05	17265
862.183	17261
862.315	17376
862.447	17414
862.58	17296
862.712	17018
862.844	16949
862.976	17121
863.108	17090
863.24	17383
863.372	16850
863.504	17041
863.636	17018
863.768	17010
863.9	17045
864.032	16938
864.164	16976
864.296	17105
864.428	17037
864.559	17143
864.691	17014
864.823	17064
864.954	17102
865.086	17143
865.217	16927
865.349	16892
865.48	16976
865.612	17018
865.743	17147
865.875	16919
866.006	16976
866.137	16961
866.269	16885
866.4	16953
866.531	16885
866.662	16778
866.793	16896
866.924	16831
867.055	16908
867.186	16858
867.317	16927
867.448	16782
867.579	16828
867.71	16771
867.841	16729
867.972	16972
868.103	16831
868.233	16957
868.364	16930
868.495	17048
868.625	17048
868.756	17239
868.886	16987
869.017	17140
869.147	17185
869.278	17208
869.408	17136
869.539	17277
869.669	17269
869.799	17181
869.929	17379
870.06	17353
870.19	17551
870.32	17414
870.45	17554
870.58	17615
870.71	17680
870.84	17733
870.97	17600
871.1	17509
871.23	17745
871.36	17783
871.489	17729
871.619	17870
871.749	17855
871.879	17866
872.008	17885
872.138	17927
872.267	17859
872.397	17672
872.526	17783
872.656	17741
872.785	17764
872.915	17893
873.044	18087
873.173	18007
873.303	17965
873.432	18098
873.561	18003
873.69	18110
873.819	18076
873.948	18121
874.077	18083
874.206	18019
874.335	18136
874.464	18201
874.593	18228
874.722	18311
874.851	18433
874.979	18448
875.108	18532
875.237	18350
875.365	18391
875.494	18551
875.623	18646
875.751	18422
875.88	18528
876.008	18707
876.136	18882
876.265	18993
876.393	19137
876.521	19255
876.65	19148
876.778	19278
876.906	19118
877.034	19080
877.162	19384
877.29	19175
877.418	19320
877.546	19453
877.674	19514
877.802	19590
877.93	19601
878.058	19681
878.185	19715
878.313	19879
878.441	20176
878.568	20275
878.696	20720
878.824	21165
878.951	21926
879.079	22828
879.206	24186
879.333	25369
879.461	26233
879.588	26861
879.715	26887
879.842	26415
879.97	25270
880.097	23710
880.224	22957
880.351	22207
880.478	21622
880.605	21294
880.732	21062
880.859	21218
880.986	20986
881.112	20785
881.239	20705
881.366	20640
881.493	20492
881.619	20423
881.746	20552
881.872	20511
881.999	20571
882.125	20404
882.252	20560
882.378	20518
882.505	20701
882.631	20518
882.757	20362
882.883	20507
883.01	20370
883.136	20305
883.262	20282
883.388	20111
883.514	20301
883.64	20305
883.766	20298
883.892	20088
884.018	20225
884.143	20336
884.269	20434
884.395	20218
884.52	20005
884.646	20081
884.772	19947
884.897	20039
885.023	20065
885.148	20111
885.274	20134
885.399	20031
885.524	19921
885.65	20020
885.775	19936
885.9	19776
886.025	19776
886.15	19635
886.275	19384
886.4	19270
886.525	19171
886.65	19206
886.775	19095
886.9	19251
887.025	19247
887.149	18901
887.274	18867
887.399	18608
887.523	18730
887.648	18566
887.773	18429
887.897	18483
888.021	18475
888.146	18410
888.27	18525
888.395	18471
888.519	18391
888.643	18342
888.767	18350
888.891	18190
889.015	18079
889.139	18106
889.263	17969
889.387	18060
889.511	18174
889.635	18110
889.759	18003
889.883	17965
890.006	18034
890.13	18072
890.254	17695
890.377	17863
890.501	17668
890.624	17630
890.748	17600
890.871	17528
890.995	17296
891.118	17486
891.241	17463
891.364	17417
891.488	17459
891.611	17364
891.734	17231
891.857	17436
891.98	17330
892.103	17315
892.226	17280
892.349	17288
892.471	17079
892.594	17189
892.717	17231
892.839	17128
892.962	17075
893.085	17220
893.207	17166
893.33	16995
893.452	16961
893.575	17003
893.697	16961
893.819	17102
893.941	17258
894.064	17136
894.186	16984
894.308	16957
894.43	17094
894.552	17162
894.674	17143
894.796	16949
894.918	16938
895.04	16965
895.161	16995
895.283	17045
895.405	16877
895.526	16934
895.648	16911
895.769	16923
895.891	16999
896.012	17109
896.134	17014
896.255	17060
896.376	16915
896.498	16934
896.619	17022
896.74	16900
896.861	17052
896.982	17242
897.103	17315
897.224	17102
897.345	17208
897.466	17098
897.587	17090
897.708	17299
897.828	17151
897.949	17102
898.07	16965
898.19	17052
898.311	17250
898.431	17045
898.552	17288
898.672	17303
898.792	17269
898.913	17223
899.033	17060
899.153	17041
899.273	16843
899.393	16953
899.513	16987
899.633	17045
899.753	17018
899.873	16923
899.993	17014
900.113	17022
900.232	17006
900.352	17048
900.472	16877
900.591	16710
900.711	16782
900.83	16816
900.95	16961
901.069	16911
901.189	16801
901.308	16504
901.427	16451
901.546	16421
901.665	16459
901.784	16474
901.904	16314
902.023	16204
902.141	15945
902.26	15884
902.379	16059
902.498	15926
902.617	15903
902.735	15880
902.854	15827
902.973	15789
903.091	15747
903.21	15576
903.328	15587
903.446	15511
903.565	15378
903.683	15363
903.801	15268
903.919	15466
904.038	15351
904.156	15233
904.274	15176
904.392	15161
904.51	15150
904.627	15173
904.745	15226
904.863	15176
904.981	14899
905.098	14826
905.216	14861
905.334	14902
905.451	14864
905.569	14777
905.686	14853
905.803	14826
905.921	14575
906.038	14788
906.155	14659
906.272	14488
906.389	14522
906.506	14461
906.623	14366
906.74	14317
906.857	14191
906.974	14233
907.091	14339
907.208	14438
907.324	14298
907.441	14199
907.557	14161
907.674	14096
907.79	14039
907.907	14001
908.023	14111
908.139	14103
908.256	14020
908.372	13989
908.488	13982
908.604	13677
908.72	13712
908.836	13811
908.952	13757
909.068	13841
909.184	13845
909.3	13795
909.415	13795
909.531	13746
909.647	13529
909.762	13571
909.878	13502
909.993	13563
910.108	13400
910.224	13422
910.339	13533
910.454	13434
910.57	13411
910.685	13164
910.8	13567
910.915	13495
911.03	13388
911.145	13179
911.259	13209
911.374	13171
911.489	13076
911.604	12996
911.718	12882
911.833	12947
911.947	12833
912.062	12726
912.176	12825
912.291	12909
912.405	12905
912.519	13053
912.633	13072
912.748	12981
912.862	12909
912.976	12760
913.09	12658
913.204	12665
913.318	12749
913.431	12932
913.545	12890
913.659	12825
913.772	12658
913.886	12601
914	12631
914.113	12673
914.226	12654
914.34	12684
914.453	12563
914.566	12711
914.68	12441
914.793	12456
914.906	12403
915.019	12304
915.132	12254
915.245	12266
915.358	12407
915.47	12330
915.583	12361
915.696	12311
915.809	12467
915.921	12475
916.034	12251
916.146	12323
916.259	12243
916.371	12403
916.483	12369
916.595	12224
916.708	12323
916.82	12270
916.932	12273
917.044	12266
917.156	12239
917.268	12133
917.38	12167
917.491	12079
917.603	12076
917.715	12152
917.826	12205
917.938	12098
918.049	11965
918.161	12106
918.272	12152
918.384	12144
918.495	12049
918.606	11920
918.717	11756
918.828	11809
918.939	11961
919.05	11710
919.161	11916
919.272	11714
919.383	11760
919.494	11969
919.604	12041
919.715	11851
919.826	11851
919.936	11817
920.047	11920
920.157	11866
920.267	12095
920.378	11783
920.488	11828
920.598	12083
920.708	12175
920.818	12034
920.928	12038
921.038	12144
921.148	12152
921.258	11931
921.368	11786
921.477	11691
921.587	11680
921.697	11566
921.806	11672
921.916	11570
922.025	11364
922.134	11345
922.244	11265
922.353	11315
922.462	11170
922.571	11151
922.68	11098
922.789	10968
922.898	11018
923.007	11014
923.116	11033
923.224	11045
923.333	11056
923.442	10892
923.55	10850
923.659	10930
923.767	10942
923.876	10831
923.984	10839
924.092	10706
924.201	10869
924.309	10843
924.417	10835
924.525	10767
924.633	10778
924.741	11665
924.849	10618
924.956	10710
925.064	10611
925.172	10421
925.279	10519
925.387	10596
925.494	10523
925.602	10767
925.709	10611
925.816	10440
925.924	10500
926.031	10599
926.138	10504
926.245	10538
926.352	10424
926.459	10626
926.566	10584
926.673	10504
926.779	10344
926.886	10409
926.993	10188
927.099	10200
927.206	10219
927.312	10211
927.419	10257
927.525	10185
927.631	10223
927.737	10143
927.843	10131
927.95	9941
928.056	10116
928.162	10059
928.267	10120
928.373	10717
928.479	10200
928.585	9960
928.69	10143
928.796	10101
928.901	10051
929.007	9888
929.112	9949
929.218	9945
929.323	9915
929.428	9994
929.533	9945
929.638	9808
929.743	9880
929.848	9873
929.953	9812
930.058	9774
930.163	9648
930.267	9675
930.372	9759
930.477	9614
930.581	9854
930.685	9675
930.79	9507
930.894	9545
930.998	9492
931.103	9705
931.207	9336
931.311	9256
931.415	9237
931.519	8914
931.623	8963
