Data from test_V78500241_3082.txt Node
Date: Fri Mar 25 14:55:10 CST 2022
User: usil
Spectrometer: V785-0024
Trigger mode: 0
Integration Time (sec): 4.000000E-1
Scans to average: 1
Nonlinearity correction enabled: false
Boxcar width: 0
Storing dark spectrum: false
XAxis mode: Wavelengths
Number of Pixels in Spectrum: 1024
>>>>>Begin Spectral Data<<<<<
801.071	21994
801.214	21960
801.356	21759
801.499	21671
801.641	21542
801.783	21370
801.926	21401
802.068	21428
802.211	21344
802.353	21294
802.496	21085
802.638	20880
802.78	20895
802.923	20925
803.065	20845
803.208	20705
803.35	20819
803.492	20998
803.635	20864
803.777	20625
803.919	20902
804.061	21123
804.204	20857
804.346	20724
804.488	20632
804.63	20762
804.773	20689
804.915	20743
805.057	20697
805.199	20629
805.341	20735
805.483	20727
805.626	20750
805.768	20575
805.91	20629
806.052	20746
806.194	20758
806.336	20735
806.478	20705
806.62	20598
806.762	20731
806.904	20815
807.046	21093
807.188	21032
807.33	20990
807.472	21058
807.614	20880
807.756	21020
807.898	20758
808.04	20727
808.182	20762
808.324	20815
808.465	20800
808.607	20937
808.749	21055
808.891	21089
809.033	21135
809.174	21108
809.316	21051
809.458	21081
809.6	21074
809.741	21089
809.883	21127
810.025	21233
810.166	21298
810.308	21256
810.45	21131
810.591	21051
810.733	20956
810.875	20853
811.016	20659
811.158	20655
811.299	20899
811.441	20880
811.582	20929
811.724	20834
811.865	20800
812.007	20788
812.148	20788
812.29	21020
812.431	20883
812.573	21146
812.714	21176
812.855	21351
812.997	21355
813.138	21530
813.279	21466
813.421	21340
813.562	21131
813.703	21195
813.845	20933
813.986	20765
814.127	20438
814.268	20438
814.41	20328
814.551	20240
814.692	20408
814.833	20237
814.974	20366
815.115	20358
815.256	20252
815.397	20077
815.539	20149
815.68	20229
815.821	20081
815.962	20134
816.103	20043
816.244	20016
816.385	19837
816.526	19734
816.666	19719
816.807	19556
816.948	19578
817.089	19518
817.23	19518
817.371	19449
817.512	19529
817.653	19506
817.793	19335
817.934	19445
818.075	19483
818.216	19510
818.356	19510
818.497	19343
818.638	19160
818.778	19148
818.919	19171
819.06	19206
819.2	19365
819.341	19457
819.481	19308
819.622	19518
819.762	19856
819.903	19510
820.043	19559
820.184	19483
820.324	19392
820.465	19563
820.605	19457
820.746	19613
820.886	19343
821.026	19502
821.167	19480
821.307	19525
821.447	19499
821.588	19168
821.728	19133
821.868	19137
822.008	18863
822.149	18871
822.289	18882
822.429	18681
822.569	18544
822.709	18578
822.849	18414
822.99	18285
823.13	18300
823.27	18361
823.41	18140
823.55	18167
823.69	18213
823.83	18266
823.97	18133
824.11	17996
824.25	17927
824.389	17946
824.529	17961
824.669	17958
824.809	18011
824.949	18121
825.089	18053
825.228	17923
825.368	17756
825.508	17729
825.648	17813
825.787	17726
825.927	17779
826.067	17676
826.206	17733
826.346	17775
826.485	17722
826.625	17714
826.765	17908
826.904	17805
827.044	17505
827.183	17532
827.323	17391
827.462	17551
827.601	17349
827.741	17501
827.88	17474
828.02	17280
828.159	17372
828.298	17501
828.437	17425
828.577	17261
828.716	17455
828.855	17326
828.994	17231
829.134	17174
829.273	17132
829.412	17151
829.551	17090
829.69	17185
829.829	17189
829.968	17326
830.107	17258
830.246	17208
830.385	17124
830.524	17121
830.663	16987
830.802	16968
830.941	16786
831.08	16725
831.219	16820
831.357	16854
831.496	17052
831.635	16767
831.774	16782
831.913	16672
832.051	16569
832.19	16447
832.329	16710
832.467	16436
832.606	16375
832.744	16417
832.883	16470
833.022	16447
833.16	16432
833.299	16531
833.437	16413
833.576	16390
833.714	16535
833.852	16497
833.991	16447
834.129	16580
834.267	16538
834.406	16497
834.544	16432
834.682	16580
834.821	16508
834.959	16599
835.097	16485
835.235	16706
835.373	16592
835.511	16497
835.65	16398
835.788	16413
835.926	16287
836.064	16200
836.202	16284
836.34	16440
836.478	16565
836.615	16466
836.753	16462
836.891	16554
837.029	16466
837.167	16318
837.305	16413
837.443	16299
837.58	16207
837.718	16402
837.856	16238
837.993	16249
838.131	16303
838.269	16120
838.406	16196
838.544	16181
838.681	15979
838.819	15930
838.956	15770
839.094	15759
839.231	15892
839.369	15918
839.506	16147
839.643	15998
839.781	15998
839.918	15800
840.055	15861
840.193	15793
840.33	15816
840.467	15873
840.604	15827
840.742	16059
840.879	15720
841.016	15736
841.153	15751
841.29	15949
841.427	15865
841.564	15785
841.701	15816
841.838	15819
841.975	15732
842.112	15720
842.249	15637
842.385	15568
842.522	15701
842.659	15663
842.796	15526
842.933	15622
843.069	15523
843.206	15622
843.343	15755
843.479	15618
843.616	15663
843.752	15428
843.889	15370
844.025	15580
844.162	15378
844.298	15545
844.435	15454
844.571	15291
844.708	15492
844.844	15557
844.98	15629
845.117	15496
845.253	15325
845.389	15272
845.525	15431
845.661	15237
845.798	15199
845.934	15226
846.07	15138
846.206	15233
846.342	15310
846.478	15188
846.614	14960
846.75	15005
846.886	14956
847.022	15085
847.158	14925
847.294	14967
847.429	14975
847.565	14948
847.701	15138
847.837	14689
847.972	14693
848.108	14796
848.244	14720
848.379	14602
848.515	14537
848.65	14518
848.786	14488
848.921	14682
849.057	14674
849.192	14598
849.328	14636
849.463	14617
849.598	14625
849.734	14484
849.869	14495
850.004	14358
850.14	14408
850.275	14328
850.41	14278
850.545	14355
850.68	14271
850.815	14275
850.95	14484
851.085	14484
851.22	14431
851.355	14366
851.49	14263
851.625	14320
851.76	14294
851.895	14172
852.03	14161
852.165	14259
852.299	14286
852.434	14358
852.569	14305
852.703	14343
852.838	14495
852.973	14442
853.107	14560
853.242	14358
853.376	14202
853.511	14046
853.645	14180
853.78	14355
853.914	14225
854.048	14176
854.183	14183
854.317	14252
854.451	14320
854.585	14233
854.72	14145
854.854	14252
854.988	14145
855.122	14088
855.256	14020
855.39	14126
855.524	14290
855.658	14240
855.792	14187
855.926	14259
856.06	14206
856.194	14336
856.327	14218
856.461	14240
856.595	14145
856.729	14199
856.862	14278
856.996	14210
857.13	14328
857.263	14237
857.397	14282
857.53	14180
857.664	14221
857.797	14309
857.931	14400
858.064	14206
858.197	14355
858.331	14191
858.464	14221
858.597	14092
858.731	14195
858.864	14058
858.997	14142
859.13	14263
859.263	14252
859.396	14328
859.529	14138
859.662	14191
859.795	14244
859.928	14259
860.061	14343
860.194	14404
860.327	14275
860.46	14221
860.592	14309
860.725	14370
860.858	14282
860.99	14218
861.123	14214
861.256	14145
861.388	14202
861.521	14899
861.653	14187
861.786	14024
861.918	14035
862.05	14081
862.183	14130
862.315	14214
862.447	14180
862.58	14176
862.712	14058
862.844	13856
862.976	14065
863.108	14008
863.24	14317
863.372	13894
863.504	13963
863.636	14020
863.768	14077
863.9	13959
864.032	13818
864.164	13921
864.296	13982
864.428	14096
864.559	14084
864.691	14043
864.823	14043
864.954	13982
865.086	14043
865.217	13967
865.349	13837
865.48	13993
865.612	13997
865.743	14149
865.875	13951
866.006	13982
866.137	14039
866.269	13890
866.4	13951
866.531	13837
866.662	13997
866.793	13883
866.924	13921
867.055	13982
867.186	13898
867.317	13852
867.448	13864
867.579	13894
867.71	13795
867.841	13845
867.972	13856
868.103	13967
868.233	13940
868.364	14062
868.495	14088
868.625	14081
868.756	14278
868.886	14172
869.017	14180
869.147	14301
869.278	14275
869.408	14282
869.539	14149
869.669	14309
869.799	14164
869.929	14366
870.06	14328
870.19	14522
870.32	14431
870.45	14530
870.58	14686
870.71	14651
870.84	14689
870.97	14663
871.1	14644
871.23	14769
871.36	14758
871.489	14693
871.619	14811
871.749	14769
871.879	14823
872.008	14853
872.138	14868
872.267	14834
872.397	14583
872.526	14701
872.656	14632
872.785	14640
872.915	14781
873.044	14921
873.173	14819
873.303	14929
873.432	14834
873.561	14963
873.69	14819
873.819	14807
873.948	14929
874.077	14800
874.206	14925
874.335	14864
874.464	15020
874.593	15123
874.722	15013
874.851	15165
874.979	15123
875.108	15184
875.237	15070
875.365	15135
875.494	15142
875.623	15329
875.751	15146
875.88	15260
876.008	15321
876.136	15450
876.265	15515
876.393	15800
876.521	15675
876.65	15694
876.778	15595
876.906	15538
877.034	15568
877.162	15580
877.29	15549
877.418	15576
877.546	15485
877.674	15614
877.802	15656
877.93	15629
878.058	15530
878.185	15450
878.313	15618
878.441	15568
878.568	15443
878.696	15553
878.824	15644
878.951	15663
879.079	15618
879.206	15979
879.333	15682
879.461	15739
879.588	15701
879.715	15751
879.842	15838
879.97	15732
880.097	15473
880.224	15408
880.351	15447
880.478	15477
880.605	15401
880.732	15488
880.859	15705
880.986	15519
881.112	15481
881.239	15344
881.366	15321
881.493	15119
881.619	15043
881.746	15157
881.872	15097
881.999	15043
882.125	15051
882.252	15112
882.378	15214
882.505	15211
882.631	15009
882.757	14952
882.883	14906
883.01	14933
883.136	14906
883.262	14773
883.388	14739
883.514	15032
883.64	14918
883.766	14819
883.892	14686
884.018	14838
884.143	14975
884.269	14979
884.395	14670
884.52	14552
884.646	14610
884.772	14537
884.897	14476
885.023	14587
885.148	14754
885.274	14705
885.399	14670
885.524	14689
885.65	14590
885.775	14644
885.9	14606
886.025	14804
886.15	14701
886.275	14568
886.4	14495
886.525	14560
886.65	14461
886.775	14560
886.9	14644
887.025	14796
887.149	14629
887.274	14457
887.399	14454
887.523	14370
887.648	14419
887.773	14278
887.897	14579
888.021	14484
888.146	14480
888.27	14549
888.395	14629
888.519	14503
888.643	14503
888.767	14530
888.891	14313
889.015	14183
889.139	14393
889.263	14301
889.387	14427
889.511	14514
889.635	14412
889.759	14267
889.883	14233
890.006	14305
890.13	14381
890.254	14225
890.377	14278
890.501	14027
890.624	14115
890.748	14130
890.871	14035
890.995	14065
891.118	13868
891.241	14092
891.364	14103
891.488	14100
891.611	13978
891.734	13936
891.857	14005
891.98	14008
892.103	14046
892.226	14065
892.349	13967
892.471	13864
892.594	13967
892.717	13970
892.839	13909
892.962	14046
893.085	14016
893.207	14016
893.33	13887
893.452	13982
893.575	14088
893.697	13955
893.819	14111
893.941	14168
894.064	14088
894.186	14069
894.308	13909
894.43	14142
894.552	14202
894.674	14145
894.796	13989
894.918	14073
895.04	14100
895.161	14157
895.283	14119
895.405	14035
895.526	14126
895.648	14195
895.769	14111
895.891	14134
896.012	14206
896.134	14161
896.255	14221
896.376	14202
896.498	14237
896.619	14248
896.74	14123
896.861	14267
896.982	14549
897.103	14727
897.224	14423
897.345	14469
897.466	14366
897.587	14465
897.708	14670
897.828	14476
897.949	14374
898.07	14358
898.19	14461
898.311	14522
898.431	14469
898.552	14583
898.672	14636
898.792	14746
898.913	14568
899.033	14419
899.153	14396
899.273	14290
899.393	14393
899.513	14431
899.633	14465
899.753	14469
899.873	14343
899.993	14461
900.113	14412
900.232	14423
900.352	14355
900.472	14324
900.591	14298
900.711	14240
900.83	14278
900.95	14381
901.069	14393
901.189	14168
901.308	13887
901.427	13951
901.546	14012
901.665	14043
901.784	14054
901.904	13849
902.023	13826
902.141	13521
902.26	13476
902.379	13628
902.498	13533
902.617	13434
902.735	13571
902.854	13533
902.973	13388
903.091	13198
903.21	13274
903.328	13160
903.446	13232
903.565	13072
903.683	13046
903.801	12939
903.919	13012
904.038	13012
904.156	12962
904.274	12973
904.392	12939
904.51	12928
904.627	12973
904.745	12920
904.863	12981
904.981	12658
905.098	12490
905.216	12604
905.334	12623
905.451	12593
905.569	12547
905.686	12547
905.803	12585
905.921	12353
906.038	12517
906.155	12509
906.272	12327
906.389	12338
906.506	12117
906.623	12148
906.74	12190
906.857	12095
906.974	12106
907.091	12213
907.208	12300
907.324	12209
907.441	12110
907.557	11961
907.674	11946
907.79	11863
907.907	11874
908.023	11942
908.139	11942
908.256	11897
908.372	11882
908.488	11809
908.604	11726
908.72	11665
908.836	11771
908.952	11630
909.068	11638
909.184	11760
909.3	11767
909.415	11771
909.531	11707
909.647	11554
909.762	11436
909.878	11455
909.993	11520
910.108	11455
910.224	11448
910.339	11493
910.454	11376
910.57	11353
910.685	11193
910.8	11520
910.915	11501
911.03	11379
911.145	11162
911.259	11094
911.374	11185
911.489	11140
911.604	11029
911.718	10866
911.833	10961
911.947	10774
912.062	10740
912.176	10885
912.291	10877
912.405	10999
912.519	11029
912.633	11140
912.748	10972
912.862	10957
912.976	10835
913.09	10668
913.204	10733
913.318	10824
913.431	10869
913.545	10862
913.659	10885
913.772	10771
913.886	10675
914	10611
914.113	10714
914.226	10748
914.34	10672
914.453	10607
914.566	10774
914.68	10588
914.793	10634
914.906	10451
915.019	10390
915.132	10398
915.245	10432
915.358	10424
915.47	10489
915.583	10489
915.696	10489
915.809	10577
915.921	10630
916.034	10432
916.146	10394
916.259	10371
916.371	10462
916.483	10447
916.595	10314
916.708	10299
916.82	10344
916.932	10272
917.044	10443
917.156	10322
917.268	10192
917.38	10310
917.491	10185
917.603	10291
917.715	10318
917.826	10379
917.938	10234
918.049	10135
918.161	10253
918.272	10348
918.384	10348
918.495	10253
918.606	10071
918.717	9960
918.828	10166
918.939	10128
919.05	9972
919.161	10150
919.272	10013
919.383	10063
919.494	10166
919.604	10333
919.715	10162
919.826	10071
919.936	10101
920.047	10185
920.157	10116
920.267	10367
920.378	10188
920.488	10105
920.598	10318
920.708	10493
920.818	10348
920.928	10303
921.038	10542
921.148	10451
921.258	10169
921.368	10105
921.477	9960
921.587	10010
921.697	9972
921.806	10048
921.916	9956
922.025	9774
922.134	9751
922.244	9660
922.353	9717
922.462	9618
922.571	9492
922.68	9397
922.789	9405
922.898	9496
923.007	9336
923.116	9447
923.224	9420
923.333	9408
923.442	9332
923.55	9237
923.659	9272
923.767	9336
923.876	9302
923.984	9329
924.092	9207
924.201	9313
924.309	9329
924.417	9306
924.525	9264
924.633	9226
924.741	10116
924.849	9066
924.956	9173
925.064	9097
925.172	8982
925.279	9028
925.387	9051
925.494	9009
925.602	9146
925.709	9165
925.816	9077
925.924	9081
926.031	9154
926.138	9081
926.245	9135
926.352	8925
926.459	9123
926.566	9230
926.673	9100
926.779	8944
926.886	8842
926.993	8834
927.099	8834
927.206	8739
927.312	8781
927.419	8853
927.525	8758
927.631	8792
927.737	8701
927.843	8705
927.95	8636
928.056	8670
928.162	8701
928.267	8773
928.373	9298
928.479	8739
928.585	8571
928.69	8670
928.796	8777
928.901	8594
929.007	8374
929.112	8583
929.218	8575
929.323	8503
929.428	8549
929.533	8705
929.638	8454
929.743	8431
929.848	8484
929.953	8530
930.058	8454
930.163	8309
930.267	8343
930.372	8415
930.477	8320
930.581	8434
930.685	8389
930.79	8237
930.894	8229
930.998	8210
931.103	8366
931.207	7993
931.311	7921
931.415	7936
931.519	7780
931.623	7780
