Data from test_V78500241_2710.txt Node
Date: Fri Mar 25 14:52:35 CST 2022
User: usil
Spectrometer: V785-0024
Trigger mode: 0
Integration Time (sec): 4.000000E-1
Scans to average: 1
Nonlinearity correction enabled: false
Boxcar width: 0
Storing dark spectrum: false
XAxis mode: Wavelengths
Number of Pixels in Spectrum: 1024
>>>>>Begin Spectral Data<<<<<
801.071	21930
801.214	21857
801.356	21545
801.499	21610
801.641	21393
801.783	21363
801.926	21500
802.068	21302
802.211	21279
802.353	21093
802.496	20921
802.638	20990
802.78	20845
802.923	20739
803.065	20670
803.208	20720
803.35	20727
803.492	20720
803.635	20781
803.777	20724
803.919	20792
804.061	21093
804.204	20800
804.346	20724
804.488	20587
804.63	20651
804.773	20522
804.915	20556
805.057	20708
805.199	20541
805.341	20686
805.483	20746
805.626	20708
805.768	20651
805.91	20674
806.052	20655
806.194	20545
806.336	20826
806.478	20659
806.62	20606
806.762	20670
806.904	20750
807.046	21051
807.188	20887
807.33	20937
807.472	21009
807.614	20792
807.756	20815
807.898	20807
808.04	20720
808.182	20735
808.324	20720
808.465	20758
808.607	20979
808.749	20826
808.891	21058
809.033	21199
809.174	21066
809.316	20864
809.458	20876
809.6	20979
809.741	20975
809.883	21055
810.025	21066
810.166	21116
810.308	21096
810.45	21131
810.591	20982
810.733	20910
810.875	20861
811.016	20617
811.158	20587
811.299	20826
811.441	20941
811.582	20933
811.724	20800
811.865	20716
812.007	20731
812.148	20735
812.29	20815
812.431	20918
812.573	21096
812.714	21173
812.855	21138
812.997	21351
813.138	21412
813.279	21332
813.421	21154
813.562	21142
813.703	20990
813.845	20887
813.986	20651
814.127	20579
814.268	20271
814.41	20305
814.551	20317
814.692	20454
814.833	20218
814.974	20282
815.115	20195
815.256	20176
815.397	20119
815.539	20187
815.68	20077
815.821	19921
815.962	19970
816.103	19959
816.244	19791
816.385	19708
816.526	19780
816.666	19521
816.807	19495
816.948	19457
817.089	19601
817.23	19468
817.371	19548
817.512	19354
817.653	19499
817.793	19297
817.934	19392
818.075	19419
818.216	19381
818.356	19373
818.497	19320
818.638	19141
818.778	19141
818.919	19042
819.06	19198
819.2	19160
819.341	19278
819.481	19365
819.622	19403
819.762	19567
819.903	19590
820.043	19495
820.184	19384
820.324	19468
820.465	19540
820.605	19411
820.746	19460
820.886	19362
821.026	19304
821.167	19396
821.307	19403
821.447	19266
821.588	19308
821.728	19137
821.868	18928
822.008	18863
822.149	18798
822.289	18738
822.429	18559
822.569	18296
822.709	18593
822.849	18319
822.99	18353
823.13	18270
823.27	18289
823.41	18087
823.55	18083
823.69	18159
823.83	18045
823.97	18041
824.11	17912
824.25	17973
824.389	17805
824.529	17916
824.669	17889
824.809	17965
824.949	17901
825.089	17984
825.228	17866
825.368	17745
825.508	17714
825.648	17745
825.787	17714
825.927	17798
826.067	17589
826.206	17558
826.346	17589
826.485	17596
826.625	17551
826.765	17779
826.904	17733
827.044	17387
827.183	17406
827.323	17387
827.462	17414
827.601	17421
827.741	17303
827.88	17341
828.02	17170
828.159	17337
828.298	17478
828.437	17474
828.577	17334
828.716	17558
828.855	17299
828.994	17208
829.134	17155
829.273	17299
829.412	17098
829.551	16984
829.69	17121
829.829	17151
829.968	17136
830.107	17113
830.246	17090
830.385	17102
830.524	16991
830.663	16889
830.802	16816
830.941	16702
831.08	16687
831.219	16793
831.357	16885
831.496	16953
831.635	16752
831.774	16763
831.913	16607
832.051	16622
832.19	16497
832.329	16618
832.467	16497
832.606	16325
832.744	16352
832.883	16371
833.022	16493
833.16	16451
833.299	16436
833.437	16504
833.576	16603
833.714	16466
833.852	16516
833.991	16546
834.129	16512
834.267	16596
834.406	16531
834.544	16588
834.682	16577
834.821	16443
834.959	16626
835.097	16436
835.235	16615
835.373	16508
835.511	16493
835.65	16432
835.788	16405
835.926	16306
836.064	16215
836.202	16261
836.34	16497
836.478	16459
836.615	16424
836.753	16500
836.891	16451
837.029	16405
837.167	16215
837.305	16363
837.443	16352
837.58	16219
837.718	16363
837.856	16329
837.993	16265
838.131	16360
838.269	16120
838.406	16249
838.544	16207
838.681	15975
838.819	15941
838.956	15892
839.094	15835
839.231	15816
839.369	15991
839.506	16150
839.643	16013
839.781	15934
839.918	15698
840.055	15857
840.193	15835
840.33	15854
840.467	15789
840.604	15736
840.742	16109
840.879	15797
841.016	15675
841.153	15656
841.29	16010
841.427	15865
841.564	15915
841.701	15888
841.838	15671
841.975	15690
842.112	15778
842.249	15682
842.385	15599
842.522	15797
842.659	15698
842.796	15553
842.933	15648
843.069	15564
843.206	15614
843.343	15644
843.479	15660
843.616	15667
843.752	15397
843.889	15492
844.025	15507
844.162	15283
844.298	15447
844.435	15393
844.571	15443
844.708	15439
844.844	15530
844.98	15538
845.117	15568
845.253	15439
845.389	15329
845.525	15283
845.661	15340
845.798	15169
845.934	15211
846.07	15146
846.206	15245
846.342	15294
846.478	15260
846.614	15039
846.75	14891
846.886	14933
847.022	15043
847.158	15005
847.294	15127
847.429	14994
847.565	14994
847.701	15154
847.837	14724
847.972	14636
848.108	14746
848.244	14811
848.379	14667
848.515	14522
848.65	14617
848.786	14571
848.921	14579
849.057	14720
849.192	14712
849.328	14552
849.463	14526
849.598	14564
849.734	14488
849.869	14530
850.004	14332
850.14	14434
850.275	14343
850.41	14336
850.545	14320
850.68	14313
850.815	14305
850.95	14336
851.085	14552
851.22	14488
851.355	14313
851.49	14366
851.625	14343
851.76	14271
851.895	14233
852.03	14263
852.165	14355
852.299	14362
852.434	14465
852.569	14431
852.703	14381
852.838	14473
852.973	14495
853.107	14530
853.242	14275
853.376	14214
853.511	14142
853.645	14191
853.78	14324
853.914	14214
854.048	14168
854.183	14248
854.317	14248
854.451	14381
854.585	14256
854.72	14195
854.854	14271
854.988	14119
855.122	14138
855.256	14138
855.39	14233
855.524	14278
855.658	14347
855.792	14221
855.926	14305
856.06	14305
856.194	14301
856.327	14252
856.461	14180
856.595	14191
856.729	14244
856.862	14336
856.996	14187
857.13	14309
857.263	14415
857.397	14374
857.53	14271
857.664	14358
857.797	14343
857.931	14320
858.064	14301
858.197	14351
858.331	14100
858.464	14237
858.597	14210
858.731	14183
858.864	14153
858.997	14195
859.13	14225
859.263	14336
859.396	14404
859.529	14320
859.662	14172
859.795	14214
859.928	14343
860.061	14377
860.194	14412
860.327	14271
860.46	14256
860.592	14294
860.725	14446
860.858	14412
860.99	14240
861.123	14229
861.256	14313
861.388	14355
861.521	14868
861.653	14119
861.786	14111
861.918	14103
862.05	14195
862.183	14210
862.315	14225
862.447	14343
862.58	14221
862.712	14020
862.844	13940
862.976	14138
863.108	14096
863.24	14476
863.372	14054
863.504	14005
863.636	14062
863.768	14001
863.9	14005
864.032	13970
864.164	14027
864.296	14065
864.428	14142
864.559	14115
864.691	14149
864.823	14096
864.954	14024
865.086	14046
865.217	14001
865.349	13925
865.48	13997
865.612	14012
865.743	14172
865.875	14043
866.006	13978
866.137	14031
866.269	14012
866.4	14050
866.531	13887
866.662	13974
866.793	13959
866.924	13959
867.055	13947
867.186	13936
867.317	14005
867.448	14058
867.579	13890
867.71	13928
867.841	14069
867.972	14077
868.103	14096
868.233	14016
868.364	13921
868.495	14054
868.625	14256
868.756	14347
868.886	14183
869.017	14218
869.147	14358
869.278	14377
869.408	14275
869.539	14275
869.669	14461
869.799	14301
869.929	14438
870.06	14385
870.19	14571
870.32	14625
870.45	14583
870.58	14659
870.71	14754
870.84	14651
870.97	14678
871.1	14705
871.23	14785
871.36	14864
871.489	14731
871.619	14872
871.749	14914
871.879	14933
872.008	15001
872.138	14868
872.267	14819
872.397	14712
872.526	14765
872.656	14632
872.785	14648
872.915	14838
873.044	15005
873.173	14921
873.303	14952
873.432	14910
873.561	15017
873.69	14963
873.819	14868
873.948	14921
874.077	14948
874.206	14944
874.335	14971
874.464	15081
874.593	15161
874.722	15264
874.851	15252
874.979	15207
875.108	15386
875.237	15233
875.365	15066
875.494	15249
875.623	15306
875.751	15161
875.88	15291
876.008	15367
876.136	15462
876.265	15671
876.393	15770
876.521	15747
876.65	15671
876.778	15568
876.906	15648
877.034	15545
877.162	15591
877.29	15538
877.418	15652
877.546	15625
877.674	15682
877.802	15561
877.93	15584
878.058	15641
878.185	15519
878.313	15568
878.441	15637
878.568	15473
878.696	15587
878.824	15667
878.951	15652
879.079	15774
879.206	16002
879.333	15751
879.461	15732
879.588	15755
879.715	15789
879.842	15983
879.97	15713
880.097	15507
880.224	15428
880.351	15572
880.478	15507
880.605	15397
880.732	15568
880.859	15580
880.986	15515
881.112	15580
881.239	15382
881.366	15302
881.493	15302
881.619	15108
881.746	15199
881.872	15127
881.999	15119
882.125	15207
882.252	15249
882.378	15188
882.505	15351
882.631	15119
882.757	14952
882.883	15074
883.01	15013
883.136	14975
883.262	14842
883.388	14785
883.514	15039
883.64	14956
883.766	14868
883.892	14819
884.018	14804
884.143	14994
884.269	15085
884.395	14781
884.52	14678
884.646	14697
884.772	14697
884.897	14564
885.023	14613
885.148	14876
885.274	14853
885.399	14804
885.524	14731
885.65	14731
885.775	14689
885.9	14655
886.025	14689
886.15	14708
886.275	14655
886.4	14644
886.525	14686
886.65	14598
886.775	14594
886.9	14720
887.025	14872
887.149	14636
887.274	14533
887.399	14560
887.523	14488
887.648	14556
887.773	14355
887.897	14564
888.021	14594
888.146	14450
888.27	14564
888.395	14610
888.519	14552
888.643	14476
888.767	14667
888.891	14362
889.015	14301
889.139	14457
889.263	14343
889.387	14480
889.511	14549
889.635	14434
889.759	14351
889.883	14259
890.006	14366
890.13	14564
890.254	14301
890.377	14294
890.501	14168
890.624	14111
890.748	14252
890.871	14130
890.995	14008
891.118	13997
891.241	14054
891.364	14123
891.488	14286
891.611	14100
891.734	14069
891.857	14111
891.98	14092
892.103	14202
892.226	14046
892.349	14054
892.471	13967
892.594	14119
892.717	14077
892.839	14058
892.962	14115
893.085	14145
893.207	14138
893.33	13967
893.452	14012
893.575	14142
893.697	14138
893.819	14183
893.941	14267
894.064	14191
894.186	13967
894.308	13997
894.43	14168
894.552	14263
894.674	14294
894.796	14069
894.918	14058
895.04	14062
895.161	14202
895.283	14191
895.405	14119
895.526	14233
895.648	14233
895.769	14252
895.891	14138
896.012	14320
896.134	14317
896.255	14218
896.376	14195
896.498	14199
896.619	14263
896.74	14244
896.861	14332
896.982	14583
897.103	14773
897.224	14632
897.345	14518
897.466	14419
897.587	14431
897.708	14629
897.828	14621
897.949	14511
898.07	14396
898.19	14556
898.311	14655
898.431	14522
898.552	14507
898.672	14693
898.792	14731
898.913	14552
899.033	14571
899.153	14473
899.273	14336
899.393	14366
899.513	14434
899.633	14514
899.753	14499
899.873	14427
899.993	14419
900.113	14336
900.232	14396
900.352	14419
900.472	14358
900.591	14320
900.711	14298
900.83	14263
900.95	14438
901.069	14450
901.189	14275
901.308	13993
901.427	13993
901.546	13967
901.665	13997
901.784	13967
901.904	13940
902.023	13769
902.141	13586
902.26	13529
902.379	13674
902.498	13533
902.617	13476
902.735	13571
902.854	13544
902.973	13438
903.091	13289
903.21	13221
903.328	13289
903.446	13346
903.565	13110
903.683	13168
903.801	13065
903.919	13080
904.038	13084
904.156	12962
904.274	12954
904.392	12935
904.51	12894
904.627	12905
904.745	12943
904.863	12985
904.981	12734
905.098	12707
905.216	12707
905.334	12616
905.451	12658
905.569	12525
905.686	12669
905.803	12696
905.921	12407
906.038	12616
906.155	12399
906.272	12323
906.389	12372
906.506	12235
906.623	12243
906.74	12296
906.857	12098
906.974	12136
907.091	12327
907.208	12384
907.324	12213
907.441	12117
907.557	12015
907.674	12003
907.79	11942
907.907	11920
908.023	12045
908.139	11965
908.256	11988
908.372	11874
908.488	11840
908.604	11771
908.72	11726
908.836	11794
908.952	11665
909.068	11752
909.184	11882
909.3	11714
909.415	11805
909.531	11733
909.647	11478
909.762	11520
909.878	11570
909.993	11512
910.108	11459
910.224	11471
910.339	11414
910.454	11322
910.57	11417
910.685	11231
910.8	11558
910.915	11516
911.03	11349
911.145	11269
911.259	11193
911.374	11246
911.489	11189
911.604	11102
911.718	11003
911.833	11060
911.947	10927
912.062	10717
912.176	10934
912.291	10915
912.405	10972
912.519	11117
912.633	11220
912.748	11067
912.862	11014
912.976	10877
913.09	10702
913.204	10835
913.318	10839
913.431	10900
913.545	10873
913.659	10980
913.772	10858
913.886	10736
914	10641
914.113	10824
914.226	10915
914.34	10869
914.453	10634
914.566	10801
914.68	10656
914.793	10668
914.906	10523
915.019	10459
915.132	10322
915.245	10466
915.358	10409
915.47	10432
915.583	10462
915.696	10588
915.809	10546
915.921	10577
916.034	10470
916.146	10432
916.259	10409
916.371	10474
916.483	10424
916.595	10382
916.708	10371
916.82	10398
916.932	10421
917.044	10428
917.156	10284
917.268	10284
917.38	10242
917.491	10188
917.603	10367
917.715	10421
917.826	10474
917.938	10318
918.049	10207
918.161	10276
918.272	10398
918.384	10451
918.495	10344
918.606	10135
918.717	10124
918.828	10291
918.939	10234
919.05	10109
919.161	10090
919.272	10017
919.383	10055
919.494	10242
919.604	10402
919.715	10211
919.826	10181
919.936	10200
920.047	10280
920.157	10166
920.267	10325
920.378	10242
920.488	10135
920.598	10325
920.708	10607
920.818	10428
920.928	10409
921.038	10554
921.148	10535
921.258	10287
921.368	10162
921.477	10025
921.587	10048
921.697	9888
921.806	10143
921.916	9987
922.025	9759
922.134	9770
922.244	9762
922.353	9816
922.462	9595
922.571	9542
922.68	9405
922.789	9420
922.898	9485
923.007	9393
923.116	9542
923.224	9424
923.333	9332
923.442	9370
923.55	9275
923.659	9393
923.767	9428
923.876	9382
923.984	9370
924.092	9287
924.201	9393
924.309	9363
924.417	9374
924.525	9275
924.633	9279
924.741	10002
924.849	9112
924.956	9256
925.064	9097
925.172	9051
925.279	9131
925.387	9188
925.494	9180
925.602	9207
925.709	9184
925.816	9104
925.924	9112
926.031	9214
926.138	9081
926.245	9214
926.352	9036
926.459	9207
926.566	9165
926.673	9081
926.779	9028
926.886	9009
926.993	8918
927.099	8834
927.206	8861
927.312	8842
927.419	8941
927.525	8842
927.631	8921
927.737	8807
927.843	8746
927.95	8640
928.056	8788
928.162	8796
928.267	8785
928.373	9386
928.479	8811
928.585	8629
928.69	8693
928.796	8758
928.901	8602
929.007	8488
929.112	8625
929.218	8674
929.323	8568
929.428	8625
929.533	8724
929.638	8541
929.743	8549
929.848	8648
929.953	8598
930.058	8457
930.163	8366
930.267	8309
930.372	8476
930.477	8282
930.581	8537
930.685	8419
930.79	8324
930.894	8309
930.998	8275
931.103	8419
931.207	8092
931.311	8058
931.415	8016
931.519	7742
931.623	7795
