Data from test_V78500241_2323.txt Node
Date: Fri Mar 25 14:49:53 CST 2022
User: usil
Spectrometer: V785-0024
Trigger mode: 0
Integration Time (sec): 4.000000E-1
Scans to average: 1
Nonlinearity correction enabled: false
Boxcar width: 0
Storing dark spectrum: false
XAxis mode: Wavelengths
Number of Pixels in Spectrum: 1024
>>>>>Begin Spectral Data<<<<<
801.071	22143
801.214	22086
801.356	21918
801.499	21781
801.641	21568
801.783	21496
801.926	21599
802.068	21443
802.211	21424
802.353	21313
802.496	21180
802.638	21100
802.78	20979
802.923	21032
803.065	20739
803.208	20701
803.35	20861
803.492	21081
803.635	20960
803.777	20815
803.919	20944
804.061	21294
804.204	20910
804.346	20921
804.488	20788
804.63	20994
804.773	20735
804.915	20701
805.057	20861
805.199	20754
805.341	20941
805.483	20925
805.626	20781
805.768	20758
805.91	20750
806.052	20842
806.194	20762
806.336	20960
806.478	20811
806.62	20807
806.762	20868
806.904	20982
807.046	21157
807.188	21104
807.33	21093
807.472	21203
807.614	20910
807.756	21028
807.898	20994
808.04	20933
808.182	20925
808.324	20967
808.465	20963
808.607	21096
808.749	21230
808.891	21180
809.033	21412
809.174	21351
809.316	21161
809.458	21131
809.6	21161
809.741	21195
809.883	21260
810.025	21245
810.166	21336
810.308	21420
810.45	21424
810.591	21313
810.733	21085
810.875	21013
811.016	20929
811.158	20830
811.299	20979
811.441	21127
811.582	21116
811.724	20971
811.865	20883
812.007	20941
812.148	20895
812.29	21036
812.431	21058
812.573	21207
812.714	21378
812.855	21382
812.997	21576
813.138	21679
813.279	21507
813.421	21511
813.562	21351
813.703	21192
813.845	21062
813.986	20823
814.127	20549
814.268	20533
814.41	20473
814.551	20621
814.692	20568
814.833	20503
814.974	20404
815.115	20412
815.256	20358
815.397	20328
815.539	20404
815.68	20225
815.821	20134
815.962	20298
816.103	20202
816.244	19963
816.385	19936
816.526	19959
816.666	19772
816.807	19571
816.948	19864
817.089	19723
817.23	19620
817.371	19582
817.512	19628
817.653	19647
817.793	19476
817.934	19571
818.075	19681
818.216	19643
818.356	19582
818.497	19453
818.638	19381
818.778	19251
818.919	19259
819.06	19304
819.2	19343
819.341	19495
819.481	19510
819.622	19700
819.762	19746
819.903	19807
820.043	19761
820.184	19674
820.324	19483
820.465	19715
820.605	19506
820.746	19586
820.886	19369
821.026	19571
821.167	19529
821.307	19681
821.447	19571
821.588	19403
821.728	19339
821.868	19110
822.008	18985
822.149	18920
822.289	18981
822.429	18684
822.569	18821
822.709	18669
822.849	18483
822.99	18486
823.13	18448
823.27	18407
823.41	18258
823.55	18232
823.69	18254
823.83	18273
823.97	18254
824.11	18034
824.25	18106
824.389	17996
824.529	18155
824.669	18003
824.809	18232
824.949	18155
825.089	18209
825.228	18057
825.368	17969
825.508	17889
825.648	17851
825.787	17969
825.927	17904
826.067	17840
826.206	17836
826.346	17843
826.485	17840
826.625	17760
826.765	17878
826.904	17912
827.044	17642
827.183	17547
827.323	17516
827.462	17589
827.601	17539
827.741	17524
827.88	17501
828.02	17421
828.159	17520
828.298	17535
828.437	17623
828.577	17478
828.716	17630
828.855	17376
828.994	17318
829.134	17208
829.273	17132
829.412	17235
829.551	17269
829.69	17235
829.829	17311
829.968	17376
830.107	17292
830.246	17410
830.385	17307
830.524	17269
830.663	17056
830.802	16908
830.941	16911
831.08	16885
831.219	16927
831.357	16911
831.496	17094
831.635	16843
831.774	16759
831.913	16736
832.051	16763
832.19	16679
832.329	16698
832.467	16573
832.606	16462
832.744	16558
832.883	16565
833.022	16634
833.16	16592
833.299	16565
833.437	16694
833.576	16622
833.714	16584
833.852	16653
833.991	16641
834.129	16649
834.267	16649
834.406	16569
834.544	16656
834.682	16615
834.821	16656
834.959	16691
835.097	16626
835.235	16656
835.373	16698
835.511	16535
835.65	16558
835.788	16481
835.926	16402
836.064	16196
836.202	16303
836.34	16531
836.478	16622
836.615	16474
836.753	16607
836.891	16634
837.029	16489
837.167	16489
837.305	16432
837.443	16379
837.58	16325
837.718	16428
837.856	16371
837.993	16253
838.131	16436
838.269	16337
838.406	16337
838.544	16261
838.681	16025
838.819	16017
838.956	15960
839.094	15899
839.231	15903
839.369	16032
839.506	16303
839.643	16310
839.781	15956
839.918	15937
840.055	15918
840.193	15865
840.33	15880
840.467	15884
840.604	15975
840.742	16181
840.879	15797
841.016	15789
841.153	15915
841.29	16082
841.427	15934
841.564	16002
841.701	15991
841.838	15945
841.975	15709
842.112	15937
842.249	15694
842.385	15622
842.522	15842
842.659	15823
842.796	15610
842.933	15857
843.069	15720
843.206	15644
843.343	15759
843.479	15781
843.616	15713
843.752	15458
843.889	15488
844.025	15732
844.162	15492
844.298	15473
844.435	15466
844.571	15412
844.708	15732
844.844	15557
844.98	15690
845.117	15584
845.253	15393
845.389	15313
845.525	15447
845.661	15306
845.798	15256
845.934	15306
846.07	15275
846.206	15378
846.342	15313
846.478	15359
846.614	15169
846.75	15062
846.886	15058
847.022	15062
847.158	15058
847.294	15017
847.429	15089
847.565	15032
847.701	15355
847.837	14857
847.972	14727
848.108	14876
848.244	14815
848.379	14758
848.515	14697
848.65	14678
848.786	14594
848.921	14746
849.057	14663
849.192	14769
849.328	14682
849.463	14682
849.598	14587
849.734	14495
849.869	14450
850.004	14488
850.14	14351
850.275	14408
850.41	14282
850.545	14366
850.68	14381
850.815	14492
850.95	14328
851.085	14640
851.22	14518
851.355	14389
851.49	14320
851.625	14381
851.76	14366
851.895	14377
852.03	14229
852.165	14404
852.299	14415
852.434	14518
852.569	14503
852.703	14495
852.838	14526
852.973	14602
853.107	14533
853.242	14377
853.376	14202
853.511	14142
853.645	14275
853.78	14324
853.914	14286
854.048	14313
854.183	14263
854.317	14313
854.451	14454
854.585	14214
854.72	14294
854.854	14355
854.988	14221
855.122	14214
855.256	14202
855.39	14172
855.524	14400
855.658	14214
855.792	14339
855.926	14248
856.06	14290
856.194	14396
856.327	14290
856.461	14275
856.595	14199
856.729	14313
856.862	14366
856.996	14339
857.13	14339
857.263	14419
857.397	14431
857.53	14343
857.664	14278
857.797	14336
857.931	14393
858.064	14305
858.197	14423
858.331	14290
858.464	14343
858.597	14195
858.731	14259
858.864	14328
858.997	14206
859.13	14233
859.263	14195
859.396	14347
859.529	14229
859.662	14240
859.795	14153
859.928	14332
860.061	14404
860.194	14366
860.327	14282
860.46	14267
860.592	14328
860.725	14393
860.858	14385
860.99	14282
861.123	14210
861.256	14294
861.388	14286
861.521	14910
861.653	14115
861.786	14240
861.918	14145
862.05	14229
862.183	14195
862.315	14221
862.447	14320
862.58	14244
862.712	13982
862.844	13963
862.976	14005
863.108	14096
863.24	14450
863.372	14046
863.504	14145
863.636	14046
863.768	14157
863.9	14153
864.032	13993
864.164	14024
864.296	14050
864.428	14176
864.559	14107
864.691	14168
864.823	14142
864.954	14123
865.086	14168
865.217	14069
865.349	13997
865.48	14027
865.612	14103
865.743	14100
865.875	14111
866.006	14062
866.137	13940
866.269	14024
866.4	14062
866.531	14008
866.662	14001
866.793	13951
866.924	13970
867.055	14039
867.186	13986
867.317	14012
867.448	14031
867.579	14024
867.71	13883
867.841	13955
867.972	14077
868.103	14081
868.233	13967
868.364	13940
868.495	14145
868.625	14168
868.756	14275
868.886	14225
869.017	14229
869.147	14347
869.278	14412
869.408	14366
869.539	14332
869.669	14355
869.799	14442
869.929	14389
870.06	14362
870.19	14511
870.32	14587
870.45	14651
870.58	14697
870.71	14830
870.84	14887
870.97	14644
871.1	14842
871.23	14906
871.36	14895
871.489	14754
871.619	14773
871.749	14853
871.879	14819
872.008	14986
872.138	14929
872.267	14899
872.397	14804
872.526	14674
872.656	14754
872.785	14682
872.915	14960
873.044	15001
873.173	14929
873.303	14982
873.432	14921
873.561	15047
873.69	15039
873.819	14891
873.948	15047
874.077	14864
874.206	14792
874.335	14918
874.464	15112
874.593	15298
874.722	15173
874.851	15241
874.979	15302
875.108	15317
875.237	15150
875.365	15157
875.494	15150
875.623	15241
875.751	15233
875.88	15370
876.008	15386
876.136	15473
876.265	15618
876.393	15800
876.521	15720
876.65	15698
876.778	15637
876.906	15610
877.034	15690
877.162	15686
877.29	15496
877.418	15641
877.546	15606
877.674	15656
877.802	15629
877.93	15618
878.058	15656
878.185	15542
878.313	15534
878.441	15667
878.568	15504
878.696	15572
878.824	15675
878.951	15690
879.079	15717
879.206	16036
879.333	15781
879.461	15694
879.588	15774
879.715	15774
879.842	15945
879.97	15614
880.097	15595
880.224	15568
880.351	15530
880.478	15568
880.605	15530
880.732	15564
880.859	15816
880.986	15633
881.112	15431
881.239	15477
881.366	15306
881.493	15203
881.619	15112
881.746	15123
881.872	15195
881.999	15089
882.125	15089
882.252	15131
882.378	15226
882.505	15245
882.631	15074
882.757	15036
882.883	15036
883.01	15005
883.136	14880
883.262	14895
883.388	14804
883.514	14975
883.64	15081
883.766	14842
883.892	14819
884.018	14948
884.143	14963
884.269	15028
884.395	14724
884.52	14663
884.646	14697
884.772	14598
884.897	14610
885.023	14682
885.148	14811
885.274	14834
885.399	14887
885.524	14792
885.65	14735
885.775	14716
885.9	14670
886.025	14838
886.15	14796
886.275	14587
886.4	14625
886.525	14590
886.65	14659
886.775	14556
886.9	14842
887.025	14960
887.149	14621
887.274	14450
887.399	14469
887.523	14476
887.648	14461
887.773	14457
887.897	14636
888.021	14537
888.146	14480
888.27	14602
888.395	14655
888.519	14613
888.643	14598
888.767	14602
888.891	14381
889.015	14298
889.139	14389
889.263	14313
889.387	14503
889.511	14663
889.635	14476
889.759	14370
889.883	14358
890.006	14385
890.13	14507
890.254	14313
890.377	14419
890.501	14313
890.624	14187
890.748	14145
890.871	14107
890.995	14062
891.118	13982
891.241	14058
891.364	13944
891.488	14077
891.611	14084
891.734	14142
891.857	14210
891.98	14107
892.103	14172
892.226	14153
892.349	14092
892.471	13864
892.594	14058
892.717	14157
892.839	14054
892.962	14100
893.085	14214
893.207	14138
893.33	13947
893.452	14039
893.575	14134
893.697	14065
893.819	14183
893.941	14256
894.064	14275
894.186	14119
894.308	14130
894.43	14187
894.552	14267
894.674	14202
894.796	14043
894.918	14126
895.04	14073
895.161	14233
895.283	14191
895.405	14187
895.526	14332
895.648	14210
895.769	14267
895.891	14347
896.012	14294
896.134	14271
896.255	14206
896.376	14210
896.498	14256
896.619	14305
896.74	14218
896.861	14305
896.982	14594
897.103	14754
897.224	14564
897.345	14518
897.466	14385
897.587	14492
897.708	14705
897.828	14613
897.949	14495
898.07	14328
898.19	14556
898.311	14606
898.431	14587
898.552	14583
898.672	14712
898.792	14689
898.913	14655
899.033	14594
899.153	14381
899.273	14347
899.393	14450
899.513	14556
899.633	14488
899.753	14514
899.873	14446
899.993	14518
900.113	14507
900.232	14442
900.352	14396
900.472	14351
900.591	14313
900.711	14366
900.83	14366
900.95	14423
901.069	14442
901.189	14240
901.308	14100
901.427	13978
901.546	14107
901.665	13997
901.784	14096
901.904	13951
902.023	13875
902.141	13624
902.26	13636
902.379	13738
902.498	13666
902.617	13548
902.735	13571
902.854	13533
902.973	13495
903.091	13396
903.21	13316
903.328	13346
903.446	13240
903.565	13175
903.683	13206
903.801	13038
903.919	13187
904.038	13084
904.156	12890
904.274	13110
904.392	12966
904.51	12970
904.627	12996
904.745	12993
904.863	12966
904.981	12867
905.098	12658
905.216	12711
905.334	12745
905.451	12631
905.569	12604
905.686	12677
905.803	12654
905.921	12479
906.038	12578
906.155	12490
906.272	12445
906.389	12452
906.506	12289
906.623	12323
906.74	12106
906.857	12136
906.974	12209
907.091	12296
907.208	12365
907.324	12224
907.441	12110
907.557	11992
907.674	11988
907.79	11950
907.907	11988
908.023	12068
908.139	12068
908.256	11977
908.372	11912
908.488	11901
908.604	11851
908.72	11699
908.836	11802
908.952	11710
909.068	11699
909.184	11893
909.3	11737
909.415	11794
909.531	11676
909.647	11524
909.762	11459
909.878	11516
909.993	11589
910.108	11444
910.224	11452
910.339	11535
910.454	11436
910.57	11406
910.685	11349
910.8	11608
910.915	11520
911.03	11353
911.145	11132
911.259	11174
911.374	11174
911.489	11105
911.604	11048
911.718	10942
911.833	10949
911.947	10877
912.062	10752
912.176	10984
912.291	10961
912.405	10927
912.519	11185
912.633	11201
912.748	11098
912.862	10980
912.976	10805
913.09	10782
913.204	10790
913.318	10858
913.431	10980
913.545	10999
913.659	10938
913.772	10919
913.886	10717
914	10774
914.113	10908
914.226	10919
914.34	10820
914.453	10634
914.566	10896
914.68	10675
914.793	10626
914.906	10466
915.019	10531
915.132	10352
915.245	10481
915.358	10493
915.47	10497
915.583	10493
915.696	10577
915.809	10550
915.921	10573
916.034	10432
916.146	10428
916.259	10382
916.371	10489
916.483	10531
916.595	10325
916.708	10474
916.82	10459
916.932	10344
917.044	10329
917.156	10379
917.268	10314
917.38	10276
917.491	10261
917.603	10356
917.715	10394
917.826	10451
917.938	10371
918.049	10192
918.161	10344
918.272	10451
918.384	10390
918.495	10329
918.606	10143
918.717	10124
918.828	10246
918.939	10215
919.05	10124
919.161	10181
919.272	10013
919.383	10116
919.494	10230
919.604	10413
919.715	10238
919.826	10124
919.936	10166
920.047	10238
920.157	10207
920.267	10474
920.378	10246
920.488	10181
920.598	10360
920.708	10516
920.818	10443
920.928	10394
921.038	10561
921.148	10428
921.258	10249
921.368	10181
921.477	10093
921.587	10025
921.697	9854
921.806	10078
921.916	9907
922.025	9857
922.134	9808
922.244	9751
922.353	9823
922.462	9656
922.571	9633
922.68	9549
922.789	9359
922.898	9477
923.007	9466
923.116	9416
923.224	9397
923.333	9450
923.442	9416
923.55	9405
923.659	9378
923.767	9393
923.876	9325
923.984	9401
924.092	9268
924.201	9374
924.309	9291
924.417	9340
924.525	9302
924.633	9302
924.741	9975
924.849	9127
924.956	9294
925.064	9150
925.172	9100
925.279	9051
925.387	9161
925.494	9100
925.602	9241
925.709	9283
925.816	9024
925.924	9074
926.031	9150
926.138	9123
926.245	9142
926.352	9085
926.459	9218
926.566	9264
926.673	9146
926.779	8937
926.886	9001
926.993	8918
927.099	8792
927.206	8823
927.312	8796
927.419	8838
927.525	8861
927.631	8864
927.737	8773
927.843	8705
927.95	8686
928.056	8705
928.162	8724
928.267	8712
928.373	9431
928.479	8838
928.585	8621
928.69	8743
928.796	8743
928.901	8678
929.007	8564
929.112	8648
929.218	8613
929.323	8560
929.428	8571
929.533	8731
929.638	8533
929.743	8465
929.848	8594
929.953	8556
930.058	8469
930.163	8286
930.267	8286
930.372	8450
930.477	8313
930.581	8579
930.685	8374
930.79	8282
930.894	8259
930.998	8313
931.103	8404
931.207	8065
931.311	8008
931.415	7955
931.519	7765
931.623	7818
