Data from test_V78500241_1948.txt Node
Date: Fri Mar 25 14:47:16 CST 2022
User: usil
Spectrometer: V785-0024
Trigger mode: 0
Integration Time (sec): 4.000000E-1
Scans to average: 1
Nonlinearity correction enabled: false
Boxcar width: 0
Storing dark spectrum: false
XAxis mode: Wavelengths
Number of Pixels in Spectrum: 1024
>>>>>Begin Spectral Data<<<<<
801.071	21994
801.214	22063
801.356	21789
801.499	21603
801.641	21450
801.783	21580
801.926	21431
802.068	21313
802.211	21389
802.353	21211
802.496	21093
802.638	21036
802.78	20925
802.923	20857
803.065	20708
803.208	20788
803.35	20750
803.492	20796
803.635	20925
803.777	20788
803.919	20773
804.061	21123
804.204	20868
804.346	20842
804.488	20644
804.63	20712
804.773	20693
804.915	20594
805.057	20807
805.199	20724
805.341	20670
805.483	20872
805.626	20807
805.768	20712
805.91	20659
806.052	20765
806.194	20731
806.336	20883
806.478	20735
806.62	20609
806.762	20952
806.904	20838
807.046	21032
807.188	20956
807.33	20937
807.472	21066
807.614	20857
807.756	20956
807.898	20849
808.04	20705
808.182	20686
808.324	20735
808.465	20811
808.607	20952
808.749	21024
808.891	21173
809.033	21382
809.174	21165
809.316	21150
809.458	21036
809.6	21055
809.741	21135
809.883	21100
810.025	21351
810.166	21112
810.308	21207
810.45	21188
810.591	21032
810.733	20891
810.875	20849
811.016	20811
811.158	20765
811.299	20731
811.441	21028
811.582	20929
811.724	20815
811.865	20887
812.007	20838
812.148	20735
812.29	20819
812.431	20971
812.573	21173
812.714	21138
812.855	21355
812.997	21416
813.138	21458
813.279	21496
813.421	21291
813.562	21340
813.703	21135
813.845	21051
813.986	20648
814.127	20522
814.268	20427
814.41	20450
814.551	20305
814.692	20431
814.833	20267
814.974	20320
815.115	20427
815.256	20096
815.397	20290
815.539	20355
815.68	20084
815.821	20020
815.962	20168
816.103	20157
816.244	20084
816.385	19951
816.526	19818
816.666	19620
816.807	19677
816.948	19582
817.089	19655
817.23	19556
817.371	19487
817.512	19441
817.653	19582
817.793	19415
817.934	19495
818.075	19487
818.216	19521
818.356	19441
818.497	19373
818.638	19088
818.778	19225
818.919	19175
819.06	19213
819.2	19373
819.341	19392
819.481	19358
819.622	19552
819.762	19738
819.903	19609
820.043	19613
820.184	19556
820.324	19487
820.465	19594
820.605	19521
820.746	19457
820.886	19358
821.026	19381
821.167	19407
821.307	19586
821.447	19415
821.588	19396
821.728	19206
821.868	19107
822.008	18947
822.149	18985
822.289	18890
822.429	18650
822.569	18570
822.709	18521
822.849	18372
822.99	18452
823.13	18342
823.27	18300
823.41	18262
823.55	18110
823.69	18197
823.83	18243
823.97	18110
824.11	18060
824.25	18003
824.389	17984
824.529	18049
824.669	17946
824.809	18076
824.949	18045
825.089	18079
825.228	17950
825.368	17866
825.508	17729
825.648	17802
825.787	17760
825.927	17863
826.067	17824
826.206	17790
826.346	17767
826.485	17828
826.625	17695
826.765	17817
826.904	17775
827.044	17516
827.183	17543
827.323	17444
827.462	17558
827.601	17543
827.741	17471
827.88	17478
828.02	17337
828.159	17421
828.298	17425
828.437	17490
828.577	17391
828.716	17573
828.855	17395
828.994	17261
829.134	17254
829.273	17269
829.412	17235
829.551	17178
829.69	17231
829.829	17239
829.968	17299
830.107	17277
830.246	17159
830.385	17159
830.524	17079
830.663	17064
830.802	16965
830.941	16820
831.08	16828
831.219	16934
831.357	16828
831.496	16972
831.635	16938
831.774	16812
831.913	16752
832.051	16721
832.19	16603
832.329	16645
832.467	16622
832.606	16569
832.744	16508
832.883	16569
833.022	16550
833.16	16470
833.299	16649
833.437	16535
833.576	16634
833.714	16607
833.852	16710
833.991	16702
834.129	16645
834.267	16660
834.406	16558
834.544	16584
834.682	16622
834.821	16592
834.959	16805
835.097	16584
835.235	16637
835.373	16611
835.511	16656
835.65	16558
835.788	16558
835.926	16398
836.064	16341
836.202	16280
836.34	16588
836.478	16603
836.615	16489
836.753	16558
836.891	16573
837.029	16611
837.167	16508
837.305	16527
837.443	16436
837.58	16371
837.718	16527
837.856	16428
837.993	16329
838.131	16291
838.269	16325
838.406	16344
838.544	16291
838.681	16128
838.819	16059
838.956	15911
839.094	15892
839.231	15926
839.369	16116
839.506	16363
839.643	16223
839.781	16036
839.918	15823
840.055	15960
840.193	15949
840.33	15823
840.467	15857
840.604	15991
840.742	16207
840.879	15789
841.016	15827
841.153	15892
841.29	16082
841.427	15941
841.564	15979
841.701	15857
841.838	15960
841.975	15895
842.112	15873
842.249	15728
842.385	15656
842.522	15835
842.659	15728
842.796	15610
842.933	15751
843.069	15671
843.206	15663
843.343	15854
843.479	15641
843.616	15736
843.752	15488
843.889	15557
844.025	15667
844.162	15485
844.298	15682
844.435	15507
844.571	15454
844.708	15496
844.844	15698
844.98	15705
845.117	15652
845.253	15447
845.389	15496
845.525	15511
845.661	15348
845.798	15298
845.934	15397
846.07	15268
846.206	15378
846.342	15348
846.478	15279
846.614	15062
846.75	15032
846.886	15036
847.022	15169
847.158	15039
847.294	15081
847.429	15116
847.565	14941
847.701	15279
847.837	14804
847.972	14807
848.108	14861
848.244	14834
848.379	14807
848.515	14659
848.65	14724
848.786	14724
848.921	14746
849.057	14743
849.192	14720
849.328	14750
849.463	14659
849.598	14727
849.734	14610
849.869	14473
850.004	14526
850.14	14568
850.275	14473
850.41	14427
850.545	14317
850.68	14419
850.815	14400
850.95	14415
851.085	14632
851.22	14560
851.355	14419
851.49	14450
851.625	14355
851.76	14434
851.895	14465
852.03	14256
852.165	14457
852.299	14446
852.434	14522
852.569	14469
852.703	14454
852.838	14461
852.973	14590
853.107	14655
853.242	14396
853.376	14286
853.511	14168
853.645	14301
853.78	14454
853.914	14309
854.048	14328
854.183	14275
854.317	14374
854.451	14450
854.585	14263
854.72	14298
854.854	14355
854.988	14233
855.122	14332
855.256	14107
855.39	14328
855.524	14476
855.658	14309
855.792	14298
855.926	14301
856.06	14434
856.194	14488
856.327	14278
856.461	14286
856.595	14157
856.729	14309
856.862	14446
856.996	14256
857.13	14381
857.263	14400
857.397	14530
857.53	14339
857.664	14438
857.797	14434
857.931	14488
858.064	14454
858.197	14442
858.331	14385
858.464	14244
858.597	14218
858.731	14229
858.864	14240
858.997	14385
859.13	14377
859.263	14374
859.396	14377
859.529	14336
859.662	14320
859.795	14248
859.928	14446
860.061	14511
860.194	14484
860.327	14381
860.46	14343
860.592	14396
860.725	14438
860.858	14560
860.99	14301
861.123	14191
861.256	14100
861.388	14339
861.521	15032
861.653	14252
861.786	14221
861.918	14172
862.05	14248
862.183	14210
862.315	14408
862.447	14343
862.58	14290
862.712	14065
862.844	13932
862.976	14267
863.108	14153
863.24	14514
863.372	13932
863.504	14027
863.636	14126
863.768	14202
863.9	14096
864.032	14062
864.164	14039
864.296	14145
864.428	14199
864.559	14191
864.691	14225
864.823	14096
864.954	14172
865.086	14134
865.217	14073
865.349	14054
865.48	14065
865.612	14058
865.743	14240
865.875	14058
866.006	14065
866.137	14058
866.269	13993
866.4	14134
866.531	14001
866.662	14027
866.793	13963
866.924	14043
867.055	14065
867.186	14065
867.317	13997
867.448	14008
867.579	14031
867.71	13925
867.841	13967
867.972	14088
868.103	14065
868.233	14096
868.364	14027
868.495	14218
868.625	14290
868.756	14301
868.886	14244
869.017	14370
869.147	14393
869.278	14457
869.408	14294
869.539	14263
869.669	14358
869.799	14431
869.929	14488
870.06	14454
870.19	14667
870.32	14659
870.45	14670
870.58	14739
870.71	14773
870.84	14899
870.97	14701
871.1	14697
871.23	14826
871.36	14906
871.489	14788
871.619	14773
871.749	14902
871.879	14891
872.008	15009
872.138	14906
872.267	14937
872.397	14796
872.526	14765
872.656	14739
872.785	14807
872.915	14982
873.044	15119
873.173	14941
873.303	15036
873.432	15032
873.561	14990
873.69	14941
873.819	14975
873.948	15066
874.077	14906
874.206	14857
874.335	15032
874.464	15203
874.593	15157
874.722	15218
874.851	15355
874.979	15260
875.108	15401
875.237	15237
875.365	15268
875.494	15298
875.623	15401
875.751	15294
875.88	15363
876.008	15431
876.136	15477
876.265	15694
876.393	15842
876.521	15705
876.65	15781
876.778	15698
876.906	15629
877.034	15709
877.162	15701
877.29	15686
877.418	15698
877.546	15663
877.674	15648
877.802	15732
877.93	15629
878.058	15781
878.185	15618
878.313	15751
878.441	15644
878.568	15523
878.696	15656
878.824	15789
878.951	15888
879.079	15873
879.206	16013
879.333	15857
879.461	15850
879.588	15907
879.715	15892
879.842	15987
879.97	15808
880.097	15481
880.224	15530
880.351	15584
880.478	15523
880.605	15530
880.732	15477
880.859	15762
880.986	15507
881.112	15637
881.239	15458
881.366	15294
881.493	15188
881.619	15233
881.746	15310
881.872	15169
881.999	15188
882.125	15226
882.252	15294
882.378	15260
882.505	15336
882.631	15188
882.757	15070
882.883	14998
883.01	15028
883.136	14994
883.262	14933
883.388	14834
883.514	15028
883.64	15032
883.766	14990
883.892	14823
884.018	14872
884.143	15047
884.269	15058
884.395	14781
884.52	14667
884.646	14735
884.772	14773
884.897	14640
885.023	14750
885.148	14883
885.274	14952
885.399	14792
885.524	14678
885.65	14777
885.775	14655
885.9	14682
886.025	14796
886.15	14785
886.275	14731
886.4	14632
886.525	14659
886.65	14632
886.775	14629
886.9	14842
887.025	14967
887.149	14617
887.274	14621
887.399	14575
887.523	14400
887.648	14450
887.773	14465
887.897	14594
888.021	14541
888.146	14492
888.27	14705
888.395	14682
888.519	14583
888.643	14689
888.767	14678
888.891	14473
889.015	14434
889.139	14423
889.263	14461
889.387	14541
889.511	14693
889.635	14552
889.759	14431
889.883	14461
890.006	14457
890.13	14507
890.254	14339
890.377	14358
890.501	14305
890.624	14149
890.748	14286
890.871	14168
890.995	14126
891.118	14081
891.241	14142
891.364	14191
891.488	14309
891.611	14149
891.734	14115
891.857	14282
891.98	14115
892.103	14237
892.226	14149
892.349	14084
892.471	13982
892.594	14214
892.717	14081
892.839	14107
892.962	14031
893.085	14214
893.207	14134
893.33	13993
893.452	13978
893.575	14168
893.697	14168
893.819	14210
893.941	14347
894.064	14218
894.186	14176
894.308	14046
894.43	14298
894.552	14366
894.674	14271
894.796	14142
894.918	14164
895.04	14176
895.161	14263
895.283	14229
895.405	14240
895.526	14191
895.648	14142
895.769	14263
895.891	14252
896.012	14400
896.134	14240
896.255	14286
896.376	14267
896.498	14381
896.619	14412
896.74	14343
896.861	14355
896.982	14659
897.103	14834
897.224	14617
897.345	14594
897.466	14537
897.587	14549
897.708	14613
897.828	14610
897.949	14556
898.07	14313
898.19	14522
898.311	14708
898.431	14568
898.552	14705
898.672	14746
898.792	14819
898.913	14617
899.033	14598
899.153	14469
899.273	14499
899.393	14499
899.513	14552
899.633	14415
899.753	14568
899.873	14419
899.993	14545
900.113	14473
900.232	14640
900.352	14454
900.472	14366
900.591	14282
900.711	14343
900.83	14336
900.95	14457
901.069	14499
901.189	14263
901.308	14103
901.427	13978
901.546	13967
901.665	14031
901.784	14016
901.904	13925
902.023	13738
902.141	13643
902.26	13605
902.379	13658
902.498	13609
902.617	13540
902.735	13567
902.854	13609
902.973	13567
903.091	13358
903.21	13304
903.328	13274
903.446	13289
903.565	13156
903.683	13274
903.801	13042
903.919	13160
904.038	13034
904.156	12993
904.274	13164
904.392	13015
904.51	13065
904.627	13004
904.745	13171
904.863	13072
904.981	12852
905.098	12642
905.216	12703
905.334	12734
905.451	12783
905.569	12654
905.686	12798
905.803	12627
905.921	12532
906.038	12612
906.155	12445
906.272	12433
906.389	12304
906.506	12243
906.623	12296
906.74	12243
906.857	12171
906.974	12197
907.091	12304
907.208	12418
907.324	12369
907.441	12209
907.557	12072
907.674	12003
907.79	11996
907.907	11973
908.023	12091
908.139	12079
908.256	12003
908.372	11980
908.488	11961
908.604	11794
908.72	11756
908.836	11726
908.952	11718
909.068	11832
909.184	11942
909.3	11802
909.415	11843
909.531	11745
909.647	11547
909.762	11592
909.878	11528
909.993	11600
910.108	11425
910.224	11509
910.339	11558
910.454	11448
910.57	11368
910.685	11356
910.8	11577
910.915	11512
911.03	11383
911.145	11292
911.259	11204
911.374	11162
911.489	11189
911.604	11193
911.718	10987
911.833	11075
911.947	10930
912.062	10858
912.176	10961
912.291	11083
912.405	10984
912.519	11166
912.633	11246
912.748	11136
912.862	10976
912.976	10900
913.09	10809
913.204	10877
913.318	10873
913.431	10957
913.545	10972
913.659	11029
913.772	10938
913.886	10763
914	10691
914.113	10866
914.226	10915
914.34	10809
914.453	10653
914.566	10828
914.68	10714
914.793	10611
914.906	10519
915.019	10535
915.132	10443
915.245	10443
915.358	10497
915.47	10603
915.583	10493
915.696	10569
915.809	10592
915.921	10615
916.034	10519
916.146	10481
916.259	10489
916.371	10550
916.483	10474
916.595	10455
916.708	10474
916.82	10527
916.932	10371
917.044	10459
917.156	10386
917.268	10386
917.38	10329
917.491	10344
917.603	10390
917.715	10462
917.826	10390
917.938	10299
918.049	10188
918.161	10382
918.272	10500
918.384	10417
918.495	10314
918.606	10223
918.717	10143
918.828	10192
918.939	10234
919.05	10177
919.161	10238
919.272	10013
919.383	10029
919.494	10329
919.604	10405
919.715	10276
919.826	10093
919.936	10166
920.047	10234
920.157	10242
920.267	10360
920.378	10253
920.488	10238
920.598	10436
920.708	10504
920.818	10459
920.928	10474
921.038	10618
921.148	10577
921.258	10276
921.368	10090
921.477	10036
921.587	10055
921.697	9975
921.806	10116
921.916	9964
922.025	9804
922.134	9774
922.244	9755
922.353	9831
922.462	9709
922.571	9610
922.68	9424
922.789	9431
922.898	9500
923.007	9443
923.116	9625
923.224	9485
923.333	9420
923.442	9355
923.55	9359
923.659	9382
923.767	9481
923.876	9332
923.984	9393
924.092	9302
924.201	9348
924.309	9317
924.417	9264
924.525	9298
924.633	9329
924.741	10265
924.849	9104
924.956	9256
925.064	9081
925.172	9062
925.279	9093
925.387	9218
925.494	9116
925.602	9279
925.709	9226
925.816	9199
925.924	9146
926.031	9256
926.138	9154
926.245	9165
926.352	9070
926.459	9233
926.566	9268
926.673	9089
926.779	9039
926.886	8963
926.993	8880
927.099	8861
927.206	8842
927.312	8834
927.419	8906
927.525	8811
927.631	8895
927.737	8739
927.843	8796
927.95	8640
928.056	8739
928.162	8766
928.267	8792
928.373	9416
928.479	8815
928.585	8617
928.69	8746
928.796	8823
928.901	8708
929.007	8587
929.112	8670
929.218	8644
929.323	8594
929.428	8537
929.533	8705
929.638	8533
929.743	8564
929.848	8613
929.953	8541
930.058	8503
930.163	8263
930.267	8381
930.372	8488
930.477	8298
930.581	8511
930.685	8473
930.79	8202
930.894	8317
930.998	8279
931.103	8385
931.207	8043
931.311	8088
931.415	7974
931.519	7826
931.623	7803
