Data from test_V78500241_2332.txt Node
Date: Fri Mar 25 14:49:56 CST 2022
User: usil
Spectrometer: V785-0024
Trigger mode: 0
Integration Time (sec): 4.000000E-1
Scans to average: 1
Nonlinearity correction enabled: false
Boxcar width: 0
Storing dark spectrum: false
XAxis mode: Wavelengths
Number of Pixels in Spectrum: 1024
>>>>>Begin Spectral Data<<<<<
801.071	22207
801.214	22048
801.356	21816
801.499	21789
801.641	21538
801.783	21652
801.926	21648
802.068	21492
802.211	21412
802.353	21397
802.496	21089
802.638	21043
802.78	21001
802.923	20883
803.065	20838
803.208	20781
803.35	20910
803.492	20952
803.635	21070
803.777	20842
803.919	20899
804.061	21344
804.204	20914
804.346	20853
804.488	20796
804.63	20971
804.773	20746
804.915	20842
805.057	20982
805.199	20720
805.341	20937
805.483	20956
805.626	20853
805.768	20758
805.91	20819
806.052	20891
806.194	20735
806.336	20891
806.478	20815
806.62	20792
806.762	20925
806.904	20986
807.046	21176
807.188	21096
807.33	21188
807.472	21211
807.614	21005
807.756	20929
807.898	20967
808.04	20845
808.182	20933
808.324	20857
808.465	20929
808.607	21074
808.749	21230
808.891	21321
809.033	21481
809.174	21279
809.316	21226
809.458	21351
809.6	21150
809.741	21264
809.883	21207
810.025	21272
810.166	21367
810.308	21317
810.45	21302
810.591	21192
810.733	21112
810.875	21005
811.016	20849
811.158	20811
811.299	21047
811.441	21070
811.582	21043
811.724	21017
811.865	20960
812.007	20819
812.148	20941
812.29	21009
812.431	21055
812.573	21245
812.714	21389
812.855	21488
812.997	21496
813.138	21831
813.279	21576
813.421	21485
813.562	21416
813.703	21207
813.845	21195
813.986	20769
814.127	20735
814.268	20632
814.41	20564
814.551	20488
814.692	20587
814.833	20476
814.974	20499
815.115	20606
815.256	20400
815.397	20400
815.539	20332
815.68	20282
815.821	20202
815.962	20157
816.103	20240
816.244	20138
816.385	19974
816.526	19928
816.666	19818
816.807	19666
816.948	19696
817.089	19807
817.23	19731
817.371	19677
817.512	19620
817.653	19590
817.793	19491
817.934	19575
818.075	19563
818.216	19643
818.356	19586
818.497	19521
818.638	19343
818.778	19422
818.919	19266
819.06	19316
819.2	19430
819.341	19415
819.481	19548
819.622	19567
819.762	19837
819.903	19689
820.043	19639
820.184	19700
820.324	19628
820.465	19761
820.605	19647
820.746	19563
820.886	19411
821.026	19613
821.167	19605
821.307	19647
821.447	19468
821.588	19457
821.728	19274
821.868	19133
822.008	18977
822.149	18951
822.289	19038
822.429	18696
822.569	18760
822.709	18658
822.849	18536
822.99	18551
823.13	18585
823.27	18471
823.41	18361
823.55	18228
823.69	18437
823.83	18357
823.97	18273
824.11	17977
824.25	18152
824.389	18133
824.529	18171
824.669	18102
824.809	18095
824.949	18148
825.089	18114
825.228	18091
825.368	17870
825.508	17779
825.648	17733
825.787	17855
825.927	17931
826.067	17821
826.206	17813
826.346	17908
826.485	17874
826.625	17824
826.765	17866
826.904	17863
827.044	17638
827.183	17611
827.323	17501
827.462	17611
827.601	17509
827.741	17532
827.88	17539
828.02	17337
828.159	17474
828.298	17516
828.437	17501
828.577	17535
828.716	17676
828.855	17440
828.994	17299
829.134	17254
829.273	17406
829.412	17265
829.551	17185
829.69	17220
829.829	17208
829.968	17284
830.107	17341
830.246	17334
830.385	17140
830.524	17136
830.663	17105
830.802	16961
830.941	16915
831.08	16793
831.219	17022
831.357	16949
831.496	17102
831.635	16911
831.774	16805
831.913	16687
832.051	16717
832.19	16649
832.329	16637
832.467	16561
832.606	16554
832.744	16519
832.883	16527
833.022	16531
833.16	16596
833.299	16630
833.437	16653
833.576	16550
833.714	16497
833.852	16618
833.991	16725
834.129	16710
834.267	16611
834.406	16641
834.544	16653
834.682	16702
834.821	16573
834.959	16805
835.097	16531
835.235	16672
835.373	16603
835.511	16607
835.65	16512
835.788	16596
835.926	16352
836.064	16265
836.202	16276
836.34	16519
836.478	16584
836.615	16546
836.753	16363
836.891	16542
837.029	16565
837.167	16550
837.305	16462
837.443	16413
837.58	16386
837.718	16500
837.856	16375
837.993	16314
838.131	16436
838.269	16329
838.406	16299
838.544	16276
838.681	16116
838.819	16029
838.956	15880
839.094	15903
839.231	15960
839.369	15994
839.506	16242
839.643	16173
839.781	15968
839.918	15895
840.055	15934
840.193	15857
840.33	15793
840.467	15876
840.604	15915
840.742	16204
840.879	15861
841.016	15876
841.153	15800
841.29	15979
841.427	15941
841.564	15926
841.701	15991
841.838	15857
841.975	15869
842.112	15876
842.249	15690
842.385	15660
842.522	15823
842.659	15682
842.796	15724
842.933	15717
843.069	15622
843.206	15625
843.343	15705
843.479	15694
843.616	15690
843.752	15587
843.889	15568
844.025	15641
844.162	15500
844.298	15606
844.435	15481
844.571	15389
844.708	15580
844.844	15679
844.98	15736
845.117	15595
845.253	15374
845.389	15454
845.525	15435
845.661	15428
845.798	15310
845.934	15264
846.07	15226
846.206	15233
846.342	15431
846.478	15397
846.614	15199
846.75	14975
846.886	15085
847.022	15176
847.158	15017
847.294	15001
847.429	15108
847.565	15055
847.701	15287
847.837	14807
847.972	14750
848.108	14864
848.244	14899
848.379	14667
848.515	14693
848.65	14625
848.786	14663
848.921	14708
849.057	14678
849.192	14769
849.328	14606
849.463	14674
849.598	14590
849.734	14575
849.869	14522
850.004	14396
850.14	14400
850.275	14438
850.41	14374
850.545	14362
850.68	14381
850.815	14404
850.95	14415
851.085	14610
851.22	14495
851.355	14469
851.49	14381
851.625	14301
851.76	14423
851.895	14336
852.03	14256
852.165	14419
852.299	14423
852.434	14434
852.569	14438
852.703	14476
852.838	14461
852.973	14480
853.107	14575
853.242	14431
853.376	14412
853.511	14229
853.645	14199
853.78	14408
853.914	14282
854.048	14233
854.183	14282
854.317	14252
854.451	14465
854.585	14271
854.72	14313
854.854	14343
854.988	14229
855.122	14210
855.256	14145
855.39	14233
855.524	14240
855.658	14313
855.792	14336
855.926	14286
856.06	14263
856.194	14400
856.327	14218
856.461	14290
856.595	14153
856.729	14214
856.862	14343
856.996	14298
857.13	14370
857.263	14336
857.397	14507
857.53	14263
857.664	14305
857.797	14374
857.931	14366
858.064	14298
858.197	14389
858.331	14317
858.464	14176
858.597	14214
858.731	14187
858.864	14195
858.997	14199
859.13	14347
859.263	14259
859.396	14294
859.529	14210
859.662	14134
859.795	14157
859.928	14282
860.061	14393
860.194	14564
860.327	14431
860.46	14271
860.592	14412
860.725	14415
860.858	14400
860.99	14271
861.123	14202
861.256	14145
861.388	14206
861.521	14716
861.653	14172
861.786	14100
861.918	14191
862.05	14161
862.183	14305
862.315	14309
862.447	14328
862.58	14191
862.712	14084
862.844	13913
862.976	14058
863.108	14134
863.24	14320
863.372	14027
863.504	14092
863.636	14069
863.768	14168
863.9	14005
864.032	13871
864.164	14008
864.296	14100
864.428	14210
864.559	14123
864.691	14145
864.823	14134
864.954	14046
865.086	14092
865.217	14043
865.349	14020
865.48	14062
865.612	14008
865.743	14206
865.875	14092
866.006	13986
866.137	13947
866.269	14096
866.4	14046
866.531	14065
866.662	14031
866.793	13974
866.924	13932
867.055	14046
867.186	14123
867.317	14012
867.448	13932
867.579	13974
867.71	13879
867.841	13955
867.972	14073
868.103	14069
868.233	14050
868.364	14126
868.495	14088
868.625	14248
868.756	14324
868.886	14286
869.017	14355
869.147	14423
869.278	14415
869.408	14225
869.539	14294
869.669	14469
869.799	14259
869.929	14381
870.06	14423
870.19	14541
870.32	14549
870.45	14530
870.58	14708
870.71	14746
870.84	14769
870.97	14735
871.1	14701
871.23	14804
871.36	14906
871.489	14800
871.619	14906
871.749	14868
871.879	14918
872.008	15005
872.138	14956
872.267	14853
872.397	14769
872.526	14712
872.656	14796
872.785	14785
872.915	14937
873.044	15024
873.173	14963
873.303	14918
873.432	14925
873.561	15039
873.69	14975
873.819	14853
873.948	14952
874.077	14975
874.206	14902
874.335	15036
874.464	15085
874.593	15203
874.722	15100
874.851	15241
874.979	15245
875.108	15329
875.237	15161
875.365	15176
875.494	15161
875.623	15252
875.751	15287
875.88	15283
876.008	15389
876.136	15420
876.265	15652
876.393	15762
876.521	15804
876.65	15720
876.778	15694
876.906	15564
877.034	15599
877.162	15641
877.29	15580
877.418	15690
877.546	15671
877.674	15610
877.802	15663
877.93	15671
878.058	15633
878.185	15504
878.313	15675
878.441	15671
878.568	15420
878.696	15603
878.824	15641
878.951	15732
879.079	15793
879.206	15979
879.333	15701
879.461	15739
879.588	15679
879.715	15778
879.842	15926
879.97	15599
880.097	15534
880.224	15526
880.351	15519
880.478	15576
880.605	15458
880.732	15481
880.859	15679
880.986	15488
881.112	15538
881.239	15313
881.366	15283
881.493	15272
881.619	15093
881.746	15184
881.872	15218
881.999	15043
882.125	15146
882.252	15237
882.378	15131
882.505	15245
882.631	15066
882.757	15051
882.883	15020
883.01	14933
883.136	14933
883.262	14944
883.388	14906
883.514	14872
883.64	14975
883.766	14876
883.892	14762
884.018	14868
884.143	15051
884.269	15051
884.395	14819
884.52	14583
884.646	14735
884.772	14644
884.897	14514
885.023	14701
885.148	14800
885.274	14830
885.399	14845
885.524	14659
885.65	14670
885.775	14716
885.9	14693
886.025	14781
886.15	14750
886.275	14594
886.4	14590
886.525	14594
886.65	14545
886.775	14594
886.9	14823
887.025	14807
887.149	14724
887.274	14457
887.399	14511
887.523	14533
887.648	14488
887.773	14476
887.897	14511
888.021	14598
888.146	14442
888.27	14594
888.395	14594
888.519	14507
888.643	14579
888.767	14556
888.891	14480
889.015	14480
889.139	14408
889.263	14393
889.387	14552
889.511	14533
889.635	14442
889.759	14324
889.883	14454
890.006	14328
890.13	14503
890.254	14286
890.377	14396
890.501	14218
890.624	14237
890.748	14339
890.871	14107
890.995	14073
891.118	13967
891.241	14111
891.364	14134
891.488	14134
891.611	14077
891.734	14027
891.857	14081
891.98	14103
892.103	14153
892.226	14096
892.349	14157
892.471	14039
892.594	13997
892.717	14130
892.839	14043
892.962	14107
893.085	14107
893.207	14138
893.33	13967
893.452	14024
893.575	14161
893.697	14142
893.819	14187
893.941	14324
894.064	14210
894.186	14088
894.308	14020
894.43	14183
894.552	14191
894.674	14221
894.796	14039
894.918	14134
895.04	14119
895.161	14221
895.283	14305
895.405	14103
895.526	14149
895.648	14199
895.769	14229
895.891	14259
896.012	14275
896.134	14320
896.255	14263
896.376	14172
896.498	14256
896.619	14309
896.74	14244
896.861	14412
896.982	14545
897.103	14773
897.224	14549
897.345	14488
897.466	14419
897.587	14454
897.708	14625
897.828	14625
897.949	14537
898.07	14381
898.19	14541
898.311	14678
898.431	14568
898.552	14648
898.672	14701
898.792	14754
898.913	14606
899.033	14590
899.153	14492
899.273	14328
899.393	14423
899.513	14541
899.633	14476
899.753	14492
899.873	14495
899.993	14499
900.113	14442
900.232	14507
900.352	14450
900.472	14408
900.591	14271
900.711	14294
900.83	14275
900.95	14419
901.069	14412
901.189	14317
901.308	14119
901.427	13993
901.546	13982
901.665	14065
901.784	14088
901.904	13841
902.023	13727
902.141	13628
902.26	13605
902.379	13681
902.498	13578
902.617	13521
902.735	13643
902.854	13540
902.973	13506
903.091	13316
903.21	13282
903.328	13308
903.446	13255
903.565	13293
903.683	13213
903.801	13050
903.919	13091
904.038	13168
904.156	13008
904.274	13099
904.392	12935
904.51	12875
904.627	12970
904.745	12996
904.863	13072
904.981	12802
905.098	12608
905.216	12711
905.334	12662
905.451	12593
905.569	12730
905.686	12665
905.803	12646
905.921	12429
906.038	12662
906.155	12502
906.272	12350
906.389	12448
906.506	12296
906.623	12319
906.74	12175
906.857	12060
906.974	12136
907.091	12292
907.208	12327
907.324	12300
907.441	12129
907.557	11969
907.674	12019
907.79	11908
907.907	12079
908.023	11996
908.139	12015
908.256	12007
908.372	11965
908.488	11912
908.604	11783
908.72	11741
908.836	11771
908.952	11699
909.068	11794
909.184	11824
909.3	11688
909.415	11756
909.531	11775
909.647	11539
909.762	11539
909.878	11493
909.993	11573
910.108	11429
910.224	11482
910.339	11459
910.454	11410
910.57	11273
910.685	11292
910.8	11577
910.915	11520
911.03	11387
911.145	11185
911.259	11296
911.374	11162
911.489	11075
911.604	11147
911.718	11048
911.833	10961
911.947	10869
912.062	10858
912.176	10976
912.291	10999
912.405	11029
912.519	11113
912.633	11204
912.748	11121
912.862	10930
912.976	10793
913.09	10790
913.204	10752
913.318	10858
913.431	10942
913.545	10949
913.659	10980
913.772	10869
913.886	10729
914	10733
914.113	10805
914.226	10908
914.34	10786
914.453	10752
914.566	10858
914.68	10694
914.793	10622
914.906	10481
915.019	10436
915.132	10356
915.245	10527
915.358	10542
915.47	10413
915.583	10478
915.696	10489
915.809	10626
915.921	10599
916.034	10432
916.146	10394
916.259	10443
916.371	10485
916.483	10462
916.595	10371
916.708	10405
916.82	10371
916.932	10386
917.044	10363
917.156	10402
917.268	10230
917.38	10322
917.491	10272
917.603	10440
917.715	10432
917.826	10459
917.938	10322
918.049	10177
918.161	10333
918.272	10542
918.384	10451
918.495	10341
918.606	10169
918.717	10177
918.828	10181
918.939	10192
919.05	10017
919.161	10166
919.272	10017
919.383	10128
919.494	10246
919.604	10462
919.715	10227
919.826	10131
919.936	10207
920.047	10272
920.157	10261
920.267	10440
920.378	10246
920.488	10200
920.598	10382
920.708	10497
920.818	10409
920.928	10371
921.038	10519
921.148	10493
921.258	10333
921.368	10139
921.477	10067
921.587	10082
921.697	9865
921.806	10082
921.916	9918
922.025	9736
922.134	9793
922.244	9724
922.353	9797
922.462	9686
922.571	9637
922.68	9431
922.789	9416
922.898	9443
923.007	9424
923.116	9504
923.224	9454
923.333	9447
923.442	9412
923.55	9325
923.659	9370
923.767	9435
923.876	9249
923.984	9363
924.092	9287
924.201	9336
924.309	9260
924.417	9310
924.525	9226
924.633	9272
924.741	10059
924.849	9070
924.956	9249
925.064	9028
925.172	8994
925.279	9093
925.387	9154
925.494	9074
925.602	9260
925.709	9192
925.816	8990
925.924	9195
926.031	9169
926.138	9135
926.245	9169
926.352	9077
926.459	9165
926.566	9199
926.673	9077
926.779	8971
926.886	9077
926.993	8830
927.099	8826
927.206	8800
927.312	8781
927.419	8792
927.525	8804
927.631	8944
927.737	8857
927.843	8739
927.95	8629
928.056	8773
928.162	8788
928.267	8804
928.373	9389
928.479	8845
928.585	8552
928.69	8746
928.796	8792
928.901	8610
929.007	8492
929.112	8667
929.218	8625
929.323	8545
929.428	8583
929.533	8667
929.638	8499
929.743	8530
929.848	8560
929.953	8511
930.058	8389
930.163	8290
930.267	8256
930.372	8434
930.477	8279
930.581	8560
930.685	8385
930.79	8218
930.894	8305
930.998	8214
931.103	8412
931.207	8016
931.311	8005
931.415	7982
931.519	7738
931.623	7788
