Data from test_V78500241_1451.txt Node
Date: Fri Mar 25 14:43:49 CST 2022
User: usil
Spectrometer: V785-0024
Trigger mode: 0
Integration Time (sec): 4.000000E-1
Scans to average: 1
Nonlinearity correction enabled: false
Boxcar width: 0
Storing dark spectrum: false
XAxis mode: Wavelengths
Number of Pixels in Spectrum: 1024
>>>>>Begin Spectral Data<<<<<
801.071	22455
801.214	22409
801.356	22169
801.499	21975
801.641	21937
801.783	21804
801.926	21922
802.068	21709
802.211	21797
802.353	21717
802.496	21378
802.638	21321
802.78	21310
802.923	21260
803.065	21173
803.208	21100
803.35	21256
803.492	21222
803.635	21363
803.777	21104
803.919	21317
804.061	21450
804.204	21085
804.346	21104
804.488	21017
804.63	21165
804.773	21077
804.915	21020
805.057	21157
805.199	21100
805.341	21070
805.483	21173
805.626	21108
805.768	21028
805.91	21085
806.052	21039
806.194	20975
806.336	21176
806.478	21009
806.62	21024
806.762	21135
806.904	21317
807.046	21424
807.188	21496
807.33	21469
807.472	21652
807.614	21511
807.756	21496
807.898	21359
808.04	21302
808.182	21268
808.324	21291
808.465	21298
808.607	21526
808.749	21637
808.891	21846
809.033	21823
809.174	21835
809.316	21705
809.458	21644
809.6	21576
809.741	21542
809.883	21679
810.025	21701
810.166	21625
810.308	21599
810.45	21610
810.591	21572
810.733	21431
810.875	21294
811.016	21157
811.158	21112
811.299	21264
811.441	21325
811.582	21298
811.724	21332
811.865	21241
812.007	21279
812.148	21370
812.29	21313
812.431	21344
812.573	21568
812.714	21660
812.855	21812
812.997	21762
813.138	21964
813.279	21785
813.421	21724
813.562	21652
813.703	21519
813.845	21435
813.986	21108
814.127	20902
814.268	20921
814.41	20921
814.551	20708
814.692	20883
814.833	20792
814.974	20712
815.115	20807
815.256	20579
815.397	20644
815.539	20655
815.68	20579
815.821	20518
815.962	20579
816.103	20511
816.244	20336
816.385	20259
816.526	20381
816.666	20081
816.807	19944
816.948	20069
817.089	20050
817.23	19951
817.371	19967
817.512	19917
817.653	19986
817.793	19890
817.934	19902
818.075	20035
818.216	19997
818.356	19890
818.497	19822
818.638	19616
818.778	19620
818.919	19529
819.06	19651
819.2	19651
819.341	19750
819.481	19742
819.622	19883
819.762	20142
819.903	20115
820.043	20020
820.184	19803
820.324	19909
820.465	19898
820.605	19845
820.746	19879
820.886	19871
821.026	19967
821.167	19940
821.307	19928
821.447	19833
821.588	19712
821.728	19620
821.868	19525
822.008	19335
822.149	19255
822.289	19206
822.429	19084
822.569	18951
822.709	19095
822.849	18810
822.99	18760
823.13	18829
823.27	18844
823.41	18593
823.55	18578
823.69	18661
823.83	18551
823.97	18570
824.11	18410
824.25	18228
824.389	18361
824.529	18456
824.669	18319
824.809	18494
824.949	18369
825.089	18388
825.228	18437
825.368	18285
825.508	18224
825.648	18114
825.787	18239
825.927	18239
826.067	18106
826.206	18072
826.346	18220
826.485	18106
826.625	18201
826.765	18182
826.904	18266
827.044	17999
827.183	17802
827.323	17767
827.462	18019
827.601	17824
827.741	17817
827.88	17912
828.02	17726
828.159	17790
828.298	17859
828.437	17965
828.577	17828
828.716	17996
828.855	17726
828.994	17634
829.134	17615
829.273	17604
829.412	17505
829.551	17642
829.69	17535
829.829	17543
829.968	17741
830.107	17687
830.246	17703
830.385	17665
830.524	17509
830.663	17429
830.802	17364
830.941	17220
831.08	17102
831.219	17223
831.357	17318
831.496	17417
831.635	17121
831.774	17140
831.913	17113
832.051	17086
832.19	17067
832.329	17102
832.467	16877
832.606	16873
832.744	16995
832.883	16869
833.022	16869
833.16	16915
833.299	16949
833.437	16923
833.576	16976
833.714	16987
833.852	16987
833.991	17018
834.129	17113
834.267	16987
834.406	17003
834.544	16957
834.682	16980
834.821	16793
834.959	17200
835.097	16961
835.235	17029
835.373	16930
835.511	16946
835.65	16900
835.788	16911
835.926	16812
836.064	16694
836.202	16767
836.34	16915
836.478	16927
836.615	16782
836.753	16869
836.891	16934
837.029	16972
837.167	16812
837.305	16828
837.443	16660
837.58	16637
837.718	16755
837.856	16771
837.993	16786
838.131	16656
838.269	16634
838.406	16710
838.544	16634
838.681	16493
838.819	16356
838.956	16154
839.094	16162
839.231	16249
839.369	16367
839.506	16580
839.643	16538
839.781	16344
839.918	16120
840.055	16337
840.193	16261
840.33	16280
840.467	16192
840.604	16265
840.742	16599
840.879	16139
841.016	16109
841.153	16158
841.29	16295
841.427	16268
841.564	16306
841.701	16379
841.838	16280
841.975	16105
842.112	16234
842.249	16086
842.385	16032
842.522	16257
842.659	16051
842.796	15987
842.933	16036
843.069	16006
843.206	16036
843.343	16063
843.479	16063
843.616	16036
843.752	15895
843.889	15808
844.025	16059
844.162	15800
844.298	15918
844.435	15831
844.571	15762
844.708	15888
844.844	15983
844.98	15941
845.117	15903
845.253	15770
845.389	15774
845.525	15865
845.661	15865
845.798	15838
845.934	15899
846.07	15918
846.206	15960
846.342	15983
846.478	15816
846.614	15595
846.75	15473
846.886	15317
847.022	15492
847.158	15359
847.294	15477
847.429	15370
847.565	15359
847.701	15606
847.837	15161
847.972	15100
848.108	15203
848.244	15272
848.379	15039
848.515	14929
848.65	14975
848.786	14990
848.921	15062
849.057	15127
849.192	15043
849.328	15108
849.463	15001
849.598	14975
849.734	15001
849.869	14849
850.004	14758
850.14	14731
850.275	14842
850.41	14667
850.545	14617
850.68	14667
850.815	14796
850.95	14670
851.085	14895
851.22	14819
851.355	14777
851.49	14693
851.625	14655
851.76	14705
851.895	14663
852.03	14602
852.165	14857
852.299	14754
852.434	14792
852.569	14811
852.703	14792
852.838	14819
852.973	14857
853.107	14887
853.242	14678
853.376	14590
853.511	14533
853.645	14625
853.78	14762
853.914	14735
854.048	14667
854.183	14571
854.317	14648
854.451	14758
854.585	14674
854.72	14621
854.854	14629
854.988	14568
855.122	14488
855.256	14423
855.39	14537
855.524	14705
855.658	14712
855.792	14663
855.926	14636
856.06	14648
856.194	14743
856.327	14636
856.461	14549
856.595	14594
856.729	14610
856.862	14769
856.996	14629
857.13	14663
857.263	14746
857.397	14750
857.53	14564
857.664	14613
857.797	14708
857.931	14746
858.064	14674
858.197	14735
858.331	14594
858.464	14560
858.597	14583
858.731	14587
858.864	14579
858.997	14629
859.13	14659
859.263	14579
859.396	14796
859.529	14568
859.662	14606
859.795	14556
859.928	14594
860.061	14777
860.194	14727
860.327	14670
860.46	14587
860.592	14682
860.725	14701
860.858	14781
860.99	14640
861.123	14518
861.256	14545
861.388	14686
861.521	15325
861.653	14476
861.786	14484
861.918	14480
862.05	14602
862.183	14552
862.315	14651
862.447	14655
862.58	14571
862.712	14377
862.844	14355
862.976	14514
863.108	14457
863.24	14834
863.372	14256
863.504	14332
863.636	14396
863.768	14317
863.9	14480
864.032	14336
864.164	14385
864.296	14355
864.428	14575
864.559	14465
864.691	14431
864.823	14370
864.954	14381
865.086	14419
865.217	14446
865.349	14294
865.48	14305
865.612	14374
865.743	14366
865.875	14317
866.006	14278
866.137	14438
866.269	14298
866.4	14347
866.531	14362
866.662	14278
866.793	14396
866.924	14469
867.055	14412
867.186	14256
867.317	14225
867.448	14248
867.579	14278
867.71	14309
867.841	14275
867.972	14423
868.103	14374
868.233	14465
868.364	14366
868.495	14400
868.625	14503
868.756	14785
868.886	14476
869.017	14598
869.147	14693
869.278	14769
869.408	14636
869.539	14644
869.669	14739
869.799	14602
869.929	14693
870.06	14720
870.19	14982
870.32	14990
870.45	15017
870.58	15039
870.71	15097
870.84	15123
870.97	15024
871.1	15028
871.23	15173
871.36	15222
871.489	15108
871.619	15195
871.749	15188
871.879	15279
872.008	15344
872.138	15275
872.267	15192
872.397	15047
872.526	14990
872.656	15085
872.785	15066
872.915	15252
873.044	15245
873.173	15233
873.303	15245
873.432	15241
873.561	15378
873.69	15211
873.819	15298
873.948	15336
874.077	15298
874.206	15275
874.335	15252
874.464	15287
874.593	15496
874.722	15519
874.851	15633
874.979	15496
875.108	15568
875.237	15435
875.365	15534
875.494	15538
875.623	15686
875.751	15435
875.88	15694
876.008	15610
876.136	15781
876.265	15964
876.393	16181
876.521	16006
876.65	16090
876.778	15998
876.906	15953
877.034	15876
877.162	15972
877.29	15991
877.418	15991
877.546	15926
877.674	16006
877.802	15975
877.93	16032
878.058	15979
878.185	15873
878.313	16013
878.441	15972
878.568	15884
878.696	15979
878.824	16017
878.951	16105
879.079	16261
879.206	16402
879.333	16204
879.461	16143
879.588	16287
879.715	16363
879.842	16394
879.97	16063
880.097	15994
880.224	15812
880.351	15983
880.478	15972
880.605	15903
880.732	15808
880.859	16071
880.986	15816
881.112	15949
881.239	15823
881.366	15656
881.493	15481
881.619	15481
881.746	15603
881.872	15431
881.999	15462
882.125	15424
882.252	15530
882.378	15587
882.505	15709
882.631	15496
882.757	15348
882.883	15370
883.01	15348
883.136	15408
883.262	15279
883.388	15218
883.514	15329
883.64	15355
883.766	15348
883.892	15108
884.018	15138
884.143	15340
884.269	15310
884.395	15146
884.52	15028
884.646	15028
884.772	15051
884.897	14941
885.023	15047
885.148	15100
885.274	15188
885.399	15203
885.524	15005
885.65	15001
885.775	15058
885.9	15074
886.025	15119
886.15	15005
886.275	14944
886.4	14876
886.525	14986
886.65	14891
886.775	14929
886.9	15146
887.025	15275
887.149	15020
887.274	14944
887.399	14811
887.523	14883
887.648	14773
887.773	14705
887.897	14910
888.021	14811
888.146	14758
888.27	14918
888.395	14933
888.519	14899
888.643	14864
888.767	14899
888.891	14750
889.015	14750
889.139	14716
889.263	14663
889.387	14758
889.511	14880
889.635	14792
889.759	14697
889.883	14682
890.006	14792
890.13	14754
890.254	14670
890.377	14625
890.501	14446
890.624	14438
890.748	14678
890.871	14465
890.995	14442
891.118	14305
891.241	14381
891.364	14381
891.488	14526
891.611	14301
891.734	14355
891.857	14358
891.98	14450
892.103	14499
892.226	14446
892.349	14385
892.471	14176
892.594	14343
892.717	14370
892.839	14385
892.962	14393
893.085	14404
893.207	14461
893.33	14317
893.452	14263
893.575	14442
893.697	14290
893.819	14564
893.941	14571
894.064	14511
894.186	14389
894.308	14362
894.43	14549
894.552	14648
894.674	14533
894.796	14259
894.918	14431
895.04	14438
895.161	14571
895.283	14457
895.405	14450
895.526	14438
895.648	14484
895.769	14571
895.891	14488
896.012	14629
896.134	14602
896.255	14541
896.376	14408
896.498	14587
896.619	14651
896.74	14552
896.861	14659
896.982	14918
897.103	14998
897.224	14861
897.345	14769
897.466	14823
897.587	14811
897.708	14921
897.828	14868
897.949	14769
898.07	14648
898.19	14754
898.311	14914
898.431	14849
898.552	14864
898.672	15013
898.792	14929
898.913	14937
899.033	14830
899.153	14693
899.273	14659
899.393	14720
899.513	14659
899.633	14682
899.753	14708
899.873	14693
899.993	14845
900.113	14765
900.232	14819
900.352	14754
900.472	14621
900.591	14522
900.711	14636
900.83	14568
900.95	14712
901.069	14663
901.189	14590
901.308	14366
901.427	14282
901.546	14275
901.665	14415
901.784	14328
901.904	14054
902.023	13955
902.141	13890
902.26	13879
902.379	13967
902.498	13761
902.617	13757
902.735	13864
902.854	13799
902.973	13837
903.091	13567
903.21	13651
903.328	13434
903.446	13460
903.565	13339
903.683	13392
903.801	13320
903.919	13411
904.038	13377
904.156	13213
904.274	13308
904.392	13225
904.51	13118
904.627	13297
904.745	13194
904.863	13270
904.981	13034
905.098	12863
905.216	12958
905.334	12935
905.451	12947
905.569	12856
905.686	12867
905.803	12916
905.921	12707
906.038	12852
906.155	12650
906.272	12703
906.389	12597
906.506	12566
906.623	12445
906.74	12498
906.857	12369
906.974	12391
907.091	12578
907.208	12669
907.324	12441
907.441	12475
907.557	12258
907.674	12175
907.79	12167
907.907	12175
908.023	12285
908.139	12243
908.256	12171
908.372	12155
908.488	12136
908.604	12015
908.72	11950
908.836	11904
908.952	11916
909.068	11996
909.184	12068
909.3	11988
909.415	12091
909.531	11939
909.647	11760
909.762	11630
909.878	11748
909.993	11779
910.108	11790
910.224	11668
910.339	11737
910.454	11627
910.57	11688
910.685	11452
910.8	11840
910.915	11756
911.03	11615
911.145	11467
911.259	11349
911.374	11444
911.489	11341
911.604	11356
911.718	11159
911.833	11201
911.947	11113
912.062	11006
912.176	11258
912.291	11193
912.405	11166
912.519	11402
912.633	11337
912.748	11254
912.862	11246
912.976	11090
913.09	10976
913.204	10980
913.318	11033
913.431	11181
913.545	11140
913.659	11178
913.772	11155
913.886	10980
914	10980
914.113	10927
914.226	11041
914.34	11045
914.453	10801
914.566	11048
914.68	10991
914.793	10869
914.906	10733
915.019	10675
915.132	10653
915.245	10694
915.358	10687
915.47	10675
915.583	10683
915.696	10790
915.809	10835
915.921	10793
916.034	10717
916.146	10607
916.259	10634
916.371	10706
916.483	10660
916.595	10542
916.708	10611
916.82	10577
916.932	10683
917.044	10607
917.156	10573
917.268	10466
917.38	10584
917.491	10466
917.603	10474
917.715	10599
917.826	10641
917.938	10478
918.049	10379
918.161	10527
918.272	10698
918.384	10622
918.495	10527
918.606	10360
918.717	10337
918.828	10398
918.939	10390
919.05	10303
919.161	10363
919.272	10261
919.383	10310
919.494	10432
919.604	10615
919.715	10459
919.826	10363
919.936	10375
920.047	10398
920.157	10428
920.267	10599
920.378	10489
920.488	10390
920.598	10580
920.708	10725
920.818	10656
920.928	10615
921.038	10729
921.148	10717
921.258	10432
921.368	10352
921.477	10363
921.587	10215
921.697	10112
921.806	10306
921.916	10101
922.025	9975
922.134	9983
922.244	9922
922.353	10040
922.462	9778
922.571	9808
922.68	9633
922.789	9595
922.898	9633
923.007	9656
923.116	9686
923.224	9606
923.333	9698
923.442	9511
923.55	9504
923.659	9595
923.767	9625
923.876	9504
923.984	9553
924.092	9420
924.201	9523
924.309	9515
924.417	9538
924.525	9393
924.633	9511
924.741	10382
924.849	9233
924.956	9447
925.064	9260
925.172	9249
925.279	9218
925.387	9256
925.494	9298
925.602	9431
925.709	9359
925.816	9260
925.924	9370
926.031	9393
926.138	9256
926.245	9370
926.352	9283
926.459	9408
926.566	9393
926.673	9241
926.779	9184
926.886	9112
926.993	9017
927.099	9013
927.206	8864
927.312	8975
927.419	9051
927.525	8971
927.631	9051
927.737	8899
927.843	8838
927.95	8769
928.056	8906
928.162	8868
928.267	8948
928.373	9595
928.479	8990
928.585	8750
928.69	8849
928.796	8918
928.901	8819
929.007	8636
929.112	8823
929.218	8720
929.323	8727
929.428	8689
929.533	8887
929.638	8667
929.743	8682
929.848	8686
929.953	8686
930.058	8594
930.163	8442
930.267	8427
930.372	8545
930.477	8427
930.581	8617
930.685	8568
930.79	8442
930.894	8427
930.998	8423
931.103	8610
931.207	8195
931.311	8149
931.415	8157
931.519	7894
931.623	7894
