Data from test_V78500241_2008.txt Node
Date: Fri Mar 25 14:47:41 CST 2022
User: usil
Spectrometer: V785-0024
Trigger mode: 0
Integration Time (sec): 4.000000E-1
Scans to average: 1
Nonlinearity correction enabled: false
Boxcar width: 0
Storing dark spectrum: false
XAxis mode: Wavelengths
Number of Pixels in Spectrum: 1024
>>>>>Begin Spectral Data<<<<<
801.071	22055
801.214	21991
801.356	21785
801.499	21648
801.641	21469
801.783	21530
801.926	21481
802.068	21454
802.211	21405
802.353	21287
802.496	21146
802.638	21051
802.78	20857
802.923	20826
803.065	20602
803.208	20686
803.35	20826
803.492	20948
803.635	21005
803.777	20788
803.919	20864
804.061	21188
804.204	20868
804.346	20644
804.488	20788
804.63	20788
804.773	20663
804.915	20788
805.057	20785
805.199	20708
805.341	20724
805.483	20861
805.626	20834
805.768	20613
805.91	20587
806.052	20781
806.194	20629
806.336	20853
806.478	20731
806.62	20750
806.762	20868
806.904	20861
807.046	21169
807.188	21047
807.33	21135
807.472	21112
807.614	20960
807.756	20975
807.898	20861
808.04	20823
808.182	20773
808.324	20777
808.465	20792
808.607	20906
808.749	21043
808.891	21184
809.033	21344
809.174	21096
809.316	21077
809.458	21077
809.6	21055
809.741	21116
809.883	21252
810.025	21272
810.166	21176
810.308	21260
810.45	21184
810.591	21116
810.733	20944
810.875	20933
811.016	20800
811.158	20708
811.299	20891
811.441	21024
811.582	20914
811.724	20792
811.865	20796
812.007	20804
812.148	20781
812.29	20921
812.431	20944
812.573	21142
812.714	21374
812.855	21359
812.997	21450
813.138	21553
813.279	21332
813.421	21386
813.562	21237
813.703	21058
813.845	21085
813.986	20651
814.127	20594
814.268	20537
814.41	20434
814.551	20454
814.692	20400
814.833	20294
814.974	20389
815.115	20377
815.256	20237
815.397	20339
815.539	20267
815.68	20130
815.821	20081
815.962	20244
816.103	20161
816.244	19932
816.385	19887
816.526	19902
816.666	19662
816.807	19578
816.948	19662
817.089	19685
817.23	19537
817.371	19487
817.512	19480
817.653	19495
817.793	19476
817.934	19472
818.075	19578
818.216	19620
818.356	19476
818.497	19422
818.638	19141
818.778	19168
818.919	19373
819.06	19217
819.2	19304
819.341	19430
819.481	19411
819.622	19544
819.762	19818
819.903	19693
820.043	19575
820.184	19620
820.324	19525
820.465	19537
820.605	19426
820.746	19464
820.886	19460
821.026	19476
821.167	19464
821.307	19514
821.447	19506
821.588	19407
821.728	19225
821.868	19179
822.008	18970
822.149	18935
822.289	18951
822.429	18688
822.569	18627
822.709	18631
822.849	18460
822.99	18486
823.13	18395
823.27	18369
823.41	18205
823.55	18152
823.69	18216
823.83	18243
823.97	18144
824.11	18041
824.25	18057
824.389	18019
824.529	18144
824.669	17965
824.809	18095
824.949	18133
825.089	18038
825.228	18098
825.368	17775
825.508	17847
825.648	17912
825.787	17840
825.927	17870
826.067	17615
826.206	17798
826.346	17798
826.485	17809
826.625	17885
826.765	17965
826.904	17802
827.044	17611
827.183	17589
827.323	17349
827.462	17562
827.601	17539
827.741	17493
827.88	17497
828.02	17509
828.159	17425
828.298	17459
828.437	17471
828.577	17490
828.716	17577
828.855	17421
828.994	17292
829.134	17250
829.273	17216
829.412	17227
829.551	17212
829.69	17288
829.829	17174
829.968	17273
830.107	17341
830.246	17265
830.385	17143
830.524	17136
830.663	17003
830.802	17025
830.941	16881
831.08	16923
831.219	16919
831.357	16923
831.496	17041
831.635	16896
831.774	16752
831.913	16801
832.051	16675
832.19	16634
832.329	16721
832.467	16645
832.606	16516
832.744	16641
832.883	16531
833.022	16409
833.16	16588
833.299	16599
833.437	16599
833.576	16717
833.714	16584
833.852	16535
833.991	16634
834.129	16694
834.267	16713
834.406	16615
834.544	16611
834.682	16611
834.821	16546
834.959	16771
835.097	16470
835.235	16752
835.373	16706
835.511	16713
835.65	16462
835.788	16523
835.926	16402
836.064	16295
836.202	16371
836.34	16561
836.478	16656
836.615	16531
836.753	16607
836.891	16645
837.029	16531
837.167	16512
837.305	16356
837.443	16402
837.58	16268
837.718	16428
837.856	16421
837.993	16306
838.131	16519
838.269	16329
838.406	16333
838.544	16272
838.681	16162
838.819	16082
838.956	15888
839.094	15956
839.231	16021
839.369	16112
839.506	16299
839.643	16177
839.781	15949
839.918	15972
840.055	15972
840.193	15945
840.33	15983
840.467	15975
840.604	15892
840.742	16238
840.879	15816
841.016	15934
841.153	15857
841.29	16021
841.427	15975
841.564	15953
841.701	15949
841.838	15987
841.975	15857
842.112	15911
842.249	15736
842.385	15739
842.522	15930
842.659	15789
842.796	15644
842.933	15656
843.069	15595
843.206	15747
843.343	15846
843.479	15819
843.616	15770
843.752	15530
843.889	15538
844.025	15648
844.162	15397
844.298	15633
844.435	15500
844.571	15507
844.708	15507
844.844	15690
844.98	15606
845.117	15572
845.253	15488
845.389	15416
845.525	15530
845.661	15462
845.798	15321
845.934	15386
846.07	15329
846.206	15370
846.342	15424
846.478	15329
846.614	15142
846.75	15142
846.886	14998
847.022	15138
847.158	15100
847.294	15146
847.429	15005
847.565	15028
847.701	15321
847.837	14876
847.972	14686
848.108	14876
848.244	14918
848.379	14686
848.515	14686
848.65	14644
848.786	14731
848.921	14659
849.057	14769
849.192	14716
849.328	14708
849.463	14708
849.598	14575
849.734	14667
849.869	14480
850.004	14511
850.14	14533
850.275	14552
850.41	14328
850.545	14404
850.68	14488
850.815	14450
850.95	14400
851.085	14621
851.22	14549
851.355	14465
851.49	14370
851.625	14389
851.76	14434
851.895	14347
852.03	14305
852.165	14400
852.299	14518
852.434	14503
852.569	14537
852.703	14533
852.838	14571
852.973	14568
853.107	14625
853.242	14412
853.376	14309
853.511	14240
853.645	14271
853.78	14358
853.914	14336
854.048	14278
854.183	14339
854.317	14400
854.451	14507
854.585	14278
854.72	14305
854.854	14336
854.988	14149
855.122	14362
855.256	14199
855.39	14240
855.524	14347
855.658	14381
855.792	14377
855.926	14434
856.06	14415
856.194	14404
856.327	14290
856.461	14233
856.595	14240
856.729	14278
856.862	14438
856.996	14389
857.13	14282
857.263	14385
857.397	14370
857.53	14358
857.664	14328
857.797	14305
857.931	14454
858.064	14290
858.197	14343
858.331	14275
858.464	14263
858.597	14221
858.731	14282
858.864	14343
858.997	14248
859.13	14328
859.263	14381
859.396	14404
859.529	14225
859.662	14336
859.795	14286
859.928	14347
860.061	14552
860.194	14518
860.327	14389
860.46	14275
860.592	14438
860.725	14499
860.858	14412
860.99	14343
861.123	14328
861.256	14199
861.388	14328
861.521	15013
861.653	14240
861.786	14248
861.918	14172
862.05	14191
862.183	14298
862.315	14347
862.447	14370
862.58	14221
862.712	14103
862.844	14084
862.976	14221
863.108	14153
863.24	14499
863.372	13963
863.504	14069
863.636	14081
863.768	14126
863.9	14161
864.032	13997
864.164	14050
864.296	14172
864.428	14233
864.559	14134
864.691	14142
864.823	14180
864.954	14187
865.086	14202
865.217	14088
865.349	13989
865.48	14119
865.612	14164
865.743	14229
865.875	14172
866.006	13986
866.137	14027
866.269	14164
866.4	14180
866.531	14050
866.662	13978
866.793	13997
866.924	14134
867.055	14092
867.186	14069
867.317	14039
867.448	14024
867.579	14016
867.71	14024
867.841	13997
867.972	14115
868.103	14119
868.233	14062
868.364	14145
868.495	14244
868.625	14305
868.756	14427
868.886	14263
869.017	14259
869.147	14442
869.278	14461
869.408	14290
869.539	14381
869.669	14412
869.799	14366
869.929	14533
870.06	14511
870.19	14693
870.32	14617
870.45	14602
870.58	14785
870.71	14769
870.84	14895
870.97	14750
871.1	14682
871.23	15017
871.36	14861
871.489	14765
871.619	14921
871.749	14948
871.879	14925
872.008	15112
872.138	14883
872.267	14925
872.397	14800
872.526	14754
872.656	14678
872.785	14758
872.915	14899
873.044	15017
873.173	15005
873.303	14967
873.432	15024
873.561	14967
873.69	14994
873.819	15013
873.948	15039
874.077	14998
874.206	14982
874.335	15013
874.464	15142
874.593	15230
874.722	15241
874.851	15294
874.979	15332
875.108	15310
875.237	15180
875.365	15260
875.494	15268
875.623	15230
875.751	15313
875.88	15348
876.008	15424
876.136	15587
876.265	15732
876.393	15907
876.521	15835
876.65	15808
876.778	15781
876.906	15701
877.034	15686
877.162	15717
877.29	15652
877.418	15656
877.546	15633
877.674	15667
877.802	15762
877.93	15618
878.058	15610
878.185	15553
878.313	15641
878.441	15705
878.568	15530
878.696	15701
878.824	15671
878.951	15819
879.079	15854
879.206	15991
879.333	15846
879.461	15797
879.588	15861
879.715	15895
879.842	15983
879.97	15724
880.097	15599
880.224	15538
880.351	15629
880.478	15580
880.605	15519
880.732	15557
880.859	15797
880.986	15481
881.112	15553
881.239	15401
881.366	15329
881.493	15165
881.619	15176
881.746	15306
881.872	15291
881.999	15275
882.125	15176
882.252	15207
882.378	15329
882.505	15397
882.631	15173
882.757	15074
882.883	15005
883.01	15043
883.136	14986
883.262	14952
883.388	14929
883.514	15017
883.64	15093
883.766	15013
883.892	14857
884.018	14880
884.143	15009
884.269	15165
884.395	14823
884.52	14663
884.646	14670
884.772	14716
884.897	14610
885.023	14708
885.148	14895
885.274	14872
885.399	14773
885.524	14754
885.65	14758
885.775	14708
885.9	14708
886.025	14902
886.15	14826
886.275	14659
886.4	14579
886.525	14701
886.65	14758
886.775	14655
886.9	14807
887.025	14861
887.149	14720
887.274	14598
887.399	14571
887.523	14526
887.648	14454
887.773	14518
887.897	14689
888.021	14636
888.146	14602
888.27	14678
888.395	14754
888.519	14663
888.643	14644
888.767	14682
888.891	14568
889.015	14423
889.139	14461
889.263	14271
889.387	14564
889.511	14640
889.635	14621
889.759	14415
889.883	14408
890.006	14385
890.13	14545
890.254	14343
890.377	14343
890.501	14320
890.624	14199
890.748	14282
890.871	14218
890.995	14126
891.118	14012
891.241	14069
891.364	14164
891.488	14252
891.611	14161
891.734	14161
891.857	14221
891.98	14088
892.103	14244
892.226	14161
892.349	14142
892.471	14035
892.594	14073
892.717	14157
892.839	14088
892.962	14119
893.085	14119
893.207	14100
893.33	13955
893.452	14001
893.575	14161
893.697	14012
893.819	14282
893.941	14339
894.064	14278
894.186	14142
894.308	14123
894.43	14240
894.552	14313
894.674	14324
894.796	14126
894.918	14229
895.04	14168
895.161	14343
895.283	14259
895.405	14145
895.526	14214
895.648	14149
895.769	14240
895.891	14252
896.012	14317
896.134	14317
896.255	14343
896.376	14229
896.498	14336
896.619	14377
896.74	14355
896.861	14339
896.982	14644
897.103	14746
897.224	14629
897.345	14575
897.466	14514
897.587	14568
897.708	14636
897.828	14598
897.949	14549
898.07	14457
898.19	14564
898.311	14644
898.431	14545
898.552	14667
898.672	14735
898.792	14667
898.913	14708
899.033	14564
899.153	14488
899.273	14389
899.393	14412
899.513	14533
899.633	14530
899.753	14568
899.873	14374
899.993	14514
900.113	14469
900.232	14526
900.352	14495
900.472	14396
900.591	14210
900.711	14412
900.83	14244
900.95	14469
901.069	14541
901.189	14385
901.308	14119
901.427	14100
901.546	14065
901.665	14088
901.784	14157
901.904	13978
902.023	13814
902.141	13681
902.26	13639
902.379	13761
902.498	13601
902.617	13609
902.735	13670
902.854	13689
902.973	13506
903.091	13384
903.21	13384
903.328	13407
903.446	13331
903.565	13160
903.683	13221
903.801	13129
903.919	13099
904.038	13183
904.156	13069
904.274	13057
904.392	12951
904.51	12993
904.627	13004
904.745	13099
904.863	13088
904.981	12745
905.098	12677
905.216	12741
905.334	12726
905.451	12745
905.569	12730
905.686	12776
905.803	12681
905.921	12544
906.038	12582
906.155	12601
906.272	12486
906.389	12403
906.506	12258
906.623	12304
906.74	12422
906.857	12209
906.974	12235
907.091	12327
907.208	12365
907.324	12330
907.441	12091
907.557	12019
907.674	11973
907.79	12178
907.907	11977
908.023	12060
908.139	12034
908.256	11920
908.372	11935
908.488	11992
908.604	11836
908.72	11756
908.836	11863
908.952	11855
909.068	11912
909.184	11965
909.3	11855
909.415	11889
909.531	11859
909.647	11638
909.762	11623
909.878	11558
909.993	11535
910.108	11558
910.224	11558
910.339	11577
910.454	11596
910.57	11452
910.685	11398
910.8	11596
910.915	11672
911.03	11493
911.145	11296
911.259	11284
911.374	11216
911.489	11220
911.604	11105
911.718	11155
911.833	11109
911.947	10976
912.062	10790
912.176	11052
912.291	11045
912.405	11064
912.519	11235
912.633	11265
912.748	11170
912.862	11079
912.976	10919
913.09	10793
913.204	10866
913.318	10949
913.431	11029
913.545	11010
913.659	10968
913.772	10953
913.886	10881
914	10755
914.113	10858
914.226	10877
914.34	10915
914.453	10717
914.566	10896
914.68	10774
914.793	10797
914.906	10516
915.019	10558
915.132	10462
915.245	10478
915.358	10626
915.47	10538
915.583	10580
915.696	10637
915.809	10668
915.921	10656
916.034	10554
916.146	10527
916.259	10443
916.371	10634
916.483	10535
916.595	10440
916.708	10497
916.82	10470
916.932	10504
917.044	10493
917.156	10436
917.268	10333
917.38	10356
917.491	10261
917.603	10405
917.715	10417
917.826	10489
917.938	10356
918.049	10249
918.161	10329
918.272	10451
918.384	10519
918.495	10440
918.606	10287
918.717	10154
918.828	10246
918.939	10257
919.05	10162
919.161	10223
919.272	10086
919.383	10135
919.494	10333
919.604	10516
919.715	10337
919.826	10215
919.936	10223
920.047	10329
920.157	10246
920.267	10382
920.378	10295
920.488	10253
920.598	10462
920.708	10622
920.818	10462
920.928	10447
921.038	10630
921.148	10466
921.258	10242
921.368	10204
921.477	10169
921.587	10051
921.697	10059
921.806	10162
921.916	10002
922.025	9880
922.134	9804
922.244	9701
922.353	9880
922.462	9740
922.571	9599
922.68	9538
922.789	9526
922.898	9534
923.007	9511
923.116	9519
923.224	9530
923.333	9500
923.442	9374
923.55	9458
923.659	9416
923.767	9519
923.876	9386
923.984	9397
924.092	9287
924.201	9374
924.309	9435
924.417	9340
924.525	9325
924.633	9393
924.741	10303
924.849	9142
924.956	9317
925.064	9154
925.172	9051
925.279	9135
925.387	9154
925.494	9116
925.602	9298
925.709	9283
925.816	9112
925.924	9184
926.031	9260
926.138	9203
926.245	9264
926.352	9097
926.459	9195
926.566	9260
926.673	9150
926.779	9032
926.886	9039
926.993	8918
927.099	8880
927.206	8861
927.312	8842
927.419	8960
927.525	8914
927.631	8929
927.737	8838
927.843	8777
927.95	8701
928.056	8777
928.162	8811
928.267	8849
928.373	9351
928.479	8914
928.585	8583
928.69	8743
928.796	8792
928.901	8735
929.007	8575
929.112	8682
929.218	8632
929.323	8648
929.428	8568
929.533	8727
929.638	8499
929.743	8514
929.848	8598
929.953	8583
930.058	8579
930.163	8366
930.267	8355
930.372	8545
930.477	8362
930.581	8575
930.685	8393
930.79	8229
930.894	8355
930.998	8279
931.103	8408
931.207	8096
931.311	8050
931.415	7978
931.519	7795
931.623	7879
