Data from test_V78500241_240.txt Node
Date: Fri Mar 25 14:35:23 CST 2022
User: usil
Spectrometer: V785-0024
Trigger mode: 0
Integration Time (sec): 4.000000E-1
Scans to average: 1
Nonlinearity correction enabled: false
Boxcar width: 0
Storing dark spectrum: false
XAxis mode: Wavelengths
Number of Pixels in Spectrum: 1024
>>>>>Begin Spectral Data<<<<<
801.071	27511
801.214	27595
801.356	27348
801.499	27230
801.641	27108
801.783	26979
801.926	26971
802.068	27146
802.211	26838
802.353	26739
802.496	26636
802.638	26670
802.78	26602
802.923	26518
803.065	26431
803.208	26336
803.35	26476
803.492	26663
803.635	26530
803.777	26552
803.919	26579
804.061	26998
804.204	26651
804.346	26457
804.488	26434
804.63	26556
804.773	26396
804.915	26476
805.057	26613
805.199	26431
805.341	26644
805.483	26617
805.626	26640
805.768	26415
805.91	26606
806.052	26659
806.194	26473
806.336	26743
806.478	26617
806.62	26590
806.762	26651
806.904	26686
807.046	27036
807.188	26990
807.33	26994
807.472	26979
807.614	26842
807.756	26880
807.898	26819
808.04	26731
808.182	26868
808.324	26861
808.465	26895
808.607	27123
808.749	27169
808.891	27355
809.033	27397
809.174	27473
809.316	27256
809.458	27351
809.6	27382
809.741	27222
809.883	27237
810.025	27222
810.166	27348
810.308	27230
810.45	27431
810.591	27230
810.733	27119
810.875	26986
811.016	26853
811.158	26899
811.299	26948
811.441	27085
811.582	27070
811.724	26940
811.865	26880
812.007	26883
812.148	26956
812.29	27005
812.431	27043
812.573	27192
812.714	27397
812.855	27241
812.997	27504
813.138	27633
813.279	27671
813.421	27443
813.562	27416
813.703	27218
813.845	27207
813.986	26788
814.127	26602
814.268	26434
814.41	26514
814.551	26385
814.692	26663
814.833	26450
814.974	26522
815.115	26453
815.256	26511
815.397	26317
815.539	26412
815.68	26233
815.821	26221
815.962	26290
816.103	26305
816.244	26084
816.385	26008
816.526	25906
816.666	25666
816.807	25696
816.948	25681
817.089	25769
817.23	25750
817.371	25666
817.512	25590
817.653	25685
817.793	25586
817.934	25582
818.075	25575
818.216	25681
818.356	25620
818.497	25460
818.638	25308
818.778	25339
818.919	25362
819.06	25369
819.2	25434
819.341	25457
819.481	25616
819.622	25590
819.762	25795
819.903	25795
820.043	25651
820.184	25518
820.324	25658
820.465	25647
820.605	25689
820.746	25521
820.886	25343
821.026	25556
821.167	25430
821.307	25571
821.447	25445
821.588	25339
821.728	25297
821.868	25118
822.008	24890
822.149	24947
822.289	24867
822.429	24795
822.569	24639
822.709	24734
822.849	24376
822.99	24563
823.13	24338
823.27	24460
823.41	24182
823.55	24125
823.69	24254
823.83	24194
823.97	24095
824.11	24079
824.25	24057
824.389	23817
824.529	24030
824.669	23961
824.809	24167
824.949	24258
825.089	23878
825.228	23980
825.368	23779
825.508	23878
825.648	23733
825.787	23802
825.927	23668
826.067	23627
826.206	23668
826.346	23832
826.485	23745
826.625	23729
826.765	23821
826.904	23680
827.044	23512
827.183	23547
827.323	23448
827.462	23505
827.601	23444
827.741	23277
827.88	23459
828.02	23250
828.159	23337
828.298	23429
828.437	23452
828.577	23391
828.716	23478
828.855	23303
828.994	23143
829.134	23227
829.273	23151
829.412	23197
829.551	23029
829.69	23041
829.829	23052
829.968	23178
830.107	23239
830.246	23102
830.385	23109
830.524	23006
830.663	22873
830.802	22736
830.941	22744
831.08	22554
831.219	22721
831.357	22645
831.496	22900
831.635	22504
831.774	22474
831.913	22557
832.051	22428
832.19	22394
832.329	22485
832.467	22284
832.606	22303
832.744	22223
832.883	22424
833.022	22276
833.16	22344
833.299	22226
833.437	22314
833.576	22432
833.714	22253
833.852	22314
833.991	22478
834.129	22455
834.267	22333
834.406	22291
834.544	22287
834.682	22234
834.821	22344
834.959	22561
835.097	22230
835.235	22299
835.373	22211
835.511	22299
835.65	22162
835.788	22207
835.926	22059
836.064	21934
836.202	22078
836.34	22150
836.478	22287
836.615	22002
836.753	22185
836.891	22150
837.029	22128
837.167	22120
837.305	22166
837.443	22010
837.58	22006
837.718	22139
837.856	21922
837.993	21964
838.131	21975
838.269	21888
838.406	21884
838.544	21835
838.681	21690
838.819	21641
838.956	21431
839.094	21397
839.231	21469
839.369	21534
839.506	21819
839.643	21622
839.781	21355
839.918	21291
840.055	21294
840.193	21317
840.33	21344
840.467	21325
840.604	21370
840.742	21564
840.879	21165
841.016	21150
841.153	21066
841.29	21344
841.427	21241
841.564	21389
841.701	21283
841.838	21077
841.975	21199
842.112	21188
842.249	21074
842.385	21169
842.522	21260
842.659	20937
842.796	20986
842.933	21135
843.069	21024
843.206	20979
843.343	21085
843.479	21028
843.616	20967
843.752	20830
843.889	20743
844.025	20921
844.162	20853
844.298	20921
844.435	20826
844.571	20739
844.708	20781
844.844	20842
844.98	20872
845.117	20800
845.253	20670
845.389	20640
845.525	20758
845.661	20686
845.798	20731
845.934	20765
846.07	20830
846.206	20864
846.342	20815
846.478	20659
846.614	20385
846.75	20275
846.886	20145
847.022	20328
847.158	20328
847.294	20183
847.429	20237
847.565	20084
847.701	20473
847.837	20046
847.972	19982
848.108	20043
848.244	19963
848.379	19883
848.515	19879
848.65	19689
848.786	19685
848.921	19704
849.057	19875
849.192	19898
849.328	19750
849.463	19715
849.598	19727
849.734	19689
849.869	19613
850.004	19540
850.14	19480
850.275	19518
850.41	19460
850.545	19483
850.68	19495
850.815	19544
850.95	19556
851.085	19590
851.22	19495
851.355	19552
851.49	19434
851.625	19533
851.76	19556
851.895	19426
852.03	19369
852.165	19567
852.299	19514
852.434	19464
852.569	19476
852.703	19434
852.838	19590
852.973	19586
853.107	19537
853.242	19426
853.376	19327
853.511	19232
853.645	19301
853.78	19480
853.914	19304
854.048	19350
854.183	19190
854.317	19426
854.451	19491
854.585	19369
854.72	19278
854.854	19263
854.988	19274
855.122	19388
855.256	19129
855.39	19403
855.524	19415
855.658	19228
855.792	19316
855.926	19354
856.06	19354
856.194	19487
856.327	19232
856.461	19312
856.595	19228
856.729	19194
856.862	19369
856.996	19369
857.13	19221
857.263	19392
857.397	19335
857.53	19381
857.664	19346
857.797	19289
857.931	19411
858.064	19339
858.197	19354
858.331	19217
858.464	19042
858.597	19118
858.731	19171
858.864	19251
858.997	19236
859.13	19320
859.263	19373
859.396	19407
859.529	19164
859.662	19156
859.795	19137
859.928	19247
860.061	19476
860.194	19392
860.327	19259
860.46	19297
860.592	19362
860.725	19320
860.858	19339
860.99	19190
861.123	19080
861.256	19046
861.388	19232
861.521	20020
861.653	19168
861.786	19080
861.918	19213
862.05	19179
862.183	19217
862.315	19240
862.447	19373
862.58	19274
862.712	18954
862.844	19008
862.976	19095
863.108	19103
863.24	19304
863.372	18954
863.504	18993
863.636	18962
863.768	18932
863.9	19027
864.032	18913
864.164	18886
864.296	18962
864.428	19053
864.559	18894
864.691	19004
864.823	18890
864.954	18954
865.086	18993
865.217	18848
865.349	18787
865.48	18844
865.612	18772
865.743	19000
865.875	18871
866.006	18867
866.137	18863
866.269	18856
866.4	18840
866.531	18768
866.662	18783
866.793	18886
866.924	18745
867.055	18806
867.186	18814
867.317	18779
867.448	18817
867.579	18840
867.71	18707
867.841	18829
867.972	18825
868.103	18753
868.233	18806
868.364	18821
868.495	18867
868.625	18935
868.756	19126
868.886	18954
869.017	18924
869.147	19259
869.278	19129
869.408	19065
869.539	19038
869.669	19126
869.799	19053
869.929	19301
870.06	19061
870.19	19270
870.32	19278
870.45	19327
870.58	19422
870.71	19514
870.84	19468
870.97	19491
871.1	19381
871.23	19540
871.36	19556
871.489	19502
871.619	19537
871.749	19586
871.879	19704
872.008	19731
872.138	19681
872.267	19708
872.397	19609
872.526	19499
872.656	19472
872.785	19480
872.915	19533
873.044	19693
873.173	19514
873.303	19708
873.432	19670
873.561	19757
873.69	19655
873.819	19548
873.948	19658
874.077	19731
874.206	19635
874.335	19723
874.464	19761
874.593	19826
874.722	19883
874.851	19967
874.979	19963
875.108	20027
875.237	19883
875.365	19917
875.494	19928
875.623	20031
875.751	19864
875.88	19913
876.008	20065
876.136	20092
876.265	20324
876.393	20545
876.521	20423
876.65	20438
876.778	20339
876.906	20286
877.034	20240
877.162	20305
877.29	20263
877.418	20248
877.546	20404
877.674	20294
877.802	20225
877.93	20347
878.058	20305
878.185	20218
878.313	20290
878.441	20389
878.568	20282
878.696	20328
878.824	20286
878.951	20393
879.079	20514
879.206	20682
879.333	20579
879.461	20446
879.588	20629
879.715	20701
879.842	20674
879.97	20511
880.097	20290
880.224	20240
880.351	20320
880.478	20187
880.605	20142
880.732	20111
880.859	20328
880.986	20195
881.112	20187
881.239	20077
881.366	20058
881.493	19822
881.619	19765
881.746	19799
881.872	19860
881.999	19734
882.125	19655
882.252	19772
882.378	19845
882.505	19974
882.631	19635
882.757	19655
882.883	19605
883.01	19582
883.136	19563
883.262	19491
883.388	19396
883.514	19499
883.64	19529
883.766	19438
883.892	19331
884.018	19263
884.143	19525
884.269	19586
884.395	19270
884.52	19091
884.646	19259
884.772	19129
884.897	19145
885.023	19221
885.148	19282
885.274	19362
885.399	19221
885.524	19232
885.65	19266
885.775	19362
885.9	19270
886.025	19236
886.15	19152
886.275	19110
886.4	18947
886.525	19053
886.65	19110
886.775	18993
886.9	19221
887.025	19438
887.149	19114
887.274	18947
887.399	18932
887.523	18932
887.648	18905
887.773	18772
887.897	19050
888.021	19053
888.146	18859
888.27	19019
888.395	19023
888.519	18833
888.643	18772
888.767	19015
888.891	18817
889.015	18878
889.139	18840
889.263	18745
889.387	18776
889.511	18932
889.635	18905
889.759	18563
889.883	18642
890.006	18658
890.13	18821
890.254	18631
890.377	18654
890.501	18536
890.624	18426
890.748	18525
890.871	18327
890.995	18338
891.118	18323
891.241	18330
891.364	18334
891.488	18304
891.611	18315
891.734	18266
891.857	18483
891.98	18304
892.103	18437
892.226	18346
892.349	18262
892.471	18117
892.594	18235
892.717	18395
892.839	18220
892.962	18232
893.085	18338
893.207	18258
893.33	18083
893.452	18064
893.575	18300
893.697	18167
893.819	18452
893.941	18445
894.064	18353
894.186	18201
894.308	18186
894.43	18399
894.552	18506
894.674	18209
894.796	18190
894.918	18209
895.04	18205
895.161	18304
895.283	18323
895.405	18228
895.526	18311
895.648	18327
895.769	18330
895.891	18353
896.012	18384
896.134	18448
896.255	18289
896.376	18224
896.498	18228
896.619	18395
896.74	18372
896.861	18437
896.982	18715
897.103	18722
897.224	18677
897.345	18654
897.466	18494
897.587	18601
897.708	18623
897.828	18642
897.949	18528
898.07	18422
898.19	18486
898.311	18620
898.431	18445
898.552	18509
898.672	18700
898.792	18574
898.913	18502
899.033	18467
899.153	18391
899.273	18251
899.393	18304
899.513	18372
899.633	18426
899.753	18407
899.873	18243
899.993	18361
900.113	18228
900.232	18270
900.352	18220
900.472	18186
900.591	18041
900.711	18186
900.83	18121
900.95	18285
901.069	18258
901.189	18007
901.308	17836
901.427	17691
901.546	17722
901.665	17851
901.784	17764
901.904	17661
902.023	17528
902.141	17372
902.26	17273
902.379	17326
902.498	17284
902.617	17227
902.735	17280
902.854	17227
902.973	17303
903.091	16949
903.21	16995
903.328	16938
903.446	16854
903.565	16763
903.683	16824
903.801	16801
903.919	16801
904.038	16679
904.156	16596
904.274	16664
904.392	16542
904.51	16561
904.627	16466
904.745	16618
904.863	16607
904.981	16371
905.098	16215
905.216	16261
905.334	16139
905.451	16188
905.569	16166
905.686	16109
905.803	16093
905.921	16036
906.038	16112
906.155	15987
906.272	15945
906.389	15945
906.506	15762
906.623	15781
906.74	15739
906.857	15622
906.974	15622
907.091	15793
907.208	15842
907.324	15682
907.441	15534
907.557	15382
907.674	15496
907.79	15279
907.907	15291
908.023	15458
908.139	15534
908.256	15332
908.372	15435
908.488	15264
908.604	15173
908.72	15066
908.836	15135
908.952	15058
909.068	15135
909.184	15150
909.3	15066
909.415	15165
909.531	15100
909.647	14918
909.762	14868
909.878	14773
909.993	14762
910.108	14781
910.224	14739
910.339	14781
910.454	14667
910.57	14712
910.685	14621
910.8	14823
910.915	14880
911.03	14518
911.145	14564
911.259	14389
911.374	14457
911.489	14385
911.604	14343
911.718	14180
911.833	14286
911.947	14035
912.062	13974
912.176	14187
912.291	14221
912.405	14244
912.519	14469
912.633	14415
912.748	14191
912.862	14199
912.976	13997
913.09	13814
913.204	13921
913.318	13909
913.431	14020
913.545	14031
913.659	14084
913.772	13997
913.886	13928
914	13795
914.113	13963
914.226	13890
914.34	13864
914.453	13704
914.566	13913
914.68	13818
914.793	13715
914.906	13495
915.019	13438
915.132	13556
915.245	13339
915.358	13540
915.47	13453
915.583	13464
915.696	13537
915.809	13658
915.921	13677
916.034	13457
916.146	13422
916.259	13350
916.371	13445
916.483	13441
916.595	13304
916.708	13510
916.82	13327
916.932	13304
917.044	13422
917.156	13343
917.268	13206
917.38	13164
917.491	13175
917.603	13156
917.715	13278
917.826	13301
917.938	13156
918.049	13015
918.161	13175
918.272	13301
918.384	13198
918.495	13126
918.606	13031
918.717	12939
918.828	13004
918.939	13004
919.05	12924
919.161	12981
919.272	12802
919.383	12890
919.494	12890
919.604	13152
919.715	13034
919.826	12905
919.936	12935
920.047	12943
920.157	12970
920.267	13095
920.378	12920
920.488	12928
920.598	13050
920.708	13202
920.818	13141
920.928	13118
921.038	13206
921.148	13221
921.258	12875
921.368	12814
921.477	12783
921.587	12650
921.697	12547
921.806	12753
921.916	12620
922.025	12380
922.134	12407
922.244	12251
922.353	12388
922.462	12334
922.571	12136
922.68	12110
922.789	12091
922.898	12060
923.007	12064
923.116	11988
923.224	12007
923.333	11988
923.442	11813
923.55	11897
923.659	11847
923.767	11935
923.876	11805
923.984	11920
924.092	11794
924.201	11855
924.309	11798
924.417	11813
924.525	11733
924.633	11771
924.741	12673
924.849	11619
924.956	11665
925.064	11592
925.172	11471
925.279	11471
925.387	11471
925.494	11516
925.602	11691
925.709	11524
925.816	11455
925.924	11509
926.031	11566
926.138	11482
926.245	11467
926.352	11429
926.459	11516
926.566	11497
926.673	11326
926.779	11269
926.886	11292
926.993	11204
927.099	11098
927.206	11033
927.312	11071
927.419	11140
927.525	11071
927.631	11208
927.737	11067
927.843	11029
927.95	10885
928.056	10946
928.162	10987
928.267	10991
928.373	11562
928.479	11045
928.585	10900
928.69	11014
928.796	10976
928.901	10809
929.007	10748
929.112	10934
929.218	10850
929.323	10797
929.428	10714
929.533	10869
929.638	10702
929.743	10656
929.848	10733
929.953	10763
930.058	10584
930.163	10489
930.267	10451
930.372	10584
930.477	10379
930.581	10694
930.685	10538
930.79	10322
930.894	10280
930.998	10360
931.103	10500
931.207	10093
931.311	10025
931.415	9983
931.519	9850
931.623	9812
