Data from test_V78500241_317.txt Node
Date: Fri Mar 25 14:35:55 CST 2022
User: usil
Spectrometer: V785-0024
Trigger mode: 0
Integration Time (sec): 4.000000E-1
Scans to average: 1
Nonlinearity correction enabled: false
Boxcar width: 0
Storing dark spectrum: false
XAxis mode: Wavelengths
Number of Pixels in Spectrum: 1024
>>>>>Begin Spectral Data<<<<<
801.071	26986
801.214	27020
801.356	26613
801.499	26613
801.641	26393
801.783	26556
801.926	26374
802.068	26434
802.211	26336
802.353	26252
802.496	26183
802.638	25993
802.78	25986
802.923	26077
803.065	25966
803.208	26008
803.35	25860
803.492	26119
803.635	26077
803.777	26088
803.919	26001
804.061	26332
804.204	26046
804.346	26046
804.488	25966
804.63	25883
804.773	25963
804.915	25902
805.057	26157
805.199	26073
805.341	26054
805.483	26157
805.626	26073
805.768	25978
805.91	26001
806.052	26005
806.194	25887
806.336	26237
806.478	26084
806.62	26001
806.762	26206
806.904	26233
807.046	26484
807.188	26370
807.33	26526
807.472	26476
807.614	26324
807.756	26545
807.898	26218
808.04	26153
808.182	26389
808.324	26271
808.465	26252
808.607	26427
808.749	26674
808.891	26796
809.033	26944
809.174	26712
809.316	26461
809.458	26568
809.6	26590
809.741	26621
809.883	26670
810.025	26769
810.166	26758
810.308	26804
810.45	26777
810.591	26686
810.733	26602
810.875	26370
811.016	26256
811.158	26282
811.299	26442
811.441	26495
811.582	26457
811.724	26370
811.865	26358
812.007	26358
812.148	26404
812.29	26518
812.431	26495
812.573	26602
812.714	26670
812.855	26845
812.997	26914
813.138	26914
813.279	27051
813.421	26963
813.562	26944
813.703	26689
813.845	26404
813.986	26237
814.127	26221
814.268	25978
814.41	25909
814.551	25940
814.692	26016
814.833	25970
814.974	25986
815.115	25917
815.256	25742
815.397	25868
815.539	25818
815.68	25750
815.821	25586
815.962	25769
816.103	25628
816.244	25445
816.385	25384
816.526	25346
816.666	25221
816.807	25202
816.948	25065
817.089	25232
817.23	25042
817.371	25126
817.512	25065
817.653	24977
817.793	25114
817.934	25061
818.075	25069
818.216	25023
818.356	24886
818.497	24909
818.638	24837
818.778	24703
818.919	24840
819.06	24795
819.2	24897
819.341	24954
819.481	24878
819.622	25091
819.762	25244
819.903	25289
820.043	25057
820.184	24992
820.324	24973
820.465	25091
820.605	25069
820.746	24958
820.886	25012
821.026	25019
821.167	24954
821.307	25095
821.447	24825
821.588	24745
821.728	24597
821.868	24570
822.008	24426
822.149	24281
822.289	24357
822.429	24167
822.569	24102
822.709	23988
822.849	24026
822.99	23912
823.13	23748
823.27	23760
823.41	23653
823.55	23528
823.69	23604
823.83	23577
823.97	23505
824.11	23543
824.25	23387
824.389	23368
824.529	23436
824.669	23429
824.809	23566
824.949	23421
825.089	23619
825.228	23524
825.368	23220
825.508	23143
825.648	23113
825.787	23280
825.927	23326
826.067	23121
826.206	23159
826.346	23185
826.485	23197
826.625	23284
826.765	23334
826.904	23296
827.044	22904
827.183	22866
827.323	22854
827.462	22908
827.601	22938
827.741	22946
827.88	22771
828.02	22801
828.159	22820
828.298	22843
828.437	22999
828.577	22835
828.716	22866
828.855	22850
828.994	22641
829.134	22550
829.273	22637
829.412	22687
829.551	22436
829.69	22474
829.829	22527
829.968	22782
830.107	22592
830.246	22569
830.385	22428
830.524	22474
830.663	22413
830.802	22352
830.941	22143
831.08	22135
831.219	22188
831.357	22375
831.496	22360
831.635	22158
831.774	22048
831.913	22166
832.051	21892
832.19	21766
832.329	21979
832.467	21892
832.606	21816
832.744	21785
832.883	21762
833.022	21728
833.16	21831
833.299	21911
833.437	21736
833.576	21816
833.714	21884
833.852	21755
833.991	21739
834.129	21762
834.267	21930
834.406	21838
834.544	21857
834.682	21797
834.821	21892
834.959	21861
835.097	21698
835.235	21698
835.373	21827
835.511	21857
835.65	21648
835.788	21656
835.926	21564
836.064	21447
836.202	21359
836.34	21720
836.478	21800
836.615	21713
836.753	21686
836.891	21690
837.029	21656
837.167	21511
837.305	21587
837.443	21564
837.58	21382
837.718	21458
837.856	21576
837.993	21496
838.131	21469
838.269	21408
838.406	21325
838.544	21275
838.681	21188
838.819	21085
838.956	20956
839.094	20845
839.231	20895
839.369	21036
839.506	21272
839.643	21222
839.781	20758
839.918	20788
840.055	20925
840.193	20811
840.33	20712
840.467	20910
840.604	20777
840.742	21051
840.879	20712
841.016	20895
841.153	20693
841.29	21017
841.427	20857
841.564	20792
841.701	20773
841.838	20781
841.975	20724
842.112	20670
842.249	20693
842.385	20484
842.522	20746
842.659	20556
842.796	20575
842.933	20560
843.069	20545
843.206	20655
843.343	20667
843.479	20495
843.616	20541
843.752	20294
843.889	20343
844.025	20427
844.162	20317
844.298	20324
844.435	20355
844.571	20153
844.708	20240
844.844	20492
844.98	20495
845.117	20324
845.253	20237
845.389	20142
845.525	20267
845.661	20275
845.798	20092
845.934	20191
846.07	20176
846.206	20195
846.342	20134
846.478	20065
846.614	19963
846.75	19700
846.886	19864
847.022	19913
847.158	19769
847.294	19849
847.429	19890
847.565	19731
847.701	19909
847.837	19510
847.972	19506
848.108	19620
848.244	19495
848.379	19521
848.515	19354
848.65	19270
848.786	19289
848.921	19327
849.057	19419
849.192	19346
849.328	19293
849.463	19297
849.598	19316
849.734	19259
849.869	19266
850.004	19095
850.14	19164
850.275	19137
850.41	19012
850.545	19103
850.68	19072
850.815	19031
850.95	19046
851.085	19190
851.22	19274
851.355	18981
851.49	19031
851.625	19069
851.76	18951
851.895	18977
852.03	18867
852.165	19099
852.299	19072
852.434	19080
852.569	19057
852.703	19031
852.838	19122
852.973	19209
853.107	19126
853.242	18985
853.376	18962
853.511	18741
853.645	18840
853.78	18958
853.914	18970
854.048	18753
854.183	18787
854.317	18867
854.451	19042
854.585	18840
854.72	18829
854.854	18886
854.988	18810
855.122	18798
855.256	18760
855.39	18848
855.524	18958
855.658	18878
855.792	18920
855.926	18802
856.06	18909
856.194	18901
856.327	18844
856.461	18814
856.595	18787
856.729	18753
856.862	18932
856.996	18814
857.13	18886
857.263	18882
857.397	18954
857.53	18734
857.664	18848
857.797	18882
857.931	18894
858.064	18719
858.197	18977
858.331	18928
858.464	18692
858.597	18757
858.731	18848
858.864	18646
858.997	18620
859.13	18779
859.263	18852
859.396	18726
859.529	18772
859.662	18863
859.795	18764
859.928	18776
860.061	18897
860.194	18939
860.327	18768
860.46	18817
860.592	18821
860.725	18947
860.858	18985
860.99	18753
861.123	18547
861.256	18646
861.388	18715
861.521	19533
861.653	18658
861.786	18700
861.918	18681
862.05	18760
862.183	18764
862.315	18833
862.447	18867
862.58	18863
862.712	18574
862.844	18574
862.976	18608
863.108	18506
863.24	18920
863.372	18437
863.504	18479
863.636	18475
863.768	18623
863.9	18502
864.032	18574
864.164	18399
864.296	18612
864.428	18692
864.559	18555
864.691	18521
864.823	18525
864.954	18536
865.086	18486
865.217	18410
865.349	18308
865.48	18327
865.612	18429
865.743	18433
865.875	18429
866.006	18361
866.137	18376
866.269	18346
866.4	18422
866.531	18342
866.662	18350
866.793	18323
866.924	18292
867.055	18471
867.186	18365
867.317	18403
867.448	18285
867.579	18304
867.71	18399
867.841	18338
867.972	18414
868.103	18365
868.233	18452
868.364	18327
868.495	18403
868.625	18532
868.756	18722
868.886	18479
869.017	18574
869.147	18684
869.278	18669
869.408	18585
869.539	18483
869.669	18722
869.799	18681
869.929	18692
870.06	18783
870.19	18954
870.32	18764
870.45	18958
870.58	18985
870.71	19080
870.84	19095
870.97	18924
871.1	19072
871.23	19114
871.36	19183
871.489	19061
871.619	19175
871.749	19141
871.879	19266
872.008	19148
872.138	19126
872.267	19187
872.397	19034
872.526	18943
872.656	19099
872.785	19038
872.915	19232
873.044	19247
873.173	19209
873.303	19324
873.432	19327
873.561	19301
873.69	19194
873.819	19251
873.948	19308
874.077	19183
874.206	19057
874.335	19327
874.464	19373
874.593	19457
874.722	19407
874.851	19502
874.979	19552
875.108	19594
875.237	19525
875.365	19381
875.494	19487
875.623	19594
875.751	19472
875.88	19514
876.008	19578
876.136	19742
876.265	19913
876.393	20001
876.521	19875
876.65	19894
876.778	19986
876.906	19925
877.034	19700
877.162	19913
877.29	19856
877.418	19936
877.546	19845
877.674	19902
877.802	19852
877.93	19822
878.058	19928
878.185	19723
878.313	19818
878.441	19845
878.568	19628
878.696	19803
878.824	19852
878.951	20008
879.079	20103
879.206	20225
879.333	20008
879.461	19955
879.588	20016
879.715	20164
879.842	20317
879.97	20027
880.097	19765
880.224	19571
880.351	19807
880.478	19780
880.605	19586
880.732	19837
880.859	19917
880.986	19784
881.112	19837
881.239	19658
881.366	19552
881.493	19575
881.619	19350
881.746	19426
881.872	19308
881.999	19381
882.125	19259
882.252	19358
882.378	19373
882.505	19457
882.631	19377
882.757	19198
882.883	19240
883.01	19187
883.136	19148
883.262	18996
883.388	18962
883.514	19152
883.64	19133
883.766	19091
883.892	18905
884.018	19023
884.143	18996
884.269	19148
884.395	18859
884.52	18882
884.646	18768
884.772	18760
884.897	18692
885.023	18779
885.148	18859
885.274	18905
885.399	18798
885.524	18817
885.65	18673
885.775	18703
885.9	18711
886.025	18939
886.15	18856
886.275	18700
886.4	18608
886.525	18707
886.65	18661
886.775	18673
886.9	18821
887.025	18848
887.149	18703
887.274	18555
887.399	18585
887.523	18551
887.648	18445
887.773	18346
887.897	18620
888.021	18620
888.146	18498
888.27	18528
888.395	18582
888.519	18528
888.643	18479
888.767	18604
888.891	18433
889.015	18418
889.139	18365
889.263	18342
889.387	18384
889.511	18540
889.635	18289
889.759	18258
889.883	18228
890.006	18327
890.13	18273
890.254	18220
890.377	18251
890.501	18201
890.624	18041
890.748	18121
890.871	17999
890.995	17939
891.118	17809
891.241	17908
891.364	17999
891.488	17965
891.611	17961
891.734	17916
891.857	17965
891.98	18003
892.103	18007
892.226	17954
892.349	18019
892.471	17783
892.594	17931
892.717	17927
892.839	17764
892.962	17809
893.085	17988
893.207	17901
893.33	17794
893.452	17790
893.575	17904
893.697	17805
893.819	18041
893.941	18163
894.064	17931
894.186	17714
894.308	17824
894.43	17942
894.552	18034
894.674	18076
894.796	17832
894.918	17878
895.04	17920
895.161	18007
895.283	18003
895.405	17809
895.526	17942
895.648	17969
895.769	17931
895.891	17802
896.012	18041
896.134	17927
896.255	17977
896.376	17950
896.498	18003
896.619	17980
896.74	17946
896.861	18057
896.982	18281
897.103	18410
897.224	18213
897.345	18243
897.466	18148
897.587	18079
897.708	18296
897.828	18243
897.949	17980
898.07	17920
898.19	18201
898.311	18228
898.431	18155
898.552	18197
898.672	18273
898.792	18205
898.913	18258
899.033	18034
899.153	17946
899.273	17893
899.393	17984
899.513	17999
899.633	17939
899.753	18011
899.873	17794
899.993	17992
900.113	17958
900.232	17836
900.352	17824
900.472	17703
900.591	17748
900.711	17821
900.83	17703
900.95	17969
901.069	17783
901.189	17745
901.308	17524
901.427	17455
901.546	17448
901.665	17417
901.784	17402
901.904	17337
902.023	17185
902.141	16984
902.26	16942
902.379	17018
902.498	16828
902.617	16889
902.735	16995
902.854	16862
902.973	16919
903.091	16637
903.21	16653
903.328	16626
903.446	16565
903.565	16417
903.683	16481
903.801	16363
903.919	16310
904.038	16398
904.156	16204
904.274	16192
904.392	16287
904.51	16234
904.627	16059
904.745	16234
904.863	16219
904.981	15956
905.098	15831
905.216	15846
905.334	15831
905.451	15804
905.569	15850
905.686	15903
905.803	15918
905.921	15732
906.038	15698
906.155	15698
906.272	15549
906.389	15633
906.506	15367
906.623	15488
906.74	15367
906.857	15310
906.974	15382
907.091	15477
907.208	15454
907.324	15397
907.441	15283
907.557	15203
907.674	15097
907.79	15100
907.907	15150
908.023	15116
908.139	15108
908.256	15077
908.372	14979
908.488	14982
908.604	14941
908.72	14811
908.836	14834
908.952	14674
909.068	14921
909.184	14880
909.3	14811
909.415	14781
909.531	14727
909.647	14503
909.762	14503
909.878	14427
909.993	14492
910.108	14549
910.224	14499
910.339	14495
910.454	14404
910.57	14320
910.685	14286
910.8	14571
910.915	14473
911.03	14320
911.145	14100
911.259	14134
911.374	14069
911.489	14012
911.604	13989
911.718	13879
911.833	13936
911.947	13776
912.062	13757
912.176	13822
912.291	13902
912.405	13940
912.519	14111
912.633	14043
912.748	13921
912.862	13856
912.976	13727
913.09	13662
913.204	13727
913.318	13769
913.431	13731
913.545	13780
913.659	13841
913.772	13696
913.886	13597
914	13624
914.113	13708
914.226	13681
914.34	13818
914.453	13472
914.566	13586
914.68	13487
914.793	13491
914.906	13339
915.019	13285
915.132	13164
915.245	13190
915.358	13259
915.47	13179
915.583	13202
915.696	13358
915.809	13396
915.921	13255
916.034	13202
916.146	13171
916.259	13076
916.371	13236
916.483	13274
916.595	13050
916.708	13042
916.82	13061
916.932	13015
917.044	13179
917.156	13031
917.268	12894
917.38	12905
917.491	12928
917.603	12886
917.715	13053
917.826	13069
917.938	12878
918.049	12696
918.161	12909
918.272	13015
918.384	13046
918.495	12977
918.606	12779
918.717	12734
918.828	12764
918.939	12806
919.05	12646
919.161	12730
919.272	12551
919.383	12547
919.494	12760
919.604	13000
919.715	12730
919.826	12654
919.936	12654
920.047	12795
920.157	12684
920.267	12909
920.378	12738
920.488	12669
920.598	12890
920.708	13023
920.818	12859
920.928	12821
921.038	13053
921.148	13065
921.258	12692
921.368	12631
921.477	12475
921.587	12418
921.697	12334
921.806	12422
921.916	12285
922.025	12197
922.134	12102
922.244	12095
922.353	12220
922.462	11973
922.571	11992
922.68	11901
922.789	11802
922.898	11843
923.007	11695
923.116	11893
923.224	11847
923.333	11821
923.442	11691
923.55	11539
923.659	11714
923.767	11699
923.876	11668
923.984	11676
924.092	11493
924.201	11566
924.309	11577
924.417	11699
924.525	11482
924.633	11661
924.741	12311
924.849	11280
924.956	11425
925.064	11299
925.172	11280
925.279	11315
925.387	11376
925.494	11353
925.602	11459
925.709	11493
925.816	11269
925.924	11288
926.031	11379
926.138	11258
926.245	11353
926.352	11121
926.459	11299
926.566	11326
926.673	11166
926.779	11083
926.886	11010
926.993	10900
927.099	10843
927.206	10915
927.312	10782
927.419	10949
927.525	10900
927.631	10961
927.737	10843
927.843	10820
927.95	10649
928.056	10763
928.162	10793
928.267	10854
928.373	11296
928.479	10763
928.585	10691
928.69	10805
928.796	10797
928.901	10634
929.007	10523
929.112	10664
929.218	10649
929.323	10577
929.428	10489
929.533	10664
929.638	10459
929.743	10440
929.848	10554
929.953	10481
930.058	10417
930.163	10207
930.267	10329
930.372	10352
930.477	10204
930.581	10470
930.685	10314
930.79	10200
930.894	10124
930.998	10185
931.103	10196
931.207	9895
931.311	9789
931.415	9762
931.519	9568
931.623	9584
