Data from test_V78500241_3614.txt Node
Date: Fri Mar 25 14:58:52 CST 2022
User: usil
Spectrometer: V785-0024
Trigger mode: 0
Integration Time (sec): 4.000000E-1
Scans to average: 1
Nonlinearity correction enabled: false
Boxcar width: 0
Storing dark spectrum: false
XAxis mode: Wavelengths
Number of Pixels in Spectrum: 1024
>>>>>Begin Spectral Data<<<<<
801.071	21850
801.214	21766
801.356	21698
801.499	21473
801.641	21340
801.783	21374
801.926	21275
802.068	21192
802.211	21252
802.353	21089
802.496	20941
802.638	20861
802.78	20796
802.923	20632
803.065	20632
803.208	20590
803.35	20571
803.492	20594
803.635	20613
803.777	20629
803.919	20727
804.061	20906
804.204	20663
804.346	20511
804.488	20518
804.63	20446
804.773	20545
804.915	20465
805.057	20575
805.199	20465
805.341	20541
805.483	20667
805.626	20659
805.768	20488
805.91	20533
806.052	20480
806.194	20514
806.336	20598
806.478	20518
806.62	20480
806.762	20526
806.904	20746
807.046	20941
807.188	20853
807.33	20902
807.472	20899
807.614	20800
807.756	20895
807.898	20636
808.04	20457
808.182	20495
808.324	20530
808.465	20598
808.607	20826
808.749	20868
808.891	20937
809.033	21100
809.174	20876
809.316	20906
809.458	20845
809.6	20819
809.741	20823
809.883	20857
810.025	21017
810.166	20994
810.308	20921
810.45	21005
810.591	20857
810.733	20758
810.875	20705
811.016	20568
811.158	20476
811.299	20686
811.441	20727
811.582	20667
811.724	20689
811.865	20655
812.007	20663
812.148	20575
812.29	20609
812.431	20773
812.573	20918
812.714	21116
812.855	21131
812.997	21226
813.138	21370
813.279	21317
813.421	21074
813.562	20986
813.703	20937
813.845	20785
813.986	20530
814.127	20355
814.268	20240
814.41	20183
814.551	20183
814.692	20263
814.833	20130
814.974	20107
815.115	20119
815.256	20077
815.397	20031
815.539	19967
815.68	19909
815.821	19868
815.962	19932
816.103	19845
816.244	19677
816.385	19620
816.526	19590
816.666	19369
816.807	19263
816.948	19407
817.089	19400
817.23	19320
817.371	19278
817.512	19331
817.653	19308
817.793	19244
817.934	19266
818.075	19236
818.216	19339
818.356	19263
818.497	19065
818.638	18913
818.778	18829
818.919	18996
819.06	19046
819.2	19133
819.341	19145
819.481	19274
819.622	19365
819.762	19483
819.903	19480
820.043	19308
820.184	19293
820.324	19282
820.465	19396
820.605	19278
820.746	19247
820.886	19156
821.026	19331
821.167	19183
821.307	19331
821.447	19183
821.588	19141
821.728	18886
821.868	18878
822.008	18623
822.149	18612
822.289	18665
822.429	18483
822.569	18372
822.709	18448
822.849	18304
822.99	18213
823.13	18182
823.27	18152
823.41	17977
823.55	17969
823.69	17980
823.83	18129
823.97	17965
824.11	17855
824.25	17691
824.389	17741
824.529	17923
824.669	17878
824.809	17832
824.949	17855
825.089	17912
825.228	17824
825.368	17676
825.508	17585
825.648	17592
825.787	17585
825.927	17547
826.067	17566
826.206	17566
826.346	17493
826.485	17524
826.625	17532
826.765	17699
826.904	17623
827.044	17452
827.183	17315
827.323	17277
827.462	17242
827.601	17334
827.741	17246
827.88	17288
828.02	17166
828.159	17140
828.298	17265
828.437	17406
828.577	17170
828.716	17391
828.855	17250
828.994	16972
829.134	17094
829.273	17079
829.412	17037
829.551	16938
829.69	17010
829.829	16965
829.968	17189
830.107	17136
830.246	17033
830.385	16980
830.524	16896
830.663	16801
830.802	16698
830.941	16683
831.08	16721
831.219	16774
831.357	16820
831.496	16946
831.635	16672
831.774	16622
831.913	16489
832.051	16550
832.19	16523
832.329	16447
832.467	16402
832.606	16299
832.744	16360
832.883	16276
833.022	16242
833.16	16398
833.299	16215
833.437	16310
833.576	16382
833.714	16413
833.852	16398
833.991	16466
834.129	16508
834.267	16508
834.406	16428
834.544	16565
834.682	16512
834.821	16421
834.959	16596
835.097	16379
835.235	16466
835.373	16413
835.511	16402
835.65	16314
835.788	16261
835.926	16112
836.064	16150
836.202	16093
836.34	16314
836.478	16344
836.615	16325
836.753	16382
836.891	16390
837.029	16314
837.167	16238
837.305	16185
837.443	16238
837.58	16120
837.718	16344
837.856	16139
837.993	16150
838.131	16204
838.269	16010
838.406	16204
838.544	16093
838.681	15949
838.819	15823
838.956	15759
839.094	15781
839.231	15869
839.369	15865
839.506	16185
839.643	16048
839.781	15800
839.918	15705
840.055	15800
840.193	15819
840.33	15637
840.467	15759
840.604	15842
840.742	15949
840.879	15755
841.016	15629
841.153	15610
841.29	15728
841.427	15694
841.564	15838
841.701	15732
841.838	15724
841.975	15671
842.112	15671
842.249	15679
842.385	15584
842.522	15690
842.659	15500
842.796	15492
842.933	15603
843.069	15542
843.206	15462
843.343	15584
843.479	15633
843.616	15530
843.752	15393
843.889	15355
844.025	15408
844.162	15287
844.298	15405
844.435	15325
844.571	15306
844.708	15370
844.844	15485
844.98	15519
845.117	15428
845.253	15226
845.389	15237
845.525	15154
845.661	15203
845.798	15142
845.934	15245
846.07	15005
846.206	15169
846.342	15283
846.478	15165
846.614	14891
846.75	14918
846.886	14887
847.022	14925
847.158	14929
847.294	14906
847.429	14883
847.565	14838
847.701	15176
847.837	14644
847.972	14621
848.108	14762
848.244	14769
848.379	14568
848.515	14454
848.65	14533
848.786	14545
848.921	14640
849.057	14610
849.192	14575
849.328	14476
849.463	14434
849.598	14499
849.734	14370
849.869	14358
850.004	14339
850.14	14218
850.275	14339
850.41	14229
850.545	14195
850.68	14191
850.815	14343
850.95	14191
851.085	14476
851.22	14389
851.355	14259
851.49	14237
851.625	14240
851.76	14187
851.895	14119
852.03	14138
852.165	14229
852.299	14389
852.434	14404
852.569	14336
852.703	14248
852.838	14389
852.973	14385
853.107	14404
853.242	14237
853.376	14164
853.511	14077
853.645	14157
853.78	14218
853.914	14123
854.048	14088
854.183	14046
854.317	14111
854.451	14305
854.585	14107
854.72	14092
854.854	14058
854.988	13970
855.122	14069
855.256	13974
855.39	13997
855.524	14309
855.658	14286
855.792	14145
855.926	14195
856.06	14107
856.194	14199
856.327	14195
856.461	14035
856.595	14058
856.729	14054
856.862	14187
856.996	14195
857.13	14180
857.263	14244
857.397	14263
857.53	14218
857.664	14111
857.797	14168
857.931	14267
858.064	14187
858.197	14248
858.331	14172
858.464	14183
858.597	13993
858.731	14123
858.864	14123
858.997	14069
859.13	14145
859.263	14123
859.396	14248
859.529	14050
859.662	14088
859.795	14069
859.928	14142
860.061	14256
860.194	14252
860.327	14100
860.46	14157
860.592	14126
860.725	14298
860.858	14240
860.99	14096
861.123	13978
861.256	14001
861.388	14172
861.521	14925
861.653	13959
861.786	13978
861.918	14043
862.05	13986
862.183	14024
862.315	14111
862.447	14252
862.58	14145
862.712	13993
862.844	13750
862.976	13970
863.108	14035
863.24	14317
863.372	13837
863.504	13906
863.636	13883
863.768	13993
863.9	13940
864.032	13826
864.164	13818
864.296	13925
864.428	13959
864.559	13932
864.691	13928
864.823	13883
864.954	13898
865.086	13940
865.217	13921
865.349	13864
865.48	13951
865.612	13898
865.743	14111
865.875	13932
866.006	13921
866.137	13970
866.269	13898
866.4	13849
866.531	13928
866.662	13871
866.793	13864
866.924	13890
867.055	13921
867.186	13925
867.317	13890
867.448	13776
867.579	13841
867.71	13761
867.841	13875
867.972	13841
868.103	13894
868.233	13928
868.364	13974
868.495	14012
868.625	14187
868.756	14202
868.886	14062
869.017	14096
869.147	14267
869.278	14358
869.408	14195
869.539	14149
869.669	14191
869.799	14164
869.929	14259
870.06	14218
870.19	14549
870.32	14461
870.45	14434
870.58	14549
870.71	14693
870.84	14606
870.97	14629
871.1	14480
871.23	14739
871.36	14689
871.489	14598
871.619	14636
871.749	14788
871.879	14769
872.008	14929
872.138	14667
872.267	14811
872.397	14537
872.526	14579
872.656	14594
872.785	14579
872.915	14701
873.044	14739
873.173	14754
873.303	14739
873.432	14792
873.561	14891
873.69	14849
873.819	14849
873.948	14921
874.077	14834
874.206	14613
874.335	14777
874.464	14944
874.593	15047
874.722	15104
874.851	15154
874.979	15135
875.108	15192
875.237	15017
875.365	15116
875.494	15085
875.623	15188
875.751	15081
875.88	15146
876.008	15195
876.136	15306
876.265	15485
876.393	15610
876.521	15667
876.65	15629
876.778	15538
876.906	15450
877.034	15469
877.162	15492
877.29	15507
877.418	15500
877.546	15416
877.674	15545
877.802	15443
877.93	15530
878.058	15580
878.185	15325
878.313	15466
878.441	15504
878.568	15340
878.696	15439
878.824	15507
878.951	15599
879.079	15644
879.206	15888
879.333	15682
879.461	15519
879.588	15679
879.715	15641
879.842	15808
879.97	15549
880.097	15405
880.224	15291
880.351	15420
880.478	15439
880.605	15348
880.732	15374
880.859	15622
880.986	15416
881.112	15458
881.239	15237
881.366	15150
881.493	15119
881.619	14998
881.746	15055
881.872	15043
881.999	15032
882.125	14963
882.252	15036
882.378	15093
882.505	15199
882.631	14967
882.757	14902
882.883	14971
883.01	14765
883.136	14811
883.262	14686
883.388	14731
883.514	14788
883.64	14998
883.766	14849
883.892	14636
884.018	14735
884.143	14868
884.269	14998
884.395	14636
884.52	14526
884.646	14507
884.772	14488
884.897	14488
885.023	14648
885.148	14667
885.274	14655
885.399	14701
885.524	14552
885.65	14571
885.775	14667
885.9	14522
886.025	14724
886.15	14701
886.275	14465
886.4	14438
886.525	14655
886.65	14564
886.775	14457
886.9	14667
887.025	14697
887.149	14522
887.274	14454
887.399	14324
887.523	14328
887.648	14278
887.773	14256
887.897	14431
888.021	14549
888.146	14450
888.27	14533
888.395	14598
888.519	14560
888.643	14431
888.767	14549
888.891	14328
889.015	14313
889.139	14252
889.263	14252
889.387	14408
889.511	14484
889.635	14343
889.759	14240
889.883	14282
890.006	14294
890.13	14389
890.254	14191
890.377	14237
890.501	14176
890.624	14020
890.748	14180
890.871	13913
890.995	14020
891.118	13860
891.241	14001
891.364	13928
891.488	14043
891.611	13902
891.734	13978
891.857	14073
891.98	13997
892.103	14046
892.226	14103
892.349	13845
892.471	13849
892.594	14031
892.717	13967
892.839	13944
892.962	13997
893.085	14077
893.207	13936
893.33	13868
893.452	13909
893.575	14077
893.697	13955
893.819	14115
893.941	14172
894.064	14100
894.186	13936
894.308	13868
894.43	14214
894.552	14115
894.674	14180
894.796	13955
894.918	14123
895.04	14005
895.161	14069
895.283	14138
895.405	13993
895.526	13997
895.648	14069
895.769	14065
895.891	14153
896.012	14214
896.134	14210
896.255	14176
896.376	14073
896.498	14244
896.619	14172
896.74	14008
896.861	14271
896.982	14393
897.103	14678
897.224	14530
897.345	14377
897.466	14400
897.587	14358
897.708	14549
897.828	14495
897.949	14396
898.07	14256
898.19	14328
898.311	14598
898.431	14461
898.552	14507
898.672	14644
898.792	14556
898.913	14507
899.033	14434
899.153	14313
899.273	14309
899.393	14332
899.513	14446
899.633	14408
899.753	14343
899.873	14362
899.993	14389
900.113	14336
900.232	14434
900.352	14286
900.472	14244
900.591	14206
900.711	14332
900.83	14240
900.95	14328
901.069	14275
901.189	14191
901.308	13906
901.427	13811
901.546	13807
901.665	13883
901.784	13879
901.904	13856
902.023	13624
902.141	13552
902.26	13483
902.379	13582
902.498	13400
902.617	13407
902.735	13491
902.854	13480
902.973	13430
903.091	13198
903.21	13198
903.328	13232
903.446	13095
903.565	12989
903.683	13057
903.801	13038
903.919	12993
904.038	13053
904.156	12897
904.274	13031
904.392	12802
904.51	12863
904.627	12776
904.745	12909
904.863	12916
904.981	12646
905.098	12612
905.216	12589
905.334	12532
905.451	12544
905.569	12422
905.686	12445
905.803	12582
905.921	12281
906.038	12407
906.155	12353
906.272	12247
906.389	12311
906.506	12167
906.623	12167
906.74	12182
906.857	11954
906.974	11984
907.091	12186
907.208	12194
907.324	12167
907.441	12072
907.557	11889
907.674	11866
907.79	11748
907.907	11935
908.023	11904
908.139	11942
908.256	11851
908.372	11821
908.488	11805
908.604	11741
908.72	11596
908.836	11688
908.952	11627
909.068	11649
909.184	11805
909.3	11600
909.415	11665
909.531	11611
909.647	11486
909.762	11414
909.878	11379
909.993	11459
910.108	11410
910.224	11360
910.339	11452
910.454	11391
910.57	11284
910.685	11185
910.8	11524
910.915	11433
911.03	11239
911.145	11121
911.259	11086
911.374	11132
911.489	11060
911.604	10991
911.718	10938
911.833	10938
911.947	10835
912.062	10748
912.176	10866
912.291	10816
912.405	10866
912.519	11064
912.633	11090
912.748	10972
912.862	10908
912.976	10691
913.09	10622
913.204	10736
913.318	10714
913.431	10809
913.545	10858
913.659	10843
913.772	10786
913.886	10710
914	10679
914.113	10752
914.226	10812
914.34	10786
914.453	10493
914.566	10759
914.68	10519
914.793	10588
914.906	10360
915.019	10325
915.132	10310
915.245	10367
915.358	10379
915.47	10432
915.583	10379
915.696	10417
915.809	10485
915.921	10531
916.034	10386
916.146	10375
916.259	10306
916.371	10394
916.483	10443
916.595	10333
916.708	10310
916.82	10413
916.932	10280
917.044	10299
917.156	10363
917.268	10207
917.38	10310
917.491	10215
917.603	10295
917.715	10318
917.826	10280
917.938	10154
918.049	10139
918.161	10276
918.272	10295
918.384	10341
918.495	10249
918.606	10109
918.717	9964
918.828	10101
918.939	10147
919.05	9968
919.161	10067
919.272	9964
919.383	9998
919.494	10154
919.604	10337
919.715	10147
919.826	10078
919.936	10051
920.047	10166
920.157	10181
920.267	10314
920.378	10116
920.488	10166
920.598	10344
920.708	10424
920.818	10440
920.928	10344
921.038	10451
921.148	10451
921.258	10200
921.368	10131
921.477	10032
921.587	9918
921.697	9873
921.806	9975
921.916	9838
922.025	9686
922.134	9713
922.244	9587
922.353	9694
922.462	9584
922.571	9485
922.68	9431
922.789	9450
922.898	9447
923.007	9332
923.116	9431
923.224	9340
923.333	9332
923.442	9249
923.55	9321
923.659	9233
923.767	9382
923.876	9287
923.984	9329
924.092	9169
924.201	9260
924.309	9203
924.417	9283
924.525	9169
924.633	9260
924.741	10032
924.849	9043
924.956	9199
925.064	9020
925.172	8944
925.279	8929
925.387	9100
925.494	9081
925.602	9150
925.709	9108
925.816	9028
925.924	9013
926.031	9150
926.138	9085
926.245	9077
926.352	9047
926.459	9100
926.566	9058
926.673	9005
926.779	8876
926.886	8902
926.993	8758
927.099	8781
927.206	8724
927.312	8758
927.419	8796
927.525	8769
927.631	8842
927.737	8716
927.843	8655
927.95	8530
928.056	8629
928.162	8648
928.267	8697
928.373	9226
928.479	8739
928.585	8469
928.69	8579
928.796	8651
928.901	8621
929.007	8400
929.112	8552
929.218	8450
929.323	8495
929.428	8454
929.533	8606
929.638	8438
929.743	8461
929.848	8537
929.953	8461
930.058	8389
930.163	8202
930.267	8229
930.372	8438
930.477	8206
930.581	8457
930.685	8370
930.79	8214
930.894	8206
930.998	8199
931.103	8313
931.207	7986
931.311	7894
931.415	7864
931.519	7700
931.623	7715
