Data from test_V78500241_2807.txt Node
Date: Fri Mar 25 14:53:15 CST 2022
User: usil
Spectrometer: V785-0024
Trigger mode: 0
Integration Time (sec): 4.000000E-1
Scans to average: 1
Nonlinearity correction enabled: false
Boxcar width: 0
Storing dark spectrum: false
XAxis mode: Wavelengths
Number of Pixels in Spectrum: 1024
>>>>>Begin Spectral Data<<<<<
801.071	22082
801.214	21922
801.356	21743
801.499	21591
801.641	21458
801.783	21393
801.926	21439
802.068	21389
802.211	21222
802.353	21135
802.496	21135
802.638	20944
802.78	20861
802.923	20724
803.065	20800
803.208	20724
803.35	20777
803.492	20937
803.635	20902
803.777	20655
803.919	20902
804.061	21264
804.204	20842
804.346	20720
804.488	20629
804.63	20686
804.773	20701
804.915	20651
805.057	20857
805.199	20689
805.341	20739
805.483	20845
805.626	20743
805.768	20598
805.91	20693
806.052	20682
806.194	20655
806.336	20777
806.478	20674
806.62	20533
806.762	20667
806.904	20868
807.046	21062
807.188	21005
807.33	20952
807.472	21024
807.614	20823
807.756	20910
807.898	20815
808.04	20644
808.182	20457
808.324	20781
808.465	20781
808.607	20952
808.749	21005
808.891	21112
809.033	21058
809.174	21146
809.316	20971
809.458	21119
809.6	20994
809.741	21127
809.883	21070
810.025	21184
810.166	21108
810.308	21298
810.45	21051
810.591	21001
810.733	21020
810.875	20921
811.016	20659
811.158	20762
811.299	20807
811.441	20796
811.582	20906
811.724	20697
811.865	20682
812.007	20667
812.148	20804
812.29	20705
812.431	20941
812.573	21123
812.714	21195
812.855	21173
812.997	21340
813.138	21500
813.279	21363
813.421	21222
813.562	21157
813.703	21169
813.845	20944
813.986	20545
814.127	20461
814.268	20343
814.41	20423
814.551	20358
814.692	20385
814.833	20191
814.974	20271
815.115	20294
815.256	20145
815.397	20145
815.539	20176
815.68	20084
815.821	20062
815.962	20069
816.103	19978
816.244	19883
816.385	19772
816.526	19826
816.666	19674
816.807	19518
816.948	19476
817.089	19597
817.23	19510
817.371	19518
817.512	19407
817.653	19495
817.793	19388
817.934	19495
818.075	19377
818.216	19449
818.356	19419
818.497	19316
818.638	19141
818.778	19187
818.919	19179
819.06	19141
819.2	19206
819.341	19282
819.481	19422
819.622	19460
819.762	19571
819.903	19506
820.043	19445
820.184	19491
820.324	19422
820.465	19468
820.605	19312
820.746	19415
820.886	19308
821.026	19434
821.167	19445
821.307	19392
821.447	19392
821.588	19209
821.728	19228
821.868	18954
822.008	18875
822.149	18905
822.289	18985
822.429	18578
822.569	18528
822.709	18494
822.849	18323
822.99	18403
823.13	18350
823.27	18304
823.41	18171
823.55	18129
823.69	18064
823.83	18121
823.97	18038
824.11	17927
824.25	17863
824.389	17912
824.529	17832
824.669	17939
824.809	18022
824.949	18064
825.089	17977
825.228	17897
825.368	17703
825.508	17676
825.648	17642
825.787	17726
825.927	17707
826.067	17684
826.206	17710
826.346	17657
826.485	17676
826.625	17653
826.765	17691
826.904	17680
827.044	17547
827.183	17554
827.323	17280
827.462	17452
827.601	17421
827.741	17436
827.88	17383
828.02	17318
828.159	17383
828.298	17429
828.437	17322
828.577	17296
828.716	17474
828.855	17387
828.994	17121
829.134	17140
829.273	17246
829.412	17079
829.551	17079
829.69	17098
829.829	17200
829.968	17185
830.107	17258
830.246	17193
830.385	17121
830.524	17086
830.663	16919
830.802	16934
830.941	16706
831.08	16740
831.219	16809
831.357	16847
831.496	16942
831.635	16774
831.774	16675
831.913	16683
832.051	16508
832.19	16675
832.329	16694
832.467	16550
832.606	16440
832.744	16474
832.883	16470
833.022	16440
833.16	16428
833.299	16497
833.437	16394
833.576	16440
833.714	16512
833.852	16500
833.991	16538
834.129	16679
834.267	16519
834.406	16516
834.544	16615
834.682	16519
834.821	16527
834.959	16649
835.097	16512
835.235	16508
835.373	16451
835.511	16523
835.65	16344
835.788	16382
835.926	16337
836.064	16204
836.202	16257
836.34	16402
836.478	16558
836.615	16409
836.753	16337
836.891	16481
837.029	16402
837.167	16409
837.305	16333
837.443	16303
837.58	16333
837.718	16284
837.856	16295
837.993	16238
838.131	16261
838.269	16246
838.406	16299
838.544	16131
838.681	16025
838.819	15987
838.956	15762
839.094	15774
839.231	15998
839.369	16029
839.506	16196
839.643	16078
839.781	15934
839.918	15793
840.055	15800
840.193	15892
840.33	15793
840.467	15880
840.604	15888
840.742	16051
840.879	15736
841.016	15709
841.153	15671
841.29	16048
841.427	15835
841.564	15930
841.701	15854
841.838	15819
841.975	15690
842.112	15800
842.249	15694
842.385	15500
842.522	15736
842.659	15625
842.796	15557
842.933	15580
843.069	15511
843.206	15530
843.343	15622
843.479	15603
843.616	15618
843.752	15401
843.889	15401
844.025	15481
844.162	15420
844.298	15496
844.435	15378
844.571	15306
844.708	15500
844.844	15488
844.98	15466
845.117	15485
845.253	15306
845.389	15348
845.525	15332
845.661	15344
845.798	15211
845.934	15291
846.07	15142
846.206	15199
846.342	15313
846.478	15226
846.614	15032
846.75	14971
846.886	14933
847.022	15013
847.158	14967
847.294	15024
847.429	15093
847.565	14902
847.701	15226
847.837	14678
847.972	14731
848.108	14716
848.244	14792
848.379	14758
848.515	14621
848.65	14552
848.786	14526
848.921	14571
849.057	14674
849.192	14693
849.328	14636
849.463	14617
849.598	14492
849.734	14522
849.869	14511
850.004	14415
850.14	14431
850.275	14362
850.41	14237
850.545	14366
850.68	14336
850.815	14351
850.95	14290
851.085	14541
851.22	14522
851.355	14362
851.49	14396
851.625	14305
851.76	14400
851.895	14309
852.03	14218
852.165	14336
852.299	14347
852.434	14507
852.569	14355
852.703	14400
852.838	14393
852.973	14564
853.107	14412
853.242	14313
853.376	14271
853.511	14176
853.645	14180
853.78	14396
853.914	14237
854.048	14263
854.183	14138
854.317	14275
854.451	14358
854.585	14263
854.72	14183
854.854	14301
854.988	14168
855.122	14214
855.256	14092
855.39	14195
855.524	14351
855.658	14252
855.792	14267
855.926	14278
856.06	14263
856.194	14320
856.327	14195
856.461	14206
856.595	14130
856.729	14157
856.862	14301
856.996	14240
857.13	14339
857.263	14210
857.397	14305
857.53	14191
857.664	14298
857.797	14305
857.931	14393
858.064	14351
858.197	14442
858.331	14278
858.464	14229
858.597	14054
858.731	14210
858.864	14195
858.997	14210
859.13	14267
859.263	14385
859.396	14298
859.529	14252
859.662	14271
859.795	14244
859.928	14305
860.061	14419
860.194	14358
860.327	14305
860.46	14294
860.592	14450
860.725	14473
860.858	14343
860.99	14206
861.123	14130
861.256	14233
861.388	14271
861.521	14868
861.653	14100
861.786	14126
861.918	14145
862.05	14149
862.183	14123
862.315	14278
862.447	14320
862.58	14142
862.712	14050
862.844	13944
862.976	14123
863.108	14107
863.24	14415
863.372	13951
863.504	14005
863.636	13963
863.768	14054
863.9	14012
864.032	13898
864.164	13970
864.296	14054
864.428	14214
864.559	14176
864.691	14119
864.823	14107
864.954	14100
865.086	14084
865.217	13997
865.349	13940
865.48	14054
865.612	13978
865.743	14138
865.875	14008
866.006	13997
866.137	14020
866.269	14001
866.4	14050
866.531	13959
866.662	13868
866.793	13864
866.924	13974
867.055	13955
867.186	14039
867.317	13902
867.448	13837
867.579	13947
867.71	13955
867.841	13997
867.972	14123
868.103	14020
868.233	14077
868.364	13978
868.495	14039
868.625	14225
868.756	14286
868.886	14180
869.017	14229
869.147	14309
869.278	14374
869.408	14237
869.539	14290
869.669	14290
869.799	14317
869.929	14415
870.06	14465
870.19	14571
870.32	14537
870.45	14610
870.58	14727
870.71	14705
870.84	14674
870.97	14743
871.1	14602
871.23	14800
871.36	14883
871.489	14720
871.619	14800
871.749	14838
871.879	14921
872.008	14914
872.138	14853
872.267	14872
872.397	14678
872.526	14610
872.656	14613
872.785	14708
872.915	14876
873.044	14883
873.173	14902
873.303	14895
873.432	14925
873.561	15009
873.69	14929
873.819	14902
873.948	14998
874.077	14921
874.206	14933
874.335	14910
874.464	15036
874.593	15154
874.722	15097
874.851	15192
874.979	15226
875.108	15256
875.237	15237
875.365	15150
875.494	15199
875.623	15313
875.751	15150
875.88	15256
876.008	15439
876.136	15443
876.265	15614
876.393	15720
876.521	15728
876.65	15732
876.778	15732
876.906	15576
877.034	15530
877.162	15515
877.29	15545
877.418	15717
877.546	15675
877.674	15667
877.802	15679
877.93	15644
878.058	15530
878.185	15488
878.313	15591
878.441	15724
878.568	15408
878.696	15488
878.824	15629
878.951	15644
879.079	15747
879.206	15899
879.333	15739
879.461	15690
879.588	15770
879.715	15922
879.842	15869
879.97	15682
880.097	15450
880.224	15420
880.351	15519
880.478	15591
880.605	15496
880.732	15557
880.859	15648
880.986	15485
881.112	15526
881.239	15435
881.366	15264
881.493	15237
881.619	15173
881.746	15093
881.872	15097
881.999	15135
882.125	15108
882.252	15199
882.378	15184
882.505	15325
882.631	15097
882.757	14963
882.883	15043
883.01	14975
883.136	14891
883.262	14864
883.388	14781
883.514	15013
883.64	14967
883.766	14880
883.892	14785
884.018	14834
884.143	14899
884.269	14982
884.395	14769
884.52	14682
884.646	14667
884.772	14598
884.897	14480
885.023	14625
885.148	14750
885.274	14777
885.399	14697
885.524	14610
885.65	14720
885.775	14663
885.9	14689
886.025	14876
886.15	14785
886.275	14541
886.4	14492
886.525	14648
886.65	14606
886.775	14636
886.9	14682
887.025	14857
887.149	14708
887.274	14560
887.399	14396
887.523	14537
887.648	14431
887.773	14358
887.897	14541
888.021	14503
888.146	14480
888.27	14552
888.395	14549
888.519	14556
888.643	14457
888.767	14499
888.891	14427
889.015	14309
889.139	14454
889.263	14256
889.387	14469
889.511	14594
889.635	14488
889.759	14290
889.883	14404
890.006	14377
890.13	14446
890.254	14351
890.377	14309
890.501	14161
890.624	14145
890.748	14263
890.871	14164
890.995	13967
891.118	13902
891.241	14039
891.364	13986
891.488	14240
891.611	14031
891.734	14054
891.857	14111
891.98	14027
892.103	14130
892.226	14168
892.349	13986
892.471	13845
892.594	14020
892.717	14084
892.839	13993
892.962	14012
893.085	14119
893.207	14077
893.33	13936
893.452	13997
893.575	14145
893.697	14100
893.819	14221
893.941	14176
894.064	14214
894.186	13959
894.308	14005
894.43	14206
894.552	14229
894.674	14164
894.796	14054
894.918	14130
895.04	14119
895.161	14187
895.283	14115
895.405	14001
895.526	14161
895.648	14157
895.769	14142
895.891	14202
896.012	14309
896.134	14210
896.255	14309
896.376	14161
896.498	14206
896.619	14294
896.74	14187
896.861	14290
896.982	14514
897.103	14712
897.224	14590
897.345	14423
897.466	14454
897.587	14473
897.708	14575
897.828	14537
897.949	14530
898.07	14415
898.19	14526
898.311	14686
898.431	14549
898.552	14545
898.672	14617
898.792	14667
898.913	14602
899.033	14560
899.153	14473
899.273	14396
899.393	14324
899.513	14457
899.633	14495
899.753	14476
899.873	14431
899.993	14473
900.113	14438
900.232	14457
900.352	14343
900.472	14332
900.591	14271
900.711	14298
900.83	14225
900.95	14412
901.069	14431
901.189	14290
901.308	14062
901.427	14035
901.546	13932
901.665	14020
901.784	13906
901.904	13765
902.023	13784
902.141	13696
902.26	13559
902.379	13632
902.498	13597
902.617	13624
902.735	13624
902.854	13487
902.973	13426
903.091	13388
903.21	13289
903.328	13274
903.446	13206
903.565	13152
903.683	13263
903.801	12993
903.919	13122
904.038	13164
904.156	12932
904.274	12947
904.392	12894
904.51	12852
904.627	12913
904.745	12973
904.863	12943
904.981	12677
905.098	12677
905.216	12665
905.334	12623
905.451	12623
905.569	12566
905.686	12627
905.803	12658
905.921	12506
906.038	12513
906.155	12490
906.272	12384
906.389	12311
906.506	12163
906.623	12190
906.74	12289
906.857	12034
906.974	12163
907.091	12243
907.208	12273
907.324	12304
907.441	12159
907.557	12041
907.674	11931
907.79	11927
907.907	11969
908.023	11980
908.139	11980
908.256	11923
908.372	11851
908.488	11885
908.604	11695
908.72	11695
908.836	11718
908.952	11676
909.068	11707
909.184	11878
909.3	11729
909.415	11684
909.531	11752
909.647	11512
909.762	11433
909.878	11467
909.993	11471
910.108	11520
910.224	11493
910.339	11448
910.454	11368
910.57	11387
910.685	11261
910.8	11509
910.915	11425
911.03	11345
911.145	11201
911.259	11204
911.374	11121
911.489	11094
911.604	11067
911.718	10942
911.833	10976
911.947	10858
912.062	10820
912.176	10957
912.291	11014
912.405	10942
912.519	11105
912.633	11079
912.748	11075
912.862	11029
912.976	10831
913.09	10637
913.204	10835
913.318	10812
913.431	10900
913.545	10911
913.659	10965
913.772	10885
913.886	10706
914	10729
914.113	10820
914.226	10835
914.34	10809
914.453	10698
914.566	10763
914.68	10611
914.793	10649
914.906	10436
915.019	10424
915.132	10360
915.245	10462
915.358	10432
915.47	10466
915.583	10489
915.696	10485
915.809	10596
915.921	10618
916.034	10459
916.146	10394
916.259	10375
916.371	10535
916.483	10470
916.595	10379
916.708	10379
916.82	10459
916.932	10356
917.044	10325
917.156	10322
917.268	10265
917.38	10394
917.491	10223
917.603	10318
917.715	10276
917.826	10421
917.938	10303
918.049	10207
918.161	10314
918.272	10394
918.384	10451
918.495	10268
918.606	10162
918.717	10048
918.828	10200
918.939	10227
919.05	10120
919.161	10173
919.272	9922
919.383	10048
919.494	10204
919.604	10428
919.715	10120
919.826	10086
919.936	10109
920.047	10238
920.157	10211
920.267	10371
920.378	10162
920.488	10268
920.598	10337
920.708	10561
920.818	10341
920.928	10402
921.038	10485
921.148	10519
921.258	10166
921.368	10128
921.477	10116
921.587	10044
921.697	9922
921.806	10097
921.916	9930
922.025	9785
922.134	9831
922.244	9686
922.353	9793
922.462	9644
922.571	9561
922.68	9416
922.789	9397
922.898	9466
923.007	9378
923.116	9485
923.224	9447
923.333	9447
923.442	9329
923.55	9264
923.659	9325
923.767	9378
923.876	9313
923.984	9348
924.092	9214
924.201	9336
924.309	9302
924.417	9298
924.525	9272
924.633	9279
924.741	10021
924.849	9001
924.956	9275
925.064	9070
925.172	8994
925.279	8967
925.387	9116
925.494	9097
925.602	9233
925.709	9180
925.816	9062
925.924	9108
926.031	9211
926.138	9127
926.245	9184
926.352	9017
926.459	9173
926.566	9184
926.673	8975
926.779	8967
926.886	8967
926.993	8807
927.099	8845
927.206	8724
927.312	8746
927.419	8811
927.525	8762
927.631	8868
927.737	8724
927.843	8674
927.95	8640
928.056	8701
928.162	8686
928.267	8663
928.373	9291
928.479	8785
928.585	8530
928.69	8674
928.796	8731
928.901	8625
929.007	8507
929.112	8587
929.218	8583
929.323	8526
929.428	8560
929.533	8773
929.638	8469
929.743	8495
929.848	8549
929.953	8495
930.058	8362
930.163	8263
930.267	8263
930.372	8408
930.477	8237
930.581	8549
930.685	8358
930.79	8240
930.894	8336
930.998	8244
931.103	8419
931.207	7982
931.311	7967
931.415	7898
931.519	7826
931.623	7761
