Data from test_V78500241_2945.txt Node
Date: Fri Mar 25 14:54:13 CST 2022
User: usil
Spectrometer: V785-0024
Trigger mode: 0
Integration Time (sec): 4.000000E-1
Scans to average: 1
Nonlinearity correction enabled: false
Boxcar width: 0
Storing dark spectrum: false
XAxis mode: Wavelengths
Number of Pixels in Spectrum: 1024
>>>>>Begin Spectral Data<<<<<
801.071	22128
801.214	22063
801.356	21865
801.499	21686
801.641	21447
801.783	21504
801.926	21523
802.068	21408
802.211	21405
802.353	21169
802.496	21055
802.638	21013
802.78	20971
802.923	20773
803.065	20640
803.208	20796
803.35	20701
803.492	20948
803.635	20944
803.777	20758
803.919	20838
804.061	21150
804.204	20800
804.346	20792
804.488	20701
804.63	20743
804.773	20636
804.915	20712
805.057	20773
805.199	20727
805.341	20739
805.483	20701
805.626	20792
805.768	20655
805.91	20613
806.052	20750
806.194	20625
806.336	20743
806.478	20651
806.62	20636
806.762	20807
806.904	20864
807.046	21070
807.188	21005
807.33	21017
807.472	21047
807.614	21032
807.756	20944
807.898	20868
808.04	20773
808.182	20735
808.324	20743
808.465	20815
808.607	20990
808.749	21058
808.891	20990
809.033	21291
809.174	21119
809.316	21043
809.458	21036
809.6	20918
809.741	21112
809.883	21123
810.025	21230
810.166	21203
810.308	21207
810.45	21256
810.591	21142
810.733	21047
810.875	20834
811.016	20746
811.158	20659
811.299	20944
811.441	21051
811.582	21005
811.724	20887
811.865	20762
812.007	20830
812.148	20883
812.29	20845
812.431	21116
812.573	21138
812.714	21195
812.855	21408
812.997	21504
813.138	21553
813.279	21481
813.421	21355
813.562	21233
813.703	21074
813.845	21036
813.986	20731
814.127	20522
814.268	20332
814.41	20351
814.551	20404
814.692	20446
814.833	20195
814.974	20339
815.115	20328
815.256	20229
815.397	20168
815.539	20313
815.68	20115
815.821	19913
815.962	20115
816.103	20126
816.244	19902
816.385	19814
816.526	19856
816.666	19860
816.807	19529
816.948	19594
817.089	19529
817.23	19544
817.371	19586
817.512	19533
817.653	19415
817.793	19499
817.934	19540
818.075	19552
818.216	19578
818.356	19483
818.497	19339
818.638	19213
818.778	19145
818.919	19206
819.06	19171
819.2	19308
819.341	19369
819.481	19339
819.622	19590
819.762	19723
819.903	19643
820.043	19521
820.184	19445
820.324	19597
820.465	19483
820.605	19460
820.746	19335
820.886	19365
821.026	19415
821.167	19365
821.307	19502
821.447	19411
821.588	19335
821.728	19198
821.868	19012
822.008	18867
822.149	18894
822.289	18901
822.429	18642
822.569	18593
822.709	18612
822.849	18365
822.99	18338
823.13	18365
823.27	18350
823.41	18281
823.55	18068
823.69	18205
823.83	18205
823.97	18213
824.11	17977
824.25	17935
824.389	17996
824.529	18053
824.669	17980
824.809	18068
824.949	17988
825.089	18038
825.228	17999
825.368	17855
825.508	17790
825.648	17771
825.787	17802
825.927	17737
826.067	17771
826.206	17718
826.346	17649
826.485	17695
826.625	17745
826.765	17805
826.904	17764
827.044	17512
827.183	17539
827.323	17345
827.462	17414
827.601	17455
827.741	17429
827.88	17417
828.02	17326
828.159	17417
828.298	17448
828.437	17551
828.577	17478
828.716	17547
828.855	17360
828.994	17197
829.134	17159
829.273	17185
829.412	17223
829.551	17083
829.69	17143
829.829	17208
829.968	17334
830.107	17292
830.246	17254
830.385	17147
830.524	17018
830.663	17003
830.802	16858
830.941	16881
831.08	16896
831.219	16873
831.357	16942
831.496	17025
831.635	16820
831.774	16759
831.913	16683
832.051	16592
832.19	16569
832.329	16672
832.467	16516
832.606	16489
832.744	16428
832.883	16481
833.022	16421
833.16	16504
833.299	16451
833.437	16615
833.576	16489
833.714	16485
833.852	16538
833.991	16611
834.129	16660
834.267	16561
834.406	16580
834.544	16637
834.682	16538
834.821	16428
834.959	16664
835.097	16542
835.235	16653
835.373	16588
835.511	16599
835.65	16577
835.788	16382
835.926	16363
836.064	16226
836.202	16314
836.34	16440
836.478	16523
836.615	16554
836.753	16497
836.891	16504
837.029	16542
837.167	16504
837.305	16367
837.443	16409
837.58	16272
837.718	16409
837.856	16333
837.993	16238
838.131	16352
838.269	16223
838.406	16348
838.544	16128
838.681	16051
838.819	15953
838.956	15949
839.094	15888
839.231	15911
839.369	15930
839.506	16295
839.643	16177
839.781	15857
839.918	15994
840.055	15911
840.193	15850
840.33	15770
840.467	15911
840.604	15903
840.742	16147
840.879	15682
841.016	15797
841.153	15869
841.29	15945
841.427	15949
841.564	15808
841.701	15823
841.838	15835
841.975	15717
842.112	15709
842.249	15561
842.385	15614
842.522	15774
842.659	15675
842.796	15587
842.933	15637
843.069	15557
843.206	15644
843.343	15720
843.479	15572
843.616	15614
843.752	15519
843.889	15450
844.025	15572
844.162	15378
844.298	15370
844.435	15553
844.571	15397
844.708	15439
844.844	15504
844.98	15652
845.117	15424
845.253	15386
845.389	15283
845.525	15363
845.661	15298
845.798	15199
845.934	15348
846.07	15218
846.206	15298
846.342	15268
846.478	15081
846.614	15062
846.75	14838
846.886	14952
847.022	15070
847.158	14960
847.294	14986
847.429	15081
847.565	14982
847.701	15203
847.837	14720
847.972	14629
848.108	14754
848.244	14834
848.379	14621
848.515	14568
848.65	14533
848.786	14541
848.921	14648
849.057	14693
849.192	14689
849.328	14667
849.463	14560
849.598	14514
849.734	14465
849.869	14454
850.004	14396
850.14	14393
850.275	14427
850.41	14218
850.545	14320
850.68	14431
850.815	14454
850.95	14328
851.085	14602
851.22	14423
851.355	14320
851.49	14374
851.625	14252
851.76	14309
851.895	14263
852.03	14195
852.165	14351
852.299	14431
852.434	14442
852.569	14275
852.703	14351
852.838	14404
852.973	14484
853.107	14484
853.242	14305
853.376	14183
853.511	14134
853.645	14259
853.78	14400
853.914	14237
854.048	14278
854.183	14191
854.317	14161
854.451	14381
854.585	14301
854.72	14206
854.854	14259
854.988	14157
855.122	14214
855.256	14046
855.39	14164
855.524	14320
855.658	14252
855.792	14199
855.926	14218
856.06	14366
856.194	14301
856.327	14168
856.461	14218
856.595	14149
856.729	14183
856.862	14328
856.996	14229
857.13	14332
857.263	14385
857.397	14358
857.53	14195
857.664	14278
857.797	14298
857.931	14259
858.064	14259
858.197	14309
858.331	14142
858.464	14043
858.597	14024
858.731	14206
858.864	14187
858.997	14221
859.13	14328
859.263	14195
859.396	14256
859.529	14214
859.662	14248
859.795	14183
859.928	14225
860.061	14355
860.194	14347
860.327	14149
860.46	14161
860.592	14450
860.725	14324
860.858	14263
860.99	14278
861.123	14130
861.256	14183
861.388	14229
861.521	14910
861.653	14096
861.786	14031
861.918	14039
862.05	14142
862.183	14172
862.315	14145
862.447	14290
862.58	14130
862.712	13997
862.844	13833
862.976	14115
863.108	14031
863.24	14419
863.372	13913
863.504	14077
863.636	13970
863.768	14035
863.9	14054
864.032	13883
864.164	13978
864.296	14039
864.428	14119
864.559	14138
864.691	14126
864.823	14031
864.954	14016
865.086	13989
865.217	13894
865.349	13906
865.48	14016
865.612	14043
865.743	14126
865.875	13906
866.006	13978
866.137	14012
866.269	14001
866.4	13959
866.531	13967
866.662	13959
866.793	13925
866.924	14020
867.055	13989
867.186	14001
867.317	13959
867.448	13852
867.579	13978
867.71	13845
867.841	13940
867.972	13967
868.103	13993
868.233	14020
868.364	13944
868.495	14031
868.625	14237
868.756	14305
868.886	14111
869.017	14161
869.147	14328
869.278	14358
869.408	14206
869.539	14225
869.669	14351
869.799	14259
869.929	14278
870.06	14339
870.19	14476
870.32	14473
870.45	14579
870.58	14564
870.71	14716
870.84	14697
870.97	14693
871.1	14617
871.23	14826
871.36	14777
871.489	14724
871.619	14952
871.749	14906
871.879	14967
872.008	14807
872.138	14735
872.267	14777
872.397	14598
872.526	14568
872.656	14651
872.785	14686
872.915	14853
873.044	14910
873.173	14868
873.303	14944
873.432	14910
873.561	14967
873.69	14857
873.819	14811
873.948	14944
874.077	14864
874.206	14815
874.335	14819
874.464	14994
874.593	15154
874.722	15108
874.851	15161
874.979	15176
875.108	15287
875.237	15222
875.365	15218
875.494	15203
875.623	15287
875.751	15165
875.88	15226
876.008	15405
876.136	15416
876.265	15625
876.393	15713
876.521	15671
876.65	15660
876.778	15671
876.906	15603
877.034	15519
877.162	15538
877.29	15572
877.418	15675
877.546	15606
877.674	15671
877.802	15576
877.93	15580
878.058	15507
878.185	15618
878.313	15572
878.441	15576
878.568	15477
878.696	15526
878.824	15572
878.951	15648
879.079	15671
879.206	15804
879.333	15724
879.461	15663
879.588	15759
879.715	15785
879.842	15892
879.97	15610
880.097	15447
880.224	15431
880.351	15458
880.478	15492
880.605	15469
880.732	15401
880.859	15625
880.986	15443
881.112	15481
881.239	15439
881.366	15237
881.493	15119
881.619	15081
881.746	15188
881.872	15157
881.999	15116
882.125	15104
882.252	15188
882.378	15081
882.505	15203
882.631	15036
882.757	14845
882.883	15089
883.01	14883
883.136	14948
883.262	14773
883.388	14708
883.514	14921
883.64	14872
883.766	14838
883.892	14674
884.018	14834
884.143	14853
884.269	14933
884.395	14644
884.52	14606
884.646	14667
884.772	14693
884.897	14507
885.023	14640
885.148	14773
885.274	14750
885.399	14716
885.524	14587
885.65	14636
885.775	14678
885.9	14636
886.025	14663
886.15	14788
886.275	14556
886.4	14541
886.525	14617
886.65	14522
886.775	14560
886.9	14689
887.025	14921
887.149	14667
887.274	14492
887.399	14415
887.523	14499
887.648	14358
887.773	14317
887.897	14556
888.021	14408
888.146	14351
888.27	14571
888.395	14594
888.519	14446
888.643	14537
888.767	14617
888.891	14339
889.015	14263
889.139	14366
889.263	14233
889.387	14446
889.511	14564
889.635	14431
889.759	14381
889.883	14259
890.006	14370
890.13	14473
890.254	14240
890.377	14256
890.501	14126
890.624	14039
890.748	14218
890.871	14088
890.995	13947
891.118	13894
891.241	14024
891.364	14046
891.488	14134
891.611	14058
891.734	14031
891.857	14115
891.98	13989
892.103	14123
892.226	14054
892.349	14005
892.471	13951
892.594	13944
892.717	14001
892.839	14016
892.962	13997
893.085	14100
893.207	14123
893.33	13955
893.452	13925
893.575	14069
893.697	13982
893.819	14103
893.941	14187
894.064	14202
894.186	14012
894.308	14012
894.43	14164
894.552	14233
894.674	14126
894.796	13944
894.918	14058
895.04	14016
895.161	14187
895.283	14149
895.405	14145
895.526	14134
895.648	14183
895.769	14092
895.891	14050
896.012	14229
896.134	14271
896.255	14256
896.376	14153
896.498	14263
896.619	14107
896.74	14195
896.861	14210
896.982	14488
897.103	14674
897.224	14579
897.345	14476
897.466	14484
897.587	14377
897.708	14495
897.828	14518
897.949	14404
898.07	14347
898.19	14427
898.311	14575
898.431	14476
898.552	14545
898.672	14632
898.792	14686
898.913	14610
899.033	14579
899.153	14404
899.273	14366
899.393	14336
899.513	14366
899.633	14374
899.753	14431
899.873	14393
899.993	14545
900.113	14385
900.232	14362
900.352	14381
900.472	14343
900.591	14202
900.711	14389
900.83	14256
900.95	14351
901.069	14374
901.189	14180
901.308	14088
901.427	13951
901.546	13883
901.665	13921
901.784	14043
901.904	13845
902.023	13784
902.141	13514
902.26	13495
902.379	13651
902.498	13590
902.617	13506
902.735	13575
902.854	13540
902.973	13445
903.091	13274
903.21	13289
903.328	13209
903.446	13164
903.565	13084
903.683	13114
903.801	13050
903.919	13076
904.038	13053
904.156	12989
904.274	12970
904.392	12821
904.51	12863
904.627	12886
904.745	12932
904.863	12894
904.981	12726
905.098	12589
905.216	12570
905.334	12601
905.451	12532
905.569	12570
905.686	12574
905.803	12612
905.921	12407
906.038	12528
906.155	12445
906.272	12277
906.389	12376
906.506	12235
906.623	12239
906.74	12247
906.857	12003
906.974	12083
907.091	12266
907.208	12300
907.324	12232
907.441	12136
907.557	11882
907.674	11942
907.79	11908
907.907	11798
908.023	11961
908.139	11961
908.256	11859
908.372	11893
908.488	11859
908.604	11722
908.72	11703
908.836	11653
908.952	11695
909.068	11707
909.184	11824
909.3	11726
909.415	11710
909.531	11623
909.647	11490
909.762	11471
909.878	11520
909.993	11463
910.108	11444
910.224	11364
910.339	11493
910.454	11246
910.57	11299
910.685	11242
910.8	11402
910.915	11440
911.03	11433
911.145	11208
911.259	11178
911.374	11117
911.489	11147
911.604	11025
911.718	10976
911.833	10915
911.947	10782
912.062	10793
912.176	10896
912.291	10987
912.405	10900
912.519	11018
912.633	11159
912.748	11006
912.862	10976
912.976	10786
913.09	10759
913.204	10793
913.318	10748
913.431	10900
913.545	10854
913.659	10946
913.772	10862
913.886	10717
914	10542
914.113	10809
914.226	10820
914.34	10763
914.453	10664
914.566	10774
914.68	10618
914.793	10649
914.906	10367
915.019	10466
915.132	10329
915.245	10474
915.358	10424
915.47	10455
915.583	10432
915.696	10428
915.809	10550
915.921	10664
916.034	10466
916.146	10402
916.259	10379
916.371	10451
916.483	10512
916.595	10363
916.708	10394
916.82	10352
916.932	10386
917.044	10398
917.156	10322
917.268	10192
917.38	10211
917.491	10253
917.603	10333
917.715	10337
917.826	10394
917.938	10242
918.049	10120
918.161	10268
918.272	10394
918.384	10386
918.495	10303
918.606	10150
918.717	10097
918.828	10101
918.939	10200
919.05	10105
919.161	10120
919.272	10010
919.383	10025
919.494	10211
919.604	10344
919.715	10154
919.826	10067
919.936	10181
920.047	10192
920.157	10181
920.267	10352
920.378	10242
920.488	10143
920.598	10379
920.708	10493
920.818	10337
920.928	10337
921.038	10527
921.148	10508
921.258	10207
921.368	10150
921.477	10002
921.587	10063
921.697	9857
921.806	10086
921.916	10036
922.025	9736
922.134	9679
922.244	9705
922.353	9770
922.462	9587
922.571	9500
922.68	9424
922.789	9408
922.898	9447
923.007	9336
923.116	9424
923.224	9439
923.333	9428
923.442	9321
923.55	9294
923.659	9329
923.767	9393
923.876	9355
923.984	9393
924.092	9245
924.201	9256
924.309	9199
924.417	9294
924.525	9253
924.633	9249
924.741	10158
924.849	9077
924.956	9169
925.064	9017
925.172	9005
925.279	9001
925.387	9020
925.494	9089
925.602	9169
925.709	9116
925.816	8986
925.924	9100
926.031	9161
926.138	9074
926.245	9203
926.352	8990
926.459	9154
926.566	9195
926.673	9055
926.779	8925
926.886	8899
926.993	8868
927.099	8773
927.206	8739
927.312	8781
927.419	8842
927.525	8819
927.631	8872
927.737	8697
927.843	8697
927.95	8579
928.056	8640
928.162	8659
928.267	8697
928.373	9412
928.479	8796
928.585	8579
928.69	8640
928.796	8735
928.901	8659
929.007	8465
929.112	8594
929.218	8545
929.323	8594
929.428	8530
929.533	8663
929.638	8495
929.743	8552
929.848	8583
929.953	8522
930.058	8419
930.163	8263
930.267	8275
930.372	8442
930.477	8237
930.581	8431
930.685	8332
930.79	8195
930.894	8206
930.998	8202
931.103	8324
931.207	8077
931.311	8001
931.415	7871
931.519	7776
931.623	7780
