Data from test_V78500241_1321.txt Node
Date: Fri Mar 25 14:42:54 CST 2022
User: usil
Spectrometer: V785-0024
Trigger mode: 0
Integration Time (sec): 4.000000E-1
Scans to average: 1
Nonlinearity correction enabled: false
Boxcar width: 0
Storing dark spectrum: false
XAxis mode: Wavelengths
Number of Pixels in Spectrum: 1024
>>>>>Begin Spectral Data<<<<<
801.071	22508
801.214	22371
801.356	21998
801.499	21831
801.641	21842
801.783	21781
801.926	21823
802.068	21739
802.211	21614
802.353	21519
802.496	21348
802.638	21230
802.78	21272
802.923	21089
803.065	21131
803.208	21024
803.35	21203
803.492	21119
803.635	21241
803.777	21116
803.919	21226
804.061	21416
804.204	21169
804.346	21020
804.488	20933
804.63	21047
804.773	20925
804.915	21096
805.057	21237
805.199	20994
805.341	21154
805.483	21039
805.626	21131
805.768	20910
805.91	21001
806.052	21112
806.194	21028
806.336	21108
806.478	20994
806.62	21032
806.762	21081
806.904	21150
807.046	21580
807.188	21359
807.33	21302
807.472	21310
807.614	21332
807.756	21370
807.898	21230
808.04	21119
808.182	21218
808.324	21294
808.465	21154
808.607	21428
808.749	21557
808.891	21846
809.033	21789
809.174	21652
809.316	21553
809.458	21431
809.6	21462
809.741	21500
809.883	21633
810.025	21690
810.166	21652
810.308	21720
810.45	21511
810.591	21492
810.733	21287
810.875	21249
811.016	21157
811.158	21161
811.299	21264
811.441	21370
811.582	21264
811.724	21211
811.865	21195
812.007	21268
812.148	21230
812.29	21199
812.431	21306
812.573	21485
812.714	21530
812.855	21778
812.997	21789
813.138	21892
813.279	21732
813.421	21759
813.562	21511
813.703	21367
813.845	21401
813.986	20994
814.127	20861
814.268	20823
814.41	20762
814.551	20754
814.692	20857
814.833	20651
814.974	20629
815.115	20670
815.256	20583
815.397	20522
815.539	20731
815.68	20579
815.821	20446
815.962	20442
816.103	20507
816.244	20415
816.385	20290
816.526	20301
816.666	20008
816.807	19944
816.948	20012
817.089	20024
817.23	19909
817.371	19898
817.512	19906
817.653	19795
817.793	19852
817.934	19898
818.075	19845
818.216	19928
818.356	19837
818.497	19822
818.638	19491
818.778	19624
818.919	19601
819.06	19533
819.2	19757
819.341	19723
819.481	19731
819.622	19883
819.762	20073
819.903	20039
820.043	20008
820.184	19849
820.324	19936
820.465	19947
820.605	19868
820.746	19818
820.886	19753
821.026	19993
821.167	19753
821.307	19947
821.447	19845
821.588	19750
821.728	19559
821.868	19464
822.008	19335
822.149	19217
822.289	19202
822.429	19053
822.569	19076
822.709	19057
822.849	18856
822.99	18856
823.13	18821
823.27	18825
823.41	18566
823.55	18494
823.69	18601
823.83	18566
823.97	18490
824.11	18384
824.25	18353
824.389	18357
824.529	18475
824.669	18201
824.809	18559
824.949	18475
825.089	18475
825.228	18380
825.368	18205
825.508	18167
825.648	18178
825.787	18114
825.927	18159
826.067	18117
826.206	17973
826.346	18129
826.485	18087
826.625	18038
826.765	18205
826.904	18163
827.044	17908
827.183	17927
827.323	17882
827.462	17828
827.601	17912
827.741	17817
827.88	17802
828.02	17680
828.159	17863
828.298	17878
828.437	17855
828.577	17699
828.716	17950
828.855	17741
828.994	17566
829.134	17691
829.273	17634
829.412	17573
829.551	17532
829.69	17581
829.829	17634
829.968	17649
830.107	17668
830.246	17665
830.385	17535
830.524	17398
830.663	17296
830.802	17227
830.941	17265
831.08	17242
831.219	17303
831.357	17341
831.496	17436
831.635	17193
831.774	17102
831.913	17109
832.051	16995
832.19	17052
832.329	17010
832.467	16984
832.606	16835
832.744	16862
832.883	16957
833.022	16847
833.16	16854
833.299	16885
833.437	16965
833.576	16999
833.714	16972
833.852	16900
833.991	17037
834.129	16991
834.267	17029
834.406	16980
834.544	16995
834.682	16946
834.821	16987
834.959	17117
835.097	16968
835.235	17022
835.373	17033
835.511	17014
835.65	16892
835.788	16957
835.926	16698
836.064	16637
836.202	16721
836.34	16847
836.478	16961
836.615	16862
836.753	16946
836.891	16934
837.029	16862
837.167	16881
837.305	16793
837.443	16767
837.58	16683
837.718	16733
837.856	16774
837.993	16694
838.131	16763
838.269	16672
838.406	16519
838.544	16622
838.681	16497
838.819	16538
838.956	16211
839.094	16246
839.231	16265
839.369	16508
839.506	16603
839.643	16367
839.781	16375
839.918	16287
840.055	16287
840.193	16226
840.33	16265
840.467	16341
840.604	16356
840.742	16611
840.879	16188
841.016	16188
841.153	16265
841.29	16371
841.427	16356
841.564	16306
841.701	16329
841.838	16223
841.975	16059
842.112	16139
842.249	16002
842.385	15987
842.522	16196
842.659	15949
842.796	16002
842.933	16051
843.069	16006
843.206	16074
843.343	16109
843.479	16150
843.616	16105
843.752	15873
843.889	15880
844.025	15945
844.162	15884
844.298	15884
844.435	15854
844.571	15873
844.708	15854
844.844	16032
844.98	15998
845.117	15880
845.253	15724
845.389	15781
845.525	15831
845.661	15888
845.798	15835
845.934	15956
846.07	15804
846.206	15934
846.342	16006
846.478	15804
846.614	15500
846.75	15431
846.886	15344
847.022	15496
847.158	15454
847.294	15428
847.429	15564
847.565	15348
847.701	15576
847.837	15066
847.972	15089
848.108	15157
848.244	15310
848.379	15051
848.515	15032
848.65	14967
848.786	15001
848.921	14986
849.057	15123
849.192	15104
849.328	15135
849.463	15058
849.598	15001
849.734	15024
849.869	14944
850.004	14785
850.14	14804
850.275	14781
850.41	14686
850.545	14682
850.68	14670
850.815	14727
850.95	14712
851.085	14979
851.22	14864
851.355	14781
851.49	14689
851.625	14682
851.76	14712
851.895	14697
852.03	14663
852.165	14724
852.299	14712
852.434	14868
852.569	14876
852.703	14625
852.838	14773
852.973	14948
853.107	14849
853.242	14655
853.376	14708
853.511	14564
853.645	14549
853.78	14689
853.914	14697
854.048	14587
854.183	14575
854.317	14663
854.451	14743
854.585	14655
854.72	14549
854.854	14720
854.988	14575
855.122	14655
855.256	14484
855.39	14568
855.524	14762
855.658	14708
855.792	14678
855.926	14625
856.06	14705
856.194	14670
856.327	14655
856.461	14571
856.595	14594
856.729	14644
856.862	14750
856.996	14674
857.13	14727
857.263	14746
857.397	14849
857.53	14621
857.664	14682
857.797	14712
857.931	14674
858.064	14670
858.197	14758
858.331	14583
858.464	14556
858.597	14522
858.731	14629
858.864	14606
858.997	14571
859.13	14556
859.263	14629
859.396	14712
859.529	14629
859.662	14655
859.795	14522
859.928	14613
860.061	14830
860.194	14777
860.327	14667
860.46	14640
860.592	14720
860.725	14765
860.858	14708
860.99	14541
861.123	14495
861.256	14602
861.388	14480
861.521	15401
861.653	14560
861.786	14446
861.918	14495
862.05	14571
862.183	14537
862.315	14598
862.447	14644
862.58	14560
862.712	14412
862.844	14419
862.976	14533
863.108	14450
863.24	14918
863.372	14320
863.504	14457
863.636	14328
863.768	14511
863.9	14454
864.032	14377
864.164	14457
864.296	14431
864.428	14507
864.559	14457
864.691	14522
864.823	14446
864.954	14431
865.086	14457
865.217	14385
865.349	14347
865.48	14347
865.612	14454
865.743	14537
865.875	14457
866.006	14442
866.137	14434
866.269	14377
866.4	14381
866.531	14358
866.662	14332
866.793	14339
866.924	14457
867.055	14385
867.186	14298
867.317	14214
867.448	14343
867.579	14298
867.71	14332
867.841	14336
867.972	14450
868.103	14343
868.233	14400
868.364	14419
868.495	14495
868.625	14571
868.756	14777
868.886	14575
869.017	14518
869.147	14777
869.278	14773
869.408	14590
869.539	14640
869.669	14727
869.799	14613
869.929	14811
870.06	14811
870.19	14899
870.32	15009
870.45	14944
870.58	14998
870.71	15085
870.84	15119
870.97	14952
871.1	15123
871.23	15199
871.36	15256
871.489	15176
871.619	15131
871.749	15233
871.879	15279
872.008	15283
872.138	15207
872.267	15237
872.397	15104
872.526	15085
872.656	15036
872.785	15112
872.915	15184
873.044	15283
873.173	15279
873.303	15302
873.432	15268
873.561	15408
873.69	15230
873.819	15203
873.948	15310
874.077	15351
874.206	15237
874.335	15332
874.464	15367
874.593	15564
874.722	15557
874.851	15553
874.979	15576
875.108	15633
875.237	15610
875.365	15526
875.494	15633
875.623	15629
875.751	15519
875.88	15739
876.008	15694
876.136	15835
876.265	15922
876.393	16158
876.521	16048
876.65	15968
876.778	16048
876.906	15941
877.034	15918
877.162	16051
877.29	15930
877.418	15983
877.546	16010
877.674	16048
877.802	15903
877.93	16048
878.058	15861
878.185	15922
878.313	16025
878.441	15949
878.568	15854
878.696	15975
878.824	16086
878.951	16063
879.079	16219
879.206	16447
879.333	16211
879.461	16242
879.588	16238
879.715	16276
879.842	16436
879.97	16067
880.097	16025
880.224	15743
880.351	15895
880.478	15941
880.605	15762
880.732	15880
880.859	16120
880.986	15816
881.112	15816
881.239	15793
881.366	15656
881.493	15545
881.619	15564
881.746	15492
881.872	15500
881.999	15523
882.125	15367
882.252	15587
882.378	15557
882.505	15656
882.631	15485
882.757	15378
882.883	15469
883.01	15283
883.136	15321
883.262	15252
883.388	15154
883.514	15370
883.64	15321
883.766	15222
883.892	15157
884.018	15207
884.143	15378
884.269	15416
884.395	15108
884.52	14967
884.646	14982
884.772	15055
884.897	14842
885.023	15047
885.148	15214
885.274	15211
885.399	15169
885.524	15058
885.65	15005
885.775	15062
885.9	15104
886.025	15142
886.15	15123
886.275	14967
886.4	14887
886.525	15039
886.65	14960
886.775	14895
886.9	15184
887.025	15336
887.149	15093
887.274	14883
887.399	14857
887.523	14823
887.648	14800
887.773	14708
887.897	14895
888.021	14918
888.146	14910
888.27	14899
888.395	14887
888.519	14823
888.643	14948
888.767	14975
888.891	14735
889.015	14678
889.139	14655
889.263	14686
889.387	14804
889.511	14880
889.635	14750
889.759	14686
889.883	14682
890.006	14705
890.13	14815
890.254	14571
890.377	14629
890.501	14564
890.624	14457
890.748	14568
890.871	14476
890.995	14400
891.118	14355
891.241	14328
891.364	14431
891.488	14549
891.611	14473
891.734	14374
891.857	14556
891.98	14431
892.103	14484
892.226	14419
892.349	14339
892.471	14362
892.594	14317
892.717	14541
892.839	14343
892.962	14320
893.085	14465
893.207	14358
893.33	14294
893.452	14358
893.575	14431
893.697	14305
893.819	14522
893.941	14560
894.064	14587
894.186	14290
894.308	14351
894.43	14499
894.552	14590
894.674	14598
894.796	14404
894.918	14431
895.04	14404
895.161	14533
895.283	14465
895.405	14469
895.526	14469
895.648	14560
895.769	14545
895.891	14514
896.012	14667
896.134	14522
896.255	14613
896.376	14495
896.498	14484
896.619	14632
896.74	14617
896.861	14667
896.982	14891
897.103	15020
897.224	14842
897.345	14807
897.466	14598
897.587	14823
897.708	14925
897.828	14902
897.949	14773
898.07	14796
898.19	14823
898.311	14944
898.431	14830
898.552	14872
898.672	14963
898.792	14990
898.913	14967
899.033	14861
899.153	14769
899.273	14564
899.393	14693
899.513	14811
899.633	14735
899.753	14697
899.873	14804
899.993	14788
900.113	14644
900.232	14746
900.352	14758
900.472	14636
900.591	14632
900.711	14636
900.83	14552
900.95	14739
901.069	14689
901.189	14560
901.308	14294
901.427	14233
901.546	14309
901.665	14259
901.784	14336
901.904	14130
902.023	14107
902.141	13940
902.26	13791
902.379	13947
902.498	13837
902.617	13681
902.735	13936
902.854	13894
902.973	13719
903.091	13655
903.21	13495
903.328	13578
903.446	13476
903.565	13445
903.683	13445
903.801	13419
903.919	13388
904.038	13335
904.156	13225
904.274	13240
904.392	13194
904.51	13289
904.627	13202
904.745	13217
904.863	13270
904.981	13069
905.098	12935
905.216	12821
905.334	12954
905.451	12856
905.569	12878
905.686	12894
905.803	12882
905.921	12711
906.038	12890
906.155	12753
906.272	12578
906.389	12623
906.506	12563
906.623	12559
906.74	12475
906.857	12380
906.974	12395
907.091	12544
907.208	12684
907.324	12536
907.441	12369
907.557	12277
907.674	12270
907.79	12228
907.907	12072
908.023	12190
908.139	12163
908.256	12216
908.372	12197
908.488	12148
908.604	12026
908.72	12015
908.836	12011
908.952	11904
909.068	12007
909.184	12045
909.3	12064
909.415	11992
909.531	12019
909.647	11764
909.762	11726
909.878	11813
909.993	11771
910.108	11695
910.224	11691
910.339	11699
910.454	11726
910.57	11630
910.685	11505
910.8	11824
910.915	11878
911.03	11684
911.145	11505
911.259	11467
911.374	11452
911.489	11421
911.604	11356
911.718	11124
911.833	11201
911.947	11143
912.062	11010
912.176	11166
912.291	11220
912.405	11250
912.519	11376
912.633	11421
912.748	11288
912.862	11258
912.976	11128
913.09	11003
913.204	11018
913.318	11189
913.431	11204
913.545	11143
913.659	11197
913.772	11098
913.886	11041
914	10999
914.113	11109
914.226	11109
914.34	11105
914.453	10816
914.566	11029
914.68	10999
914.793	10900
914.906	10812
915.019	10714
915.132	10626
915.245	10729
915.358	10710
915.47	10683
915.583	10702
915.696	10736
915.809	10812
915.921	10877
916.034	10752
916.146	10687
916.259	10607
916.371	10622
916.483	10706
916.595	10615
916.708	10694
916.82	10736
916.932	10592
917.044	10611
917.156	10546
917.268	10561
917.38	10523
917.491	10512
917.603	10558
917.715	10592
917.826	10668
917.938	10573
918.049	10474
918.161	10470
918.272	10660
918.384	10679
918.495	10584
918.606	10375
918.717	10325
918.828	10459
918.939	10413
919.05	10280
919.161	10436
919.272	10173
919.383	10280
919.494	10375
919.604	10584
919.715	10417
919.826	10310
919.936	10352
920.047	10531
920.157	10394
920.267	10611
920.378	10485
920.488	10459
920.598	10653
920.708	10759
920.818	10596
920.928	10554
921.038	10748
921.148	10744
921.258	10519
921.368	10428
921.477	10219
921.587	10230
921.697	10040
921.806	10325
921.916	10147
922.025	10051
922.134	10010
922.244	9987
922.353	10044
922.462	9892
922.571	9831
922.68	9682
922.789	9553
922.898	9698
923.007	9576
923.116	9637
923.224	9717
923.333	9625
923.442	9530
923.55	9542
923.659	9530
923.767	9648
923.876	9454
923.984	9580
924.092	9447
924.201	9534
924.309	9504
924.417	9526
924.525	9397
924.633	9481
924.741	10447
924.849	9321
924.956	9519
925.064	9298
925.172	9279
925.279	9253
925.387	9321
925.494	9291
925.602	9481
925.709	9428
925.816	9226
925.924	9291
926.031	9428
926.138	9306
926.245	9351
926.352	9245
926.459	9382
926.566	9428
926.673	9226
926.779	9146
926.886	9154
926.993	9043
927.099	9032
927.206	8979
927.312	8891
927.419	9062
927.525	9089
927.631	9055
927.737	8914
927.843	8868
927.95	8781
928.056	8861
928.162	8887
928.267	8941
928.373	9557
928.479	9017
928.585	8735
928.69	8880
928.796	8914
928.901	8785
929.007	8636
929.112	8815
929.218	8823
929.323	8701
929.428	8766
929.533	8849
929.638	8648
929.743	8762
929.848	8708
929.953	8686
930.058	8621
930.163	8434
930.267	8568
930.372	8621
930.477	8423
930.581	8651
930.685	8541
930.79	8442
930.894	8442
930.998	8389
931.103	8514
931.207	8259
931.311	8225
931.415	8065
931.519	8035
931.623	7871
