Data from test_V78500241_1990.txt Node
Date: Fri Mar 25 14:47:34 CST 2022
User: usil
Spectrometer: V785-0024
Trigger mode: 0
Integration Time (sec): 4.000000E-1
Scans to average: 1
Nonlinearity correction enabled: false
Boxcar width: 0
Storing dark spectrum: false
XAxis mode: Wavelengths
Number of Pixels in Spectrum: 1024
>>>>>Begin Spectral Data<<<<<
801.071	22013
801.214	21827
801.356	21781
801.499	21679
801.641	21458
801.783	21435
801.926	21618
802.068	21443
802.211	21454
802.353	21298
802.496	21089
802.638	20967
802.78	21081
802.923	20834
803.065	20785
803.208	20705
803.35	20765
803.492	20982
803.635	20906
803.777	20864
803.919	20823
804.061	21154
804.204	20857
804.346	20830
804.488	20762
804.63	20762
804.773	20739
804.915	20762
805.057	20830
805.199	20651
805.341	20750
805.483	20963
805.626	20902
805.768	20746
805.91	20743
806.052	20800
806.194	20651
806.336	20960
806.478	20716
806.62	20575
806.762	20925
806.904	20914
807.046	21119
807.188	21020
807.33	20967
807.472	21116
807.614	21077
807.756	20944
807.898	20792
808.04	20746
808.182	20743
808.324	20792
808.465	20868
808.607	21051
808.749	21127
808.891	21218
809.033	21188
809.174	21154
809.316	21077
809.458	21165
809.6	21039
809.741	21173
809.883	21055
810.025	21256
810.166	21275
810.308	21321
810.45	21245
810.591	21112
810.733	21024
810.875	20902
811.016	20895
811.158	20731
811.299	20849
811.441	21066
811.582	20990
811.724	20906
811.865	20883
812.007	20899
812.148	20845
812.29	20834
812.431	21138
812.573	21173
812.714	21351
812.855	21359
812.997	21447
813.138	21591
813.279	21488
813.421	21298
813.562	21233
813.703	21100
813.845	21104
813.986	20735
814.127	20644
814.268	20533
814.41	20461
814.551	20366
814.692	20514
814.833	20210
814.974	20347
815.115	20328
815.256	20286
815.397	20278
815.539	20309
815.68	20119
815.821	20122
815.962	20202
816.103	20130
816.244	20008
816.385	19860
816.526	19845
816.666	19727
816.807	19567
816.948	19696
817.089	19643
817.23	19639
817.371	19563
817.512	19464
817.653	19441
817.793	19403
817.934	19514
818.075	19544
818.216	19453
818.356	19415
818.497	19350
818.638	19076
818.778	19228
818.919	19236
819.06	19168
819.2	19331
819.341	19480
819.481	19449
819.622	19430
819.762	19677
819.903	19674
820.043	19674
820.184	19476
820.324	19529
820.465	19666
820.605	19548
820.746	19537
820.886	19377
821.026	19419
821.167	19453
821.307	19571
821.447	19544
821.588	19358
821.728	19289
821.868	19107
822.008	19019
822.149	18909
822.289	18928
822.429	18741
822.569	18646
822.709	18574
822.849	18407
822.99	18410
823.13	18285
823.27	18270
823.41	18247
823.55	18129
823.69	18270
823.83	18285
823.97	18213
824.11	18125
824.25	17935
824.389	17893
824.529	18026
824.669	18026
824.809	18076
824.949	18110
825.089	18045
825.228	17980
825.368	17824
825.508	17779
825.648	17836
825.787	17836
825.927	17942
826.067	17756
826.206	17726
826.346	17897
826.485	17737
826.625	17733
826.765	17802
826.904	17977
827.044	17459
827.183	17558
827.323	17478
827.462	17573
827.601	17532
827.741	17452
827.88	17471
828.02	17463
828.159	17455
828.298	17501
828.437	17630
828.577	17478
828.716	17539
828.855	17512
828.994	17288
829.134	17273
829.273	17261
829.412	17322
829.551	17181
829.69	17086
829.829	17208
829.968	17242
830.107	17296
830.246	17231
830.385	17185
830.524	17159
830.663	17052
830.802	16885
830.941	16869
831.08	16740
831.219	16927
831.357	16999
831.496	17170
831.635	16946
831.774	16759
831.913	16793
832.051	16527
832.19	16672
832.329	16603
832.467	16607
832.606	16489
832.744	16497
832.883	16485
833.022	16516
833.16	16588
833.299	16546
833.437	16565
833.576	16546
833.714	16618
833.852	16645
833.991	16687
834.129	16683
834.267	16694
834.406	16592
834.544	16706
834.682	16630
834.821	16607
834.959	16717
835.097	16478
835.235	16729
835.373	16698
835.511	16561
835.65	16535
835.788	16508
835.926	16451
836.064	16337
836.202	16500
836.34	16531
836.478	16607
836.615	16523
836.753	16523
836.891	16596
837.029	16649
837.167	16500
837.305	16432
837.443	16363
837.58	16440
837.718	16447
837.856	16379
837.993	16329
838.131	16424
838.269	16360
838.406	16287
838.544	16325
838.681	16025
838.819	16097
838.956	15968
839.094	15846
839.231	16086
839.369	16021
839.506	16249
839.643	16131
839.781	15892
839.918	15888
840.055	15915
840.193	15994
840.33	15819
840.467	15956
840.604	16002
840.742	16257
840.879	15823
841.016	15895
841.153	15873
841.29	16059
841.427	15949
841.564	15964
841.701	15983
841.838	15956
841.975	15800
842.112	15915
842.249	15717
842.385	15686
842.522	15941
842.659	15705
842.796	15717
842.933	15675
843.069	15610
843.206	15682
843.343	15819
843.479	15724
843.616	15743
843.752	15576
843.889	15610
844.025	15595
844.162	15462
844.298	15698
844.435	15405
844.571	15507
844.708	15534
844.844	15709
844.98	15663
845.117	15564
845.253	15542
845.389	15367
845.525	15374
845.661	15367
845.798	15268
845.934	15367
846.07	15264
846.206	15477
846.342	15469
846.478	15313
846.614	15192
846.75	15085
846.886	15112
847.022	15230
847.158	15138
847.294	14998
847.429	15195
847.565	15039
847.701	15302
847.837	14910
847.972	14762
848.108	14887
848.244	14937
848.379	14788
848.515	14644
848.65	14617
848.786	14701
848.921	14708
849.057	14743
849.192	14823
849.328	14735
849.463	14613
849.598	14743
849.734	14651
849.869	14545
850.004	14575
850.14	14446
850.275	14431
850.41	14385
850.545	14431
850.68	14450
850.815	14514
850.95	14545
851.085	14629
851.22	14454
851.355	14526
851.49	14377
851.625	14351
851.76	14351
851.895	14351
852.03	14358
852.165	14362
852.299	14511
852.434	14598
852.569	14454
852.703	14446
852.838	14610
852.973	14602
853.107	14670
853.242	14480
853.376	14381
853.511	14214
853.645	14286
853.78	14351
853.914	14415
854.048	14286
854.183	14313
854.317	14332
854.451	14461
854.585	14305
854.72	14339
854.854	14400
854.988	14191
855.122	14298
855.256	14256
855.39	14332
855.524	14324
855.658	14446
855.792	14393
855.926	14271
856.06	14446
856.194	14488
856.327	14450
856.461	14309
856.595	14298
856.729	14305
856.862	14400
856.996	14358
857.13	14450
857.263	14377
857.397	14355
857.53	14412
857.664	14332
857.797	14446
857.931	14419
858.064	14366
858.197	14396
858.331	14320
858.464	14263
858.597	14339
858.731	14396
858.864	14221
858.997	14244
859.13	14301
859.263	14317
859.396	14415
859.529	14317
859.662	14271
859.795	14347
859.928	14423
860.061	14457
860.194	14423
860.327	14347
860.46	14366
860.592	14396
860.725	14495
860.858	14438
860.99	14309
861.123	14317
861.256	14256
861.388	14294
861.521	15005
861.653	14168
861.786	14210
861.918	14111
862.05	14145
862.183	14278
862.315	14320
862.447	14317
862.58	14275
862.712	14088
862.844	14031
862.976	14180
863.108	14164
863.24	14434
863.372	14035
863.504	14130
863.636	14077
863.768	14252
863.9	14145
864.032	14050
864.164	14046
864.296	14187
864.428	14244
864.559	14168
864.691	14206
864.823	14183
864.954	14176
865.086	14172
865.217	14172
865.349	14054
865.48	14149
865.612	14199
865.743	14298
865.875	14180
866.006	14221
866.137	14153
866.269	14119
866.4	14100
866.531	13993
866.662	14008
866.793	13974
866.924	14149
867.055	13989
867.186	14206
867.317	14115
867.448	14081
867.579	14081
867.71	14065
867.841	14096
867.972	14107
868.103	14100
868.233	14103
868.364	14168
868.495	14168
868.625	14370
868.756	14568
868.886	14286
869.017	14469
869.147	14488
869.278	14427
869.408	14465
869.539	14480
869.669	14381
869.799	14507
869.929	14568
870.06	14476
870.19	14579
870.32	14621
870.45	14667
870.58	14743
870.71	14861
870.84	14902
870.97	14842
871.1	14735
871.23	14948
871.36	14982
871.489	14925
871.619	14925
871.749	14963
871.879	15005
872.008	15089
872.138	15089
872.267	14952
872.397	14876
872.526	14819
872.656	14807
872.785	14899
872.915	15001
873.044	15081
873.173	14960
873.303	15097
873.432	15077
873.561	15058
873.69	15036
873.819	15001
873.948	15097
874.077	14979
874.206	15055
874.335	15001
874.464	15180
874.593	15416
874.722	15268
874.851	15397
874.979	15287
875.108	15397
875.237	15317
875.365	15329
875.494	15370
875.623	15469
875.751	15298
875.88	15401
876.008	15485
876.136	15622
876.265	15751
876.393	15972
876.521	15747
876.65	15892
876.778	15823
876.906	15770
877.034	15694
877.162	15759
877.29	15709
877.418	15751
877.546	15747
877.674	15690
877.802	15682
877.93	15804
878.058	15614
878.185	15618
878.313	15770
878.441	15709
878.568	15637
878.696	15785
878.824	15736
878.951	15770
879.079	15956
879.206	16074
879.333	15899
879.461	15888
879.588	15774
879.715	15880
879.842	16074
879.97	15930
880.097	15629
880.224	15595
880.351	15614
880.478	15625
880.605	15625
880.732	15660
880.859	15747
880.986	15625
881.112	15564
881.239	15504
881.366	15408
881.493	15363
881.619	15211
881.746	15367
881.872	15203
881.999	15275
882.125	15272
882.252	15264
882.378	15329
882.505	15367
882.631	15249
882.757	15032
882.883	15058
883.01	15097
883.136	14998
883.262	14910
883.388	14891
883.514	15020
883.64	15184
883.766	15039
883.892	14830
884.018	14853
884.143	15039
884.269	15252
884.395	14785
884.52	14762
884.646	14648
884.772	14754
884.897	14678
885.023	14720
885.148	14853
885.274	14967
885.399	14864
885.524	14811
885.65	14929
885.775	14883
885.9	14811
886.025	14952
886.15	14880
886.275	14708
886.4	14705
886.525	14743
886.65	14651
886.775	14697
886.9	14883
887.025	15032
887.149	14804
887.274	14621
887.399	14484
887.523	14594
887.648	14549
887.773	14560
887.897	14750
888.021	14530
888.146	14526
888.27	14686
888.395	14712
888.519	14716
888.643	14701
888.767	14606
888.891	14533
889.015	14526
889.139	14560
889.263	14480
889.387	14667
889.511	14667
889.635	14667
889.759	14511
889.883	14518
890.006	14499
890.13	14625
890.254	14450
890.377	14412
890.501	14252
890.624	14244
890.748	14282
890.871	14202
890.995	14119
891.118	14138
891.241	14180
891.364	14161
891.488	14126
891.611	14202
891.734	14248
891.857	14320
891.98	14103
892.103	14183
892.226	14267
892.349	14149
892.471	14062
892.594	14138
892.717	14149
892.839	14092
892.962	14183
893.085	14221
893.207	14210
893.33	14119
893.452	14016
893.575	14275
893.697	14092
893.819	14244
893.941	14396
894.064	14298
894.186	14073
894.308	14145
894.43	14225
894.552	14343
894.674	14324
894.796	14153
894.918	14218
895.04	14221
895.161	14309
895.283	14286
895.405	14248
895.526	14256
895.648	14301
895.769	14286
895.891	14275
896.012	14385
896.134	14317
896.255	14351
896.376	14301
896.498	14358
896.619	14389
896.74	14336
896.861	14427
896.982	14727
897.103	14857
897.224	14575
897.345	14503
897.466	14530
897.587	14568
897.708	14682
897.828	14579
897.949	14640
898.07	14514
898.19	14579
898.311	14705
898.431	14594
898.552	14602
898.672	14785
898.792	14758
898.913	14758
899.033	14583
899.153	14659
899.273	14465
899.393	14465
899.513	14541
899.633	14545
899.753	14640
899.873	14442
899.993	14617
900.113	14522
900.232	14602
900.352	14549
900.472	14419
900.591	14355
900.711	14400
900.83	14339
900.95	14549
901.069	14461
901.189	14393
901.308	14092
901.427	14027
901.546	14077
901.665	14225
901.784	14012
901.904	13951
902.023	13909
902.141	13731
902.26	13674
902.379	13662
902.498	13609
902.617	13529
902.735	13685
902.854	13643
902.973	13575
903.091	13354
903.21	13411
903.328	13426
903.446	13232
903.565	13206
903.683	13202
903.801	13152
903.919	13171
904.038	13228
904.156	13065
904.274	13076
904.392	12973
904.51	13031
904.627	13042
904.745	13126
904.863	12996
904.981	12886
905.098	12646
905.216	12681
905.334	12745
905.451	12722
905.569	12662
905.686	12741
905.803	12688
905.921	12464
906.038	12604
906.155	12521
906.272	12467
906.389	12486
906.506	12281
906.623	12365
906.74	12330
906.857	12243
906.974	12155
907.091	12395
907.208	12521
907.324	12346
907.441	12292
907.557	12060
907.674	12110
907.79	12053
907.907	11965
908.023	12064
908.139	12064
908.256	12038
908.372	12041
908.488	11992
908.604	11859
908.72	11771
908.836	11855
908.952	11748
909.068	11836
909.184	11897
909.3	11813
909.415	11802
909.531	11817
909.647	11573
909.762	11532
909.878	11471
909.993	11592
910.108	11585
910.224	11520
910.339	11589
910.454	11398
910.57	11459
910.685	11376
910.8	11653
910.915	11653
911.03	11452
911.145	11341
911.259	11181
911.374	11284
911.489	11193
911.604	11227
911.718	11098
911.833	11083
911.947	10885
912.062	10873
912.176	11018
912.291	11086
912.405	11037
912.519	11227
912.633	11326
912.748	11029
912.862	11140
912.976	10976
913.09	10733
913.204	10828
913.318	10911
913.431	10961
913.545	10942
913.659	10980
913.772	10885
913.886	10740
914	10778
914.113	10812
914.226	10930
914.34	10862
914.453	10763
914.566	10873
914.68	10809
914.793	10812
914.906	10588
915.019	10516
915.132	10462
915.245	10561
915.358	10584
915.47	10599
915.583	10618
915.696	10569
915.809	10691
915.921	10668
916.034	10519
916.146	10561
916.259	10459
916.371	10565
916.483	10573
916.595	10478
916.708	10493
916.82	10470
916.932	10462
917.044	10402
917.156	10367
917.268	10230
917.38	10417
917.491	10386
917.603	10398
917.715	10504
917.826	10398
917.938	10371
918.049	10280
918.161	10363
918.272	10470
918.384	10519
918.495	10443
918.606	10215
918.717	10192
918.828	10280
918.939	10284
919.05	10166
919.161	10219
919.272	10029
919.383	10120
919.494	10314
919.604	10459
919.715	10333
919.826	10185
919.936	10257
920.047	10413
920.157	10238
920.267	10474
920.378	10322
920.488	10322
920.598	10462
920.708	10542
920.818	10402
920.928	10485
921.038	10618
921.148	10618
921.258	10268
921.368	10249
921.477	10109
921.587	10177
921.697	10013
921.806	10082
921.916	9979
922.025	9842
922.134	9778
922.244	9804
922.353	9903
922.462	9717
922.571	9644
922.68	9549
922.789	9485
922.898	9549
923.007	9466
923.116	9519
923.224	9542
923.333	9428
923.442	9405
923.55	9374
923.659	9370
923.767	9447
923.876	9363
923.984	9424
924.092	9294
924.201	9321
924.309	9378
924.417	9363
924.525	9310
924.633	9291
924.741	10257
924.849	9085
924.956	9351
925.064	9119
925.172	9131
925.279	9119
925.387	9127
925.494	9119
925.602	9298
925.709	9256
925.816	9112
925.924	9192
926.031	9173
926.138	9108
926.245	9188
926.352	8986
926.459	9253
926.566	9272
926.673	9142
926.779	9036
926.886	9001
926.993	8933
927.099	8853
927.206	8842
927.312	8857
927.419	8880
927.525	8868
927.631	8933
927.737	8785
927.843	8758
927.95	8716
928.056	8731
928.162	8766
928.267	8788
928.373	9397
928.479	8731
928.585	8651
928.69	8769
928.796	8788
928.901	8663
929.007	8533
929.112	8693
929.218	8663
929.323	8632
929.428	8670
929.533	8727
929.638	8564
929.743	8602
929.848	8583
929.953	8598
930.058	8465
930.163	8271
930.267	8400
930.372	8579
930.477	8381
930.581	8568
930.685	8434
930.79	8309
930.894	8347
930.998	8290
931.103	8408
931.207	8161
931.311	8065
931.415	8043
931.519	7769
931.623	7765
