Data from test_V78500241_2030.txt Node
Date: Fri Mar 25 14:47:50 CST 2022
User: usil
Spectrometer: V785-0024
Trigger mode: 0
Integration Time (sec): 4.000000E-1
Scans to average: 1
Nonlinearity correction enabled: false
Boxcar width: 0
Storing dark spectrum: false
XAxis mode: Wavelengths
Number of Pixels in Spectrum: 1024
>>>>>Begin Spectral Data<<<<<
801.071	22040
801.214	21823
801.356	21774
801.499	21606
801.641	21561
801.783	21504
801.926	21557
802.068	21454
802.211	21351
802.353	21283
802.496	21066
802.638	20979
802.78	20880
802.923	20800
803.065	20731
803.208	20720
803.35	20804
803.492	20899
803.635	21051
803.777	20777
803.919	20838
804.061	21043
804.204	20902
804.346	20746
804.488	20659
804.63	20823
804.773	20693
804.915	20830
805.057	20762
805.199	20689
805.341	20659
805.483	20868
805.626	20750
805.768	20758
805.91	20762
806.052	20762
806.194	20667
806.336	20769
806.478	20693
806.62	20743
806.762	20800
806.904	20826
807.046	21112
807.188	21093
807.33	21017
807.472	21017
807.614	20857
807.756	20994
807.898	20872
808.04	20823
808.182	20807
808.324	20758
808.465	20899
808.607	21005
808.749	21157
808.891	21112
809.033	21195
809.174	21188
809.316	21039
809.458	20982
809.6	21154
809.741	21146
809.883	21169
810.025	21332
810.166	21176
810.308	21150
810.45	21260
810.591	21074
810.733	20921
810.875	20906
811.016	20716
811.158	20807
811.299	20975
811.441	21070
811.582	21085
811.724	20800
811.865	20971
812.007	20815
812.148	20804
812.29	20853
812.431	20979
812.573	21100
812.714	21188
812.855	21329
812.997	21447
813.138	21507
813.279	21553
813.421	21447
813.562	21275
813.703	21222
813.845	20925
813.986	20746
814.127	20648
814.268	20503
814.41	20434
814.551	20362
814.692	20575
814.833	20328
814.974	20305
815.115	20366
815.256	20343
815.397	20240
815.539	20157
815.68	20027
815.821	20081
815.962	20142
816.103	20122
816.244	20008
816.385	19947
816.526	19822
816.666	19746
816.807	19635
816.948	19567
817.089	19662
817.23	19597
817.371	19506
817.512	19559
817.653	19582
817.793	19480
817.934	19537
818.075	19594
818.216	19632
818.356	19460
818.497	19255
818.638	19327
818.778	19301
818.919	19343
819.06	19175
819.2	19400
819.341	19457
819.481	19377
819.622	19594
819.762	19780
819.903	19734
820.043	19556
820.184	19506
820.324	19556
820.465	19597
820.605	19468
820.746	19537
820.886	19388
821.026	19464
821.167	19460
821.307	19559
821.447	19499
821.588	19289
821.728	19274
821.868	19057
822.008	18962
822.149	18935
822.289	18859
822.429	18696
822.569	18532
822.709	18673
822.849	18445
822.99	18422
823.13	18388
823.27	18460
823.41	18273
823.55	18232
823.69	18270
823.83	18243
823.97	18197
824.11	17958
824.25	18011
824.389	17897
824.529	18041
824.669	17920
824.809	18125
824.949	18060
825.089	18011
825.228	18022
825.368	17840
825.508	17828
825.648	17737
825.787	17828
825.927	17752
826.067	17794
826.206	17668
826.346	17748
826.485	17805
826.625	17703
826.765	17878
826.904	17824
827.044	17657
827.183	17573
827.323	17444
827.462	17573
827.601	17566
827.741	17414
827.88	17596
828.02	17410
828.159	17421
828.298	17486
828.437	17558
828.577	17471
828.716	17592
828.855	17417
828.994	17322
829.134	17197
829.273	17353
829.412	17376
829.551	17216
829.69	17242
829.829	17341
829.968	17353
830.107	17250
830.246	17292
830.385	17147
830.524	17170
830.663	17060
830.802	16908
830.941	16847
831.08	16866
831.219	16885
831.357	16885
831.496	16991
831.635	16869
831.774	16786
831.913	16771
832.051	16729
832.19	16618
832.329	16645
832.467	16622
832.606	16436
832.744	16626
832.883	16569
833.022	16523
833.16	16565
833.299	16660
833.437	16512
833.576	16546
833.714	16691
833.852	16611
833.991	16691
834.129	16664
834.267	16596
834.406	16611
834.544	16706
834.682	16531
834.821	16554
834.959	16793
835.097	16729
835.235	16763
835.373	16558
835.511	16733
835.65	16489
835.788	16497
835.926	16405
836.064	16367
836.202	16310
836.34	16542
836.478	16729
836.615	16538
836.753	16626
836.891	16615
837.029	16489
837.167	16462
837.305	16481
837.443	16360
837.58	16390
837.718	16443
837.856	16405
837.993	16337
838.131	16390
838.269	16398
838.406	16314
838.544	16207
838.681	15998
838.819	16120
838.956	15968
839.094	15911
839.231	16006
839.369	16082
839.506	16295
839.643	16192
839.781	15930
839.918	15865
840.055	15903
840.193	15953
840.33	15884
840.467	15945
840.604	16051
840.742	16287
840.879	15762
841.016	15819
841.153	15850
841.29	16082
841.427	15903
841.564	15941
841.701	15964
841.838	15751
841.975	15857
842.112	15846
842.249	15759
842.385	15774
842.522	15892
842.659	15778
842.796	15785
842.933	15778
843.069	15656
843.206	15698
843.343	15785
843.479	15743
843.616	15671
843.752	15511
843.889	15538
844.025	15629
844.162	15515
844.298	15641
844.435	15538
844.571	15458
844.708	15485
844.844	15633
844.98	15519
845.117	15538
845.253	15405
845.389	15450
845.525	15431
845.661	15424
845.798	15340
845.934	15382
846.07	15294
846.206	15450
846.342	15382
846.478	15359
846.614	15157
846.75	15112
846.886	15005
847.022	15180
847.158	15104
847.294	15093
847.429	15070
847.565	15070
847.701	15195
847.837	14891
847.972	14750
848.108	14899
848.244	14902
848.379	14758
848.515	14819
848.65	14655
848.786	14644
848.921	14682
849.057	14864
849.192	14785
849.328	14655
849.463	14743
849.598	14674
849.734	14480
849.869	14495
850.004	14442
850.14	14473
850.275	14492
850.41	14336
850.545	14374
850.68	14332
850.815	14469
850.95	14446
851.085	14587
851.22	14621
851.355	14381
851.49	14454
851.625	14404
851.76	14469
851.895	14400
852.03	14278
852.165	14389
852.299	14473
852.434	14530
852.569	14347
852.703	14488
852.838	14503
852.973	14686
853.107	14560
853.242	14358
853.376	14244
853.511	14206
853.645	14244
853.78	14518
853.914	14366
854.048	14347
854.183	14313
854.317	14381
854.451	14514
854.585	14259
854.72	14229
854.854	14313
854.988	14100
855.122	14294
855.256	14145
855.39	14336
855.524	14282
855.658	14275
855.792	14263
855.926	14305
856.06	14374
856.194	14434
856.327	14362
856.461	14187
856.595	14237
856.729	14298
856.862	14347
856.996	14377
857.13	14336
857.263	14381
857.397	14389
857.53	14195
857.664	14351
857.797	14473
857.931	14374
858.064	14320
858.197	14518
858.331	14267
858.464	14294
858.597	14206
858.731	14267
858.864	14252
858.997	14301
859.13	14271
859.263	14259
859.396	14374
859.529	14332
859.662	14240
859.795	14244
859.928	14374
860.061	14404
860.194	14480
860.327	14328
860.46	14221
860.592	14343
860.725	14488
860.858	14427
860.99	14408
861.123	14164
861.256	14282
861.388	14442
861.521	14933
861.653	14195
861.786	14199
861.918	14187
862.05	14278
862.183	14271
862.315	14324
862.447	14385
862.58	14294
862.712	14069
862.844	14039
862.976	14050
863.108	14035
863.24	14396
863.372	13928
863.504	14168
863.636	14115
863.768	14035
863.9	14058
864.032	14039
864.164	14054
864.296	14153
864.428	14161
864.559	14149
864.691	14138
864.823	14111
864.954	14164
865.086	14069
865.217	14035
865.349	13989
865.48	14126
865.612	14130
865.743	14202
865.875	14157
866.006	14130
866.137	14111
866.269	14035
866.4	13997
866.531	14043
866.662	14024
866.793	14031
866.924	13868
867.055	14100
867.186	14058
867.317	14008
867.448	13978
867.579	14046
867.71	13925
867.841	14005
867.972	14054
868.103	14008
868.233	14008
868.364	14088
868.495	14202
868.625	14233
868.756	14400
868.886	14221
869.017	14351
869.147	14309
869.278	14347
869.408	14332
869.539	14248
869.669	14415
869.799	14374
869.929	14434
870.06	14434
870.19	14594
870.32	14659
870.45	14678
870.58	14659
870.71	14777
870.84	14788
870.97	14678
871.1	14708
871.23	14887
871.36	14944
871.489	14788
871.619	14804
871.749	14902
871.879	14944
872.008	14967
872.138	14861
872.267	14838
872.397	14849
872.526	14743
872.656	14735
872.785	14826
872.915	14895
873.044	15017
873.173	14861
873.303	15055
873.432	14880
873.561	14963
873.69	14956
873.819	15009
873.948	14986
874.077	14956
874.206	14925
874.335	14929
874.464	15233
874.593	15203
874.722	15131
874.851	15268
874.979	15397
875.108	15325
875.237	15237
875.365	15233
875.494	15207
875.623	15428
875.751	15173
875.88	15439
876.008	15374
876.136	15488
876.265	15816
876.393	15831
876.521	15831
876.65	15800
876.778	15633
876.906	15667
877.034	15671
877.162	15720
877.29	15671
877.418	15610
877.546	15751
877.674	15709
877.802	15781
877.93	15793
878.058	15694
878.185	15610
878.313	15652
878.441	15690
878.568	15587
878.696	15705
878.824	15660
878.951	15762
879.079	15819
879.206	15972
879.333	15899
879.461	15720
879.588	15785
879.715	15972
879.842	15861
879.97	15728
880.097	15622
880.224	15530
880.351	15576
880.478	15545
880.605	15530
880.732	15553
880.859	15785
880.986	15568
881.112	15622
881.239	15378
881.366	15336
881.493	15393
881.619	15116
881.746	15176
881.872	15161
881.999	15116
882.125	15161
882.252	15287
882.378	15207
882.505	15321
882.631	15199
882.757	15066
882.883	15104
883.01	15058
883.136	14948
883.262	14883
883.388	14804
883.514	15032
883.64	15070
883.766	14941
883.892	14750
884.018	14861
884.143	15017
884.269	15097
884.395	14804
884.52	14701
884.646	14811
884.772	14727
884.897	14556
885.023	14667
885.148	14834
885.274	14944
885.399	14823
885.524	14735
885.65	14682
885.775	14807
885.9	14613
886.025	14804
886.15	14872
886.275	14708
886.4	14632
886.525	14621
886.65	14651
886.775	14735
886.9	14792
887.025	14918
887.149	14746
887.274	14697
887.399	14507
887.523	14484
887.648	14412
887.773	14526
887.897	14590
888.021	14648
888.146	14442
888.27	14746
888.395	14724
888.519	14663
888.643	14541
888.767	14621
888.891	14503
889.015	14355
889.139	14571
889.263	14446
889.387	14530
889.511	14556
889.635	14583
889.759	14404
889.883	14408
890.006	14480
890.13	14514
890.254	14343
890.377	14362
890.501	14282
890.624	14180
890.748	14339
890.871	14126
890.995	14100
891.118	14123
891.241	14172
891.364	14103
891.488	14168
891.611	14050
891.734	14096
891.857	14149
891.98	14172
892.103	14263
892.226	14221
892.349	14107
892.471	13997
892.594	14065
892.717	14103
892.839	14039
892.962	14096
893.085	14218
893.207	14142
893.33	14012
893.452	13936
893.575	14157
893.697	14119
893.819	14362
893.941	14404
894.064	14229
894.186	14168
894.308	14134
894.43	14233
894.552	14320
894.674	14290
894.796	14138
894.918	14164
895.04	14054
895.161	14286
895.283	14168
895.405	14240
895.526	14309
895.648	14123
895.769	14309
895.891	14362
896.012	14298
896.134	14301
896.255	14267
896.376	14233
896.498	14263
896.619	14324
896.74	14339
896.861	14301
896.982	14617
897.103	14811
897.224	14564
897.345	14514
897.466	14522
897.587	14568
897.708	14644
897.828	14530
897.949	14518
898.07	14454
898.19	14594
898.311	14625
898.431	14636
898.552	14629
898.672	14689
898.792	14842
898.913	14693
899.033	14541
899.153	14454
899.273	14362
899.393	14434
899.513	14511
899.633	14545
899.753	14507
899.873	14400
899.993	14602
900.113	14454
900.232	14594
900.352	14522
900.472	14434
900.591	14263
900.711	14370
900.83	14328
900.95	14423
901.069	14446
901.189	14317
901.308	14123
901.427	13928
901.546	14043
901.665	14024
901.784	14031
901.904	13959
902.023	13845
902.141	13662
902.26	13578
902.379	13670
902.498	13548
902.617	13495
902.735	13639
902.854	13559
902.973	13533
903.091	13415
903.21	13274
903.328	13346
903.446	13183
903.565	13217
903.683	13236
903.801	13076
903.919	13228
904.038	13183
904.156	12981
904.274	13107
904.392	12947
904.51	12913
904.627	12913
904.745	13118
904.863	12993
904.981	12821
905.098	12684
905.216	12692
905.334	12749
905.451	12719
905.569	12578
905.686	12738
905.803	12627
905.921	12566
906.038	12574
906.155	12467
906.272	12445
906.389	12433
906.506	12334
906.623	12228
906.74	12213
906.857	12129
906.974	12216
907.091	12365
907.208	12452
907.324	12353
907.441	12197
907.557	11946
907.674	11954
907.79	11920
907.907	12034
908.023	12049
908.139	12079
908.256	11935
908.372	11931
908.488	11916
908.604	11733
908.72	11756
908.836	11805
908.952	11714
909.068	11813
909.184	11817
909.3	11733
909.415	11813
909.531	11798
909.647	11566
909.762	11573
909.878	11509
909.993	11554
910.108	11566
910.224	11467
910.339	11558
910.454	11482
910.57	11364
910.685	11360
910.8	11611
910.915	11661
911.03	11398
911.145	11307
911.259	11227
911.374	11201
911.489	11159
911.604	11204
911.718	11006
911.833	11048
911.947	10896
912.062	10908
912.176	10938
912.291	10984
912.405	10957
912.519	11197
912.633	11288
912.748	11075
912.862	11045
912.976	10911
913.09	10748
913.204	10919
913.318	10927
913.431	11010
913.545	10991
913.659	11029
913.772	10866
913.886	10831
914	10717
914.113	10862
914.226	10892
914.34	10934
914.453	10694
914.566	10919
914.68	10767
914.793	10752
914.906	10580
915.019	10569
915.132	10485
915.245	10645
915.358	10527
915.47	10550
915.583	10546
915.696	10622
915.809	10694
915.921	10725
916.034	10531
916.146	10478
916.259	10440
916.371	10599
916.483	10527
916.595	10466
916.708	10497
916.82	10440
916.932	10550
917.044	10489
917.156	10459
917.268	10329
917.38	10360
917.491	10409
917.603	10322
917.715	10470
917.826	10379
917.938	10348
918.049	10188
918.161	10390
918.272	10497
918.384	10512
918.495	10436
918.606	10295
918.717	10173
918.828	10280
918.939	10287
919.05	10200
919.161	10211
919.272	10131
919.383	10120
919.494	10318
919.604	10523
919.715	10230
919.826	10143
919.936	10192
920.047	10371
920.157	10287
920.267	10535
920.378	10253
920.488	10261
920.598	10352
920.708	10634
920.818	10470
920.928	10508
921.038	10683
921.148	10664
921.258	10265
921.368	10238
921.477	10173
921.587	10051
921.697	10013
921.806	10147
921.916	10002
922.025	9846
922.134	9865
922.244	9774
922.353	9842
922.462	9709
922.571	9705
922.68	9523
922.789	9469
922.898	9515
923.007	9435
923.116	9542
923.224	9488
923.333	9610
923.442	9287
923.55	9332
923.659	9450
923.767	9469
923.876	9363
923.984	9515
924.092	9298
924.201	9382
924.309	9405
924.417	9393
924.525	9283
924.633	9386
924.741	10276
924.849	9188
924.956	9397
925.064	9154
925.172	9104
925.279	9131
925.387	9176
925.494	9161
925.602	9245
925.709	9287
925.816	9176
925.924	9199
926.031	9272
926.138	9173
926.245	9199
926.352	9176
926.459	9184
926.566	9199
926.673	9154
926.779	9074
926.886	8982
926.993	8880
927.099	8944
927.206	8819
927.312	8769
927.419	8887
927.525	8902
927.631	8929
927.737	8861
927.843	8746
927.95	8632
928.056	8724
928.162	8697
928.267	8910
928.373	9355
928.479	8864
928.585	8667
928.69	8705
928.796	8788
928.901	8686
929.007	8629
929.112	8708
929.218	8659
929.323	8636
929.428	8552
929.533	8739
929.638	8533
929.743	8571
929.848	8663
929.953	8590
930.058	8480
930.163	8305
930.267	8408
930.372	8511
930.477	8400
930.581	8571
930.685	8446
930.79	8320
930.894	8328
930.998	8309
931.103	8419
931.207	8191
931.311	8058
931.415	7993
931.519	7833
931.623	7784
