Data from test_V78500241_2686.txt Node
Date: Fri Mar 25 14:52:25 CST 2022
User: usil
Spectrometer: V785-0024
Trigger mode: 0
Integration Time (sec): 4.000000E-1
Scans to average: 1
Nonlinearity correction enabled: false
Boxcar width: 0
Storing dark spectrum: false
XAxis mode: Wavelengths
Number of Pixels in Spectrum: 1024
>>>>>Begin Spectral Data<<<<<
801.071	22078
801.214	22006
801.356	21656
801.499	21580
801.641	21329
801.783	21332
801.926	21393
802.068	21241
802.211	21386
802.353	21066
802.496	20986
802.638	20800
802.78	20826
802.923	20716
803.065	20697
803.208	20758
803.35	20655
803.492	20712
803.635	20750
803.777	20602
803.919	20792
804.061	21100
804.204	20777
804.346	20609
804.488	20636
804.63	20693
804.773	20522
804.915	20678
805.057	20777
805.199	20514
805.341	20590
805.483	20792
805.626	20697
805.768	20381
805.91	20556
806.052	20560
806.194	20579
806.336	20613
806.478	20568
806.62	20461
806.762	20598
806.904	20785
807.046	20994
807.188	20895
807.33	20849
807.472	20960
807.614	20902
807.756	20743
807.898	20701
808.04	20659
808.182	20560
808.324	20731
808.465	20682
808.607	20895
808.749	20880
808.891	21116
809.033	21096
809.174	20979
809.316	20899
809.458	20823
809.6	20948
809.741	21036
809.883	21058
810.025	21188
810.166	21077
810.308	21135
810.45	21047
810.591	21024
810.733	20773
810.875	20727
811.016	20636
811.158	20735
811.299	20838
811.441	20807
811.582	20933
811.724	20750
811.865	20697
812.007	20693
812.148	20716
812.29	20743
812.431	20941
812.573	21028
812.714	21233
812.855	21207
812.997	21291
813.138	21504
813.279	21207
813.421	21127
813.562	21207
813.703	20902
813.845	20796
813.986	20613
814.127	20442
814.268	20355
814.41	20290
814.551	20240
814.692	20313
814.833	20206
814.974	20263
815.115	20298
815.256	20237
815.397	20187
815.539	20221
815.68	19997
815.821	19925
815.962	19993
816.103	20031
816.244	19951
816.385	19750
816.526	19620
816.666	19563
816.807	19377
816.948	19483
817.089	19483
817.23	19449
817.371	19472
817.512	19285
817.653	19403
817.793	19362
817.934	19422
818.075	19514
818.216	19400
818.356	19403
818.497	19209
818.638	19103
818.778	19042
818.919	19129
819.06	19072
819.2	19141
819.341	19282
819.481	19365
819.622	19411
819.762	19616
819.903	19578
820.043	19491
820.184	19343
820.324	19460
820.465	19384
820.605	19362
820.746	19320
820.886	19164
821.026	19331
821.167	19339
821.307	19384
821.447	19251
821.588	19232
821.728	19031
821.868	18875
822.008	18844
822.149	18791
822.289	18700
822.429	18559
822.569	18601
822.709	18467
822.849	18216
822.99	18376
823.13	18091
823.27	18369
823.41	18171
823.55	17912
823.69	18049
823.83	18178
823.97	18030
824.11	17916
824.25	17950
824.389	17817
824.529	17885
824.669	17901
824.809	17977
824.949	17920
825.089	18022
825.228	17878
825.368	17745
825.508	17676
825.648	17596
825.787	17699
825.927	17699
826.067	17676
826.206	17733
826.346	17627
826.485	17729
826.625	17589
826.765	17809
826.904	17687
827.044	17478
827.183	17463
827.323	17288
827.462	17474
827.601	17322
827.741	17326
827.88	17410
828.02	17174
828.159	17330
828.298	17330
828.437	17482
828.577	17360
828.716	17452
828.855	17417
828.994	17128
829.134	17166
829.273	17124
829.412	17147
829.551	16965
829.69	17098
829.829	17166
829.968	17322
830.107	17216
830.246	17242
830.385	17143
830.524	17094
830.663	16934
830.802	16843
830.941	16778
831.08	16786
831.219	16858
831.357	16820
831.496	16976
831.635	16801
831.774	16679
831.913	16729
832.051	16580
832.19	16645
832.329	16569
832.467	16447
832.606	16428
832.744	16402
832.883	16428
833.022	16360
833.16	16436
833.299	16497
833.437	16428
833.576	16558
833.714	16500
833.852	16413
833.991	16523
834.129	16603
834.267	16611
834.406	16611
834.544	16611
834.682	16523
834.821	16508
834.959	16740
835.097	16428
835.235	16596
835.373	16481
835.511	16565
835.65	16478
835.788	16398
835.926	16322
836.064	16265
836.202	16196
836.34	16481
836.478	16508
836.615	16447
836.753	16432
836.891	16481
837.029	16417
837.167	16405
837.305	16390
837.443	16268
837.58	16249
837.718	16325
837.856	16291
837.993	16226
838.131	16314
838.269	16112
838.406	16272
838.544	16158
838.681	15994
838.819	15945
838.956	15880
839.094	15804
839.231	15956
839.369	15911
839.506	16303
839.643	16051
839.781	15781
839.918	15823
840.055	15869
840.193	15861
840.33	15755
840.467	15880
840.604	15934
840.742	16097
840.879	15698
841.016	15766
841.153	15747
841.29	15907
841.427	15884
841.564	15823
841.701	15869
841.838	15770
841.975	15797
842.112	15694
842.249	15656
842.385	15637
842.522	15838
842.659	15728
842.796	15648
842.933	15682
843.069	15625
843.206	15663
843.343	15682
843.479	15671
843.616	15648
843.752	15462
843.889	15469
844.025	15534
844.162	15370
844.298	15580
844.435	15420
844.571	15340
844.708	15447
844.844	15618
844.98	15629
845.117	15564
845.253	15389
845.389	15317
845.525	15340
845.661	15298
845.798	15233
845.934	15363
846.07	15279
846.206	15275
846.342	15359
846.478	15275
846.614	15176
846.75	14967
846.886	14929
847.022	15146
847.158	14952
847.294	15024
847.429	15085
847.565	14910
847.701	15203
847.837	14838
847.972	14765
848.108	14861
848.244	14792
848.379	14663
848.515	14644
848.65	14560
848.786	14663
848.921	14613
849.057	14777
849.192	14762
849.328	14583
849.463	14606
849.598	14610
849.734	14461
849.869	14461
850.004	14571
850.14	14442
850.275	14419
850.41	14275
850.545	14282
850.68	14370
850.815	14454
850.95	14351
851.085	14492
851.22	14438
851.355	14423
851.49	14275
851.625	14347
851.76	14427
851.895	14237
852.03	14259
852.165	14408
852.299	14412
852.434	14412
852.569	14332
852.703	14332
852.838	14575
852.973	14533
853.107	14533
853.242	14278
853.376	14221
853.511	14187
853.645	14214
853.78	14313
853.914	14237
854.048	14134
854.183	14164
854.317	14263
854.451	14343
854.585	14271
854.72	14237
854.854	14183
854.988	14081
855.122	14225
855.256	14115
855.39	14256
855.524	14324
855.658	14278
855.792	14271
855.926	14301
856.06	14301
856.194	14370
856.327	14290
856.461	14210
856.595	14259
856.729	14240
856.862	14396
856.996	14282
857.13	14381
857.263	14339
857.397	14389
857.53	14278
857.664	14328
857.797	14275
857.931	14400
858.064	14309
858.197	14362
858.331	14248
858.464	14248
858.597	14119
858.731	14206
858.864	14237
858.997	14229
859.13	14244
859.263	14271
859.396	14377
859.529	14187
859.662	14278
859.795	14214
859.928	14252
860.061	14454
860.194	14465
860.327	14248
860.46	14263
860.592	14370
860.725	14408
860.858	14263
860.99	14324
861.123	14164
861.256	14176
861.388	14263
861.521	14918
861.653	14161
861.786	14058
861.918	14084
862.05	14161
862.183	14123
862.315	14298
862.447	14244
862.58	14206
862.712	13974
862.844	13955
862.976	14111
863.108	14111
863.24	14533
863.372	13890
863.504	14138
863.636	13959
863.768	14043
863.9	14115
864.032	13932
864.164	14005
864.296	14008
864.428	14050
864.559	14183
864.691	14183
864.823	14084
864.954	14088
865.086	14084
865.217	14046
865.349	13928
865.48	14016
865.612	14005
865.743	14187
865.875	13955
866.006	14005
866.137	14027
866.269	13978
866.4	13940
866.531	14039
866.662	13917
866.793	13875
866.924	14012
867.055	13986
867.186	14020
867.317	13917
867.448	13856
867.579	13970
867.71	13959
867.841	13970
867.972	14035
868.103	13993
868.233	13986
868.364	14046
868.495	14012
868.625	14263
868.756	14305
868.886	14191
869.017	14191
869.147	14309
869.278	14305
869.408	14309
869.539	14199
869.669	14305
869.799	14317
869.929	14434
870.06	14446
870.19	14610
870.32	14560
870.45	14583
870.58	14530
870.71	14815
870.84	14830
870.97	14659
871.1	14640
871.23	14853
871.36	14887
871.489	14678
871.619	14823
871.749	14910
871.879	14834
872.008	15001
872.138	14910
872.267	14777
872.397	14754
872.526	14674
872.656	14727
872.785	14686
872.915	14845
873.044	15028
873.173	14849
873.303	14952
873.432	14849
873.561	14937
873.69	14906
873.819	14902
873.948	14979
874.077	14990
874.206	14842
874.335	14998
874.464	15017
874.593	15249
874.722	15127
874.851	15218
874.979	15203
875.108	15192
875.237	15176
875.365	15112
875.494	15184
875.623	15275
875.751	15249
875.88	15180
876.008	15431
876.136	15340
876.265	15675
876.393	15720
876.521	15705
876.65	15778
876.778	15625
876.906	15576
877.034	15591
877.162	15644
877.29	15481
877.418	15625
877.546	15568
877.674	15698
877.802	15675
877.93	15606
878.058	15595
878.185	15485
878.313	15580
878.441	15622
878.568	15485
878.696	15599
878.824	15660
878.951	15766
879.079	15831
879.206	15945
879.333	15698
879.461	15720
879.588	15800
879.715	15823
879.842	16021
879.97	15778
880.097	15454
880.224	15408
880.351	15568
880.478	15599
880.605	15538
880.732	15511
880.859	15656
880.986	15610
881.112	15462
881.239	15462
881.366	15294
881.493	15230
881.619	15192
881.746	15173
881.872	15104
881.999	15157
882.125	15112
882.252	15150
882.378	15074
882.505	15275
882.631	15062
882.757	14933
882.883	15017
883.01	14845
883.136	14868
883.262	14826
883.388	14864
883.514	14994
883.64	15024
883.766	14933
883.892	14834
884.018	14872
884.143	14857
884.269	14979
884.395	14693
884.52	14640
884.646	14739
884.772	14640
884.897	14659
885.023	14651
885.148	14773
885.274	14834
885.399	14811
885.524	14674
885.65	14758
885.775	14743
885.9	14686
886.025	14739
886.15	14807
886.275	14613
886.4	14541
886.525	14621
886.65	14568
886.775	14663
886.9	14872
887.025	14941
887.149	14682
887.274	14571
887.399	14431
887.523	14484
887.648	14492
887.773	14347
887.897	14484
888.021	14613
888.146	14457
888.27	14526
888.395	14621
888.519	14560
888.643	14492
888.767	14552
888.891	14324
889.015	14286
889.139	14377
889.263	14298
889.387	14408
889.511	14552
889.635	14442
889.759	14381
889.883	14324
890.006	14389
890.13	14419
890.254	14313
890.377	14301
890.501	14115
890.624	14123
890.748	14271
890.871	14142
890.995	14043
891.118	13959
891.241	14111
891.364	14081
891.488	14123
891.611	14065
891.734	13974
891.857	14103
891.98	14043
892.103	14046
892.226	14081
892.349	14020
892.471	13864
892.594	14012
892.717	14069
892.839	14046
892.962	14073
893.085	14092
893.207	14145
893.33	13970
893.452	13928
893.575	14043
893.697	14024
893.819	14244
893.941	14237
894.064	14187
894.186	14107
894.308	14050
894.43	14180
894.552	14278
894.674	14225
894.796	14054
894.918	14088
895.04	14103
895.161	14248
895.283	14157
895.405	14145
895.526	14309
895.648	14210
895.769	14309
895.891	14275
896.012	14244
896.134	14218
896.255	14218
896.376	14180
896.498	14229
896.619	14282
896.74	14157
896.861	14271
896.982	14545
897.103	14743
897.224	14518
897.345	14469
897.466	14385
897.587	14412
897.708	14613
897.828	14514
897.949	14377
898.07	14358
898.19	14461
898.311	14663
898.431	14545
898.552	14670
898.672	14629
898.792	14682
898.913	14560
899.033	14381
899.153	14389
899.273	14332
899.393	14393
899.513	14465
899.633	14412
899.753	14476
899.873	14355
899.993	14400
900.113	14457
900.232	14434
900.352	14355
900.472	14336
900.591	14259
900.711	14286
900.83	14214
900.95	14381
901.069	14305
901.189	14218
901.308	14016
901.427	13906
901.546	13928
901.665	13989
901.784	13936
901.904	13845
902.023	13807
902.141	13567
902.26	13411
902.379	13601
902.498	13449
902.617	13472
902.735	13628
902.854	13453
902.973	13556
903.091	13209
903.21	13183
903.328	13225
903.446	13213
903.565	13168
903.683	13168
903.801	12993
903.919	13072
904.038	13084
904.156	12954
904.274	13000
904.392	12951
904.51	12886
904.627	12943
904.745	12947
904.863	12932
904.981	12768
905.098	12658
905.216	12650
905.334	12646
905.451	12673
905.569	12612
905.686	12665
905.803	12639
905.921	12399
906.038	12528
906.155	12414
906.272	12403
906.389	12365
906.506	12216
906.623	12182
906.74	12201
906.857	12125
906.974	12171
907.091	12201
907.208	12319
907.324	12194
907.441	12171
907.557	12076
907.674	11908
907.79	11790
907.907	11973
908.023	11992
908.139	11958
908.256	11935
908.372	11908
908.488	11927
908.604	11691
908.72	11691
908.836	11714
908.952	11714
909.068	11680
909.184	11771
909.3	11748
909.415	11779
909.531	11752
909.647	11444
909.762	11493
909.878	11509
909.993	11448
910.108	11505
910.224	11482
910.339	11471
910.454	11448
910.57	11322
910.685	11254
910.8	11493
910.915	11497
911.03	11353
911.145	11197
911.259	11246
911.374	11136
911.489	11094
911.604	11109
911.718	10889
911.833	10946
911.947	10771
912.062	10744
912.176	10885
912.291	10965
912.405	10934
912.519	11124
912.633	11246
912.748	11079
912.862	10976
912.976	10828
913.09	10645
913.204	10835
913.318	10786
913.431	10946
913.545	10919
913.659	11010
913.772	10866
913.886	10755
914	10664
914.113	10778
914.226	10797
914.34	10847
914.453	10664
914.566	10850
914.68	10615
914.793	10637
914.906	10485
915.019	10440
915.132	10421
915.245	10436
915.358	10424
915.47	10497
915.583	10546
915.696	10512
915.809	10580
915.921	10641
916.034	10432
916.146	10421
916.259	10352
916.371	10489
916.483	10428
916.595	10375
916.708	10421
916.82	10432
916.932	10356
917.044	10356
917.156	10303
917.268	10325
917.38	10276
917.491	10242
917.603	10318
917.715	10287
917.826	10337
917.938	10303
918.049	10169
918.161	10333
918.272	10402
918.384	10436
918.495	10322
918.606	10173
918.717	10173
918.828	10131
918.939	10181
919.05	10135
919.161	10215
919.272	10013
919.383	10010
919.494	10303
919.604	10398
919.715	10143
919.826	10074
919.936	10173
920.047	10272
920.157	10166
920.267	10402
920.378	10211
920.488	10242
920.598	10398
920.708	10531
920.818	10379
920.928	10386
921.038	10542
921.148	10542
921.258	10177
921.368	10169
921.477	10071
921.587	9994
921.697	9888
921.806	10010
921.916	9968
922.025	9850
922.134	9755
922.244	9789
922.353	9808
922.462	9610
922.571	9553
922.68	9359
922.789	9374
922.898	9462
923.007	9477
923.116	9485
923.224	9523
923.333	9401
923.442	9306
923.55	9283
923.659	9363
923.767	9496
923.876	9211
923.984	9332
924.092	9249
924.201	9306
924.309	9340
924.417	9302
924.525	9241
924.633	9249
924.741	10044
924.849	9043
924.956	9256
925.064	9058
925.172	9039
925.279	9024
925.387	9203
925.494	9150
925.602	9222
925.709	9150
925.816	9005
925.924	9097
926.031	9207
926.138	9081
926.245	9176
926.352	9070
926.459	9192
926.566	9146
926.673	9047
926.779	8990
926.886	8982
926.993	8906
927.099	8861
927.206	8815
927.312	8762
927.419	8899
927.525	8762
927.631	8842
927.737	8746
927.843	8705
927.95	8590
928.056	8682
928.162	8746
928.267	8754
928.373	9378
928.479	8891
928.585	8617
928.69	8705
928.796	8739
928.901	8659
929.007	8492
929.112	8613
929.218	8522
929.323	8594
929.428	8473
929.533	8632
929.638	8511
929.743	8503
929.848	8495
929.953	8507
930.058	8450
930.163	8301
930.267	8317
930.372	8469
930.477	8214
930.581	8465
930.685	8366
930.79	8267
930.894	8233
930.998	8237
931.103	8393
931.207	8016
931.311	7967
931.415	7940
931.519	7761
931.623	7742
