Data from test_V78500241_835.txt Node
Date: Fri Mar 25 14:39:31 CST 2022
User: usil
Spectrometer: V785-0024
Trigger mode: 0
Integration Time (sec): 4.000000E-1
Scans to average: 1
Nonlinearity correction enabled: false
Boxcar width: 0
Storing dark spectrum: false
XAxis mode: Wavelengths
Number of Pixels in Spectrum: 1024
>>>>>Begin Spectral Data<<<<<
801.071	25909
801.214	25909
801.356	25738
801.499	25533
801.641	25422
801.783	25434
801.926	25369
802.068	25365
802.211	25304
802.353	25095
802.496	24935
802.638	24954
802.78	24916
802.923	24920
803.065	24863
803.208	24821
803.35	24909
803.492	24954
803.635	25126
803.777	24806
803.919	24947
804.061	25263
804.204	25038
804.346	24909
804.488	24954
804.63	24901
804.773	24867
804.915	25038
805.057	25099
805.199	25046
805.341	25365
805.483	25369
805.626	25228
805.768	25324
805.91	25335
806.052	25567
806.194	25426
806.336	25723
806.478	25731
806.62	25738
806.762	25974
806.904	26313
807.046	26769
807.188	27036
807.33	27135
807.472	27705
807.614	27914
807.756	28584
807.898	29372
808.04	30095
808.182	31369
808.324	33112
808.465	34759
808.607	36901
808.749	38689
808.891	39808
809.033	39983
809.174	38708
809.316	36970
809.458	34896
809.6	32781
809.741	31145
809.883	29832
810.025	29025
810.166	28337
810.308	27857
810.45	27329
810.591	27077
810.733	26697
810.875	26275
811.016	26081
811.158	26077
811.299	26100
811.441	25997
811.582	25871
811.724	25681
811.865	25742
812.007	25502
812.148	25464
812.29	25594
812.431	25624
812.573	25734
812.714	25757
812.855	25788
812.997	25917
813.138	25959
813.279	25879
813.421	25651
813.562	25765
813.703	25537
813.845	25316
813.986	25088
814.127	24897
814.268	24707
814.41	24878
814.551	24707
814.692	24650
814.833	24547
814.974	24509
815.115	24475
815.256	24376
815.397	24479
815.539	24327
815.68	24251
815.821	24285
815.962	24197
816.103	24258
816.244	24007
816.385	23992
816.526	24003
816.666	23661
816.807	23611
816.948	23638
817.089	23703
817.23	23608
817.371	23535
817.512	23524
817.653	23551
817.793	23585
817.934	23497
818.075	23585
818.216	23383
818.356	23429
818.497	23493
818.638	23140
818.778	23284
818.919	23197
819.06	23250
819.2	23269
819.341	23372
819.481	23368
819.622	23551
819.762	23786
819.903	23729
820.043	23528
820.184	23478
820.324	23436
820.465	23623
820.605	23387
820.746	23341
820.886	23189
821.026	23254
821.167	23349
821.307	23410
821.447	23315
821.588	23204
821.728	23052
821.868	22771
822.008	22721
822.149	22843
822.289	22672
822.429	22550
822.569	22284
822.709	22329
822.849	22196
822.99	22070
823.13	22051
823.27	22105
823.41	21922
823.55	21876
823.69	21895
823.83	21842
823.97	21850
824.11	21720
824.25	21637
824.389	21808
824.529	21838
824.669	21755
824.809	21827
824.949	21793
825.089	21755
825.228	21778
825.368	21542
825.508	21526
825.648	21572
825.787	21587
825.927	21530
826.067	21485
826.206	21496
826.346	21424
826.485	21564
826.625	21408
826.765	21610
826.904	21458
827.044	21165
827.183	21230
827.323	21169
827.462	21233
827.601	21199
827.741	21188
827.88	21184
828.02	20925
828.159	21112
828.298	21154
828.437	21161
828.577	21024
828.716	21241
828.855	21070
828.994	20811
829.134	20933
829.273	20872
829.412	20724
829.551	20815
829.69	20880
829.829	20887
829.968	20952
830.107	20902
830.246	20834
830.385	20830
830.524	20727
830.663	20571
830.802	20636
830.941	20457
831.08	20282
831.219	20492
831.357	20545
831.496	20587
831.635	20404
831.774	20347
831.913	20237
832.051	20244
832.19	20183
832.329	20351
832.467	20122
832.606	20248
832.744	20214
832.883	20271
833.022	20301
833.16	20339
833.299	20473
833.437	20465
833.576	20651
833.714	20655
833.852	20834
833.991	20956
834.129	21005
834.267	20887
834.406	20796
834.544	20826
834.682	20655
834.821	20727
834.959	20842
835.097	20438
835.235	20454
835.373	20465
835.511	20377
835.65	20229
835.788	20130
835.926	19940
836.064	19982
836.202	19788
836.34	20046
836.478	20039
836.615	20046
836.753	19947
836.891	19978
837.029	20050
837.167	19989
837.305	19772
837.443	19913
837.58	19765
837.718	19845
837.856	19788
837.993	19833
838.131	19693
838.269	19635
838.406	19655
838.544	19731
838.681	19476
838.819	19392
838.956	19289
839.094	19335
839.231	19301
839.369	19453
839.506	19620
839.643	19369
839.781	19152
839.918	19145
840.055	19331
840.193	19244
840.33	19164
840.467	19251
840.604	19304
840.742	19537
840.879	18989
841.016	19145
841.153	19118
841.29	19381
841.427	19171
841.564	19316
841.701	19183
841.838	19168
841.975	19129
842.112	19179
842.249	19095
842.385	18897
842.522	19156
842.659	19118
842.796	19103
842.933	19008
843.069	18913
843.206	18993
843.343	19080
843.479	19004
843.616	19091
843.752	18814
843.889	18882
844.025	19175
844.162	18882
844.298	19122
844.435	19190
844.571	19209
844.708	19464
844.844	19856
844.98	19982
845.117	20400
845.253	20899
845.389	21861
845.525	24087
845.661	27386
845.798	31693
845.934	34938
846.07	36239
846.206	35653
846.342	32910
846.478	28641
846.614	24954
846.75	22432
846.886	20906
847.022	20229
847.158	19620
847.294	19171
847.429	18890
847.565	18825
847.701	18894
847.837	18467
847.972	18254
848.108	18262
848.244	18285
848.379	18152
848.515	18003
848.65	17961
848.786	17973
848.921	17901
849.057	17980
849.192	18003
849.328	18026
849.463	18022
849.598	17889
849.734	17832
849.869	17802
850.004	17745
850.14	17783
850.275	17627
850.41	17649
850.545	17520
850.68	17672
850.815	17661
850.95	17604
851.085	17767
851.22	17646
851.355	17627
851.49	17653
851.625	17573
851.76	17585
851.895	17459
852.03	17573
852.165	17604
852.299	17646
852.434	17672
852.569	17703
852.703	17687
852.838	17771
852.973	17828
853.107	17813
853.242	17672
853.376	17623
853.511	17433
853.645	17524
853.78	17657
853.914	17722
854.048	17687
854.183	17729
854.317	17726
854.451	17866
854.585	17653
854.72	17718
854.854	17779
854.988	17649
855.122	17646
855.256	17562
855.39	17604
855.524	17646
855.658	17657
855.792	17524
855.926	17467
856.06	17623
856.194	17604
856.327	17433
856.461	17345
856.595	17482
856.729	17353
856.862	17497
856.996	17353
857.13	17505
857.263	17501
857.397	17524
857.53	17421
857.664	17512
857.797	17402
857.931	17585
858.064	17387
858.197	17551
858.331	17387
858.464	17318
858.597	17303
858.731	17341
858.864	17322
858.997	17349
859.13	17410
859.263	17326
859.396	17379
859.529	17448
859.662	17337
859.795	17235
859.928	17360
860.061	17436
860.194	17471
860.327	17341
860.46	17345
860.592	17417
860.725	17505
860.858	17436
860.99	17353
861.123	17258
861.256	17288
861.388	17337
861.521	17863
861.653	17216
861.786	17204
861.918	17292
862.05	17280
862.183	17284
862.315	17223
862.447	17330
862.58	17288
862.712	17113
862.844	17014
862.976	17140
863.108	17079
863.24	17368
863.372	17094
863.504	17037
863.636	16976
863.768	17105
863.9	17105
864.032	16965
864.164	16965
864.296	17010
864.428	17098
864.559	17128
864.691	17193
864.823	17045
864.954	17029
865.086	17010
865.217	17102
865.349	16946
865.48	17018
865.612	17029
865.743	17064
865.875	17086
866.006	16999
866.137	17048
866.269	16946
866.4	17018
866.531	16942
866.662	16919
866.793	17003
866.924	16938
867.055	16923
867.186	16984
867.317	16904
867.448	16774
867.579	16858
867.71	16850
867.841	16923
867.972	16946
868.103	16862
868.233	16965
868.364	16843
868.495	17037
868.625	17166
868.756	17197
868.886	17166
869.017	17239
869.147	17288
869.278	17379
869.408	17261
869.539	17166
869.669	17273
869.799	17288
869.929	17185
870.06	17349
870.19	17589
870.32	17505
870.45	17577
870.58	17684
870.71	17729
870.84	17699
870.97	17627
871.1	17634
871.23	17859
871.36	17840
871.489	17741
871.619	17783
871.749	17908
871.879	17916
872.008	18034
872.138	17977
872.267	17889
872.397	17695
872.526	17699
872.656	17813
872.785	17813
872.915	18015
873.044	18125
873.173	18022
873.303	18076
873.432	18095
873.561	18106
873.69	18053
873.819	18102
873.948	18174
874.077	18072
874.206	18095
874.335	18076
874.464	18201
874.593	18479
874.722	18254
874.851	18483
874.979	18551
875.108	18604
875.237	18452
875.365	18403
875.494	18589
875.623	18601
875.751	18582
875.88	18688
876.008	18825
876.136	18913
876.265	19179
876.393	19343
876.521	19244
876.65	19369
876.778	19270
876.906	19198
877.034	19373
877.162	19339
877.29	19430
877.418	19472
877.546	19464
877.674	19639
877.802	19757
877.93	19841
878.058	19860
878.185	19951
878.313	20081
878.441	20271
878.568	20465
878.696	20849
878.824	21386
878.951	22200
879.079	23231
879.206	24513
879.333	25677
879.461	26629
879.588	27370
879.715	27439
879.842	26921
879.97	25776
880.097	24353
880.224	23105
880.351	22512
880.478	21937
880.605	21519
880.732	21386
880.859	21450
880.986	21089
881.112	21093
881.239	21013
881.366	20762
881.493	20613
881.619	20674
881.746	20613
881.872	20659
881.999	20693
882.125	20621
882.252	20727
882.378	20800
882.505	20811
882.631	20762
882.757	20518
882.883	20636
883.01	20575
883.136	20511
883.262	20389
883.388	20533
883.514	20602
883.64	20511
883.766	20552
883.892	20305
884.018	20476
884.143	20419
884.269	20606
884.395	20259
884.52	20336
884.646	20225
884.772	20290
884.897	20240
885.023	20233
885.148	20309
885.274	20404
885.399	20317
885.524	20122
885.65	20081
885.775	19845
885.9	19898
886.025	19894
886.15	19849
886.275	19586
886.4	19495
886.525	19400
886.65	19381
886.775	19392
886.9	19400
887.025	19358
887.149	19126
887.274	18985
887.399	18859
887.523	18779
887.648	18665
887.773	18608
887.897	18734
888.021	18658
888.146	18464
888.27	18711
888.395	18696
888.519	18414
888.643	18407
888.767	18509
888.891	18243
889.015	18194
889.139	18232
889.263	18171
889.387	18262
889.511	18243
889.635	18251
889.759	18060
889.883	17954
890.006	18026
890.13	18121
890.254	17843
890.377	17855
890.501	17794
890.624	17646
890.748	17783
890.871	17539
890.995	17505
891.118	17429
891.241	17547
891.364	17520
891.488	17585
891.611	17436
891.734	17459
891.857	17474
891.98	17440
892.103	17372
892.226	17330
892.349	17303
892.471	17189
892.594	17261
892.717	17303
892.839	17189
892.962	17250
893.085	17220
893.207	17170
893.33	17140
893.452	17151
893.575	17265
893.697	17124
893.819	17349
893.941	17284
894.064	17166
894.186	17041
894.308	16991
894.43	16968
894.552	17277
894.674	17132
894.796	16869
894.918	17006
895.04	16934
895.161	17124
895.283	17064
895.405	16968
895.526	17067
895.648	17022
895.769	16915
895.891	16991
896.012	16965
896.134	17136
896.255	16980
896.376	16862
896.498	17022
896.619	17033
896.74	17052
896.861	17037
896.982	17326
897.103	17414
897.224	17246
897.345	17166
897.466	17166
897.587	17197
897.708	17299
897.828	17159
897.949	17121
898.07	17033
898.19	17105
898.311	17220
898.431	17162
898.552	17227
898.672	17410
898.792	17239
898.913	17212
899.033	17155
899.153	17090
899.273	16927
899.393	16999
899.513	16995
899.633	16991
899.753	17003
899.873	16896
899.993	17079
900.113	16835
900.232	17006
900.352	16980
900.472	16869
900.591	16942
900.711	16862
900.83	16752
900.95	16934
901.069	16904
901.189	16733
901.308	16508
901.427	16398
901.546	16417
901.665	16497
901.784	16481
901.904	16314
902.023	16249
902.141	16051
902.26	15945
902.379	16025
902.498	15941
902.617	15850
902.735	15926
902.854	15857
902.973	15804
903.091	15610
903.21	15572
903.328	15580
903.446	15454
903.565	15370
903.683	15450
903.801	15321
903.919	15389
904.038	15397
904.156	15207
904.274	15218
904.392	15135
904.51	15192
904.627	15154
904.745	15081
904.863	15192
904.981	15020
905.098	14754
905.216	14853
905.334	14944
905.451	14826
905.569	14773
905.686	14838
905.803	14845
905.921	14617
906.038	14598
906.155	14629
906.272	14556
906.389	14545
906.506	14431
906.623	14400
906.74	14366
906.857	14218
906.974	14278
907.091	14499
907.208	14484
907.324	14427
907.441	14233
907.557	14096
907.674	14119
907.79	14024
907.907	13974
908.023	14077
908.139	14096
908.256	14031
908.372	14069
908.488	14008
908.604	13921
908.72	13776
908.836	13795
908.952	13856
909.068	13833
909.184	13894
909.3	13868
909.415	13921
909.531	13738
909.647	13632
909.762	13632
909.878	13578
909.993	13616
910.108	13571
910.224	13510
910.339	13480
910.454	13472
910.57	13453
910.685	13415
910.8	13700
910.915	13609
911.03	13381
911.145	13274
911.259	13255
911.374	13289
911.489	13137
911.604	13042
911.718	12993
911.833	12977
911.947	12894
912.062	12825
912.176	13027
912.291	13012
912.405	12989
912.519	13095
912.633	13107
912.748	13038
912.862	12951
912.976	12848
913.09	12760
913.204	12802
913.318	12787
913.431	12954
913.545	12875
913.659	12848
913.772	12817
913.886	12741
914	12650
914.113	12749
914.226	12837
914.34	12760
914.453	12612
914.566	12798
914.68	12646
914.793	12604
914.906	12475
915.019	12403
915.132	12292
915.245	12441
915.358	12399
915.47	12399
915.583	12391
915.696	12486
915.809	12506
915.921	12547
916.034	12464
916.146	12209
916.259	12285
916.371	12445
916.483	12395
916.595	12239
916.708	12323
916.82	12380
916.932	12239
917.044	12308
917.156	12270
917.268	12194
917.38	12281
917.491	12182
917.603	12239
917.715	12186
917.826	12285
917.938	12114
918.049	11984
918.161	12125
918.272	12273
918.384	12258
918.495	12140
918.606	12003
918.717	11950
918.828	12019
918.939	11923
919.05	11897
919.161	11908
919.272	11786
919.383	11802
919.494	12060
919.604	12159
919.715	11988
919.826	11893
919.936	11935
920.047	12019
920.157	11969
920.267	12102
920.378	11999
920.488	11946
920.598	12159
920.708	12235
920.818	12091
920.928	12159
921.038	12330
921.148	12239
921.258	11942
921.368	11904
921.477	11699
921.587	11684
921.697	11615
921.806	11752
921.916	11577
922.025	11459
922.134	11391
922.244	11322
922.353	11402
922.462	11223
922.571	11231
922.68	11121
922.789	11056
922.898	11117
923.007	11067
923.116	11102
923.224	11056
923.333	11075
923.442	10991
923.55	10904
923.659	10904
923.767	11067
923.876	10915
923.984	10999
924.092	10862
924.201	10866
924.309	10763
924.417	10904
924.525	10797
924.633	10858
924.741	11802
924.849	10653
924.956	10854
925.064	10577
925.172	10626
925.279	10584
925.387	10733
925.494	10687
925.602	10778
925.709	10733
925.816	10573
925.924	10622
926.031	10679
926.138	10599
926.245	10622
926.352	10527
926.459	10660
926.566	10740
926.673	10531
926.779	10542
926.886	10375
926.993	10314
927.099	10318
927.206	10242
927.312	10181
927.419	10325
927.525	10310
927.631	10344
927.737	10219
927.843	10124
927.95	10032
928.056	10093
928.162	10097
928.267	10196
928.373	10774
928.479	10291
928.585	10021
928.69	10101
928.796	10188
928.901	10090
929.007	9888
929.112	10128
929.218	10032
929.323	10074
929.428	9857
929.533	10074
929.638	9873
929.743	9915
929.848	10025
929.953	9915
930.058	9804
930.163	9637
930.267	9686
930.372	9903
930.477	9667
930.581	9911
930.685	9675
930.79	9580
930.894	9564
930.998	9587
931.103	9705
931.207	9386
931.311	9336
931.415	9268
931.519	9058
931.623	8998
