Data from test_V78500241_239.txt Node
Date: Fri Mar 25 14:35:23 CST 2022
User: usil
Spectrometer: V785-0024
Trigger mode: 0
Integration Time (sec): 4.000000E-1
Scans to average: 1
Nonlinearity correction enabled: false
Boxcar width: 0
Storing dark spectrum: false
XAxis mode: Wavelengths
Number of Pixels in Spectrum: 1024
>>>>>Begin Spectral Data<<<<<
801.071	27603
801.214	27572
801.356	27241
801.499	27226
801.641	26940
801.783	27108
801.926	27062
802.068	27047
802.211	26902
802.353	26720
802.496	26663
802.638	26587
802.78	26609
802.923	26461
803.065	26549
803.208	26495
803.35	26423
803.492	26594
803.635	26678
803.777	26575
803.919	26579
804.061	26990
804.204	26693
804.346	26469
804.488	26358
804.63	26552
804.773	26503
804.915	26484
805.057	26750
805.199	26541
805.341	26583
805.483	26514
805.626	26667
805.768	26556
805.91	26735
806.052	26629
806.194	26400
806.336	26800
806.478	26636
806.62	26629
806.762	26708
806.904	26815
807.046	27036
807.188	27020
807.33	26842
807.472	27013
807.614	26998
807.756	26940
807.898	26906
808.04	26845
808.182	26929
808.324	26971
808.465	26952
808.607	27203
808.749	27279
808.891	27374
809.033	27709
809.174	27443
809.316	27370
809.458	27416
809.6	27279
809.741	27298
809.883	27264
810.025	27500
810.166	27252
810.308	27412
810.45	27241
810.591	27203
810.733	27176
810.875	26963
811.016	27036
811.158	26952
811.299	27089
811.441	27043
811.582	27096
811.724	27005
811.865	27005
812.007	26899
812.148	26868
812.29	26994
812.431	27150
812.573	27252
812.714	27214
812.855	27294
812.997	27606
813.138	27660
813.279	27515
813.421	27633
813.562	27321
813.703	27207
813.845	27146
813.986	26807
814.127	26731
814.268	26530
814.41	26568
814.551	26526
814.692	26552
814.833	26495
814.974	26541
815.115	26514
815.256	26438
815.397	26396
815.539	26370
815.68	26336
815.821	26278
815.962	26278
816.103	26119
816.244	26062
816.385	26005
816.526	25993
816.666	25837
816.807	25704
816.948	25708
817.089	25818
817.23	25624
817.371	25704
817.512	25772
817.653	25666
817.793	25655
817.934	25529
818.075	25575
818.216	25776
818.356	25518
818.497	25495
818.638	25327
818.778	25422
818.919	25297
819.06	25304
819.2	25518
819.341	25529
819.481	25434
819.622	25666
819.762	25913
819.903	25868
820.043	25841
820.184	25563
820.324	25472
820.465	25674
820.605	25674
820.746	25502
820.886	25544
821.026	25666
821.167	25548
821.307	25518
821.447	25499
821.588	25441
821.728	25289
821.868	25065
822.008	25084
822.149	25008
822.289	24970
822.429	24616
822.569	24536
822.709	24505
822.849	24445
822.99	24467
823.13	24433
823.27	24410
823.41	24273
823.55	24197
823.69	24171
823.83	24201
823.97	24159
824.11	23946
824.25	24026
824.389	23931
824.529	24152
824.669	23977
824.809	24072
824.949	23965
825.089	24083
825.228	24060
825.368	23805
825.508	23843
825.648	23771
825.787	23855
825.927	23874
826.067	23604
826.206	23771
826.346	23798
826.485	23733
826.625	23764
826.765	23870
826.904	23745
827.044	23627
827.183	23482
827.323	23516
827.462	23589
827.601	23414
827.741	23440
827.88	23398
828.02	23315
828.159	23326
828.298	23452
828.437	23490
828.577	23318
828.716	23554
828.855	23360
828.994	23098
829.134	23197
829.273	23166
829.412	23060
829.551	23044
829.69	23170
829.829	23094
829.968	23132
830.107	23204
830.246	23109
830.385	23060
830.524	22949
830.663	22896
830.802	22854
830.941	22645
831.08	22687
831.219	22771
831.357	22812
831.496	22904
831.635	22679
831.774	22443
831.913	22504
832.051	22371
832.19	22462
832.329	22497
832.467	22375
832.606	22363
832.744	22284
832.883	22314
833.022	22367
833.16	22341
833.299	22379
833.437	22440
833.576	22363
833.714	22234
833.852	22421
833.991	22405
834.129	22546
834.267	22421
834.406	22344
834.544	22318
834.682	22249
834.821	22352
834.959	22493
835.097	22215
835.235	22474
835.373	22276
835.511	22242
835.65	22143
835.788	22090
835.926	22173
836.064	22010
836.202	22013
836.34	22215
836.478	22268
836.615	22109
836.753	22215
836.891	22215
837.029	22101
837.167	22025
837.305	22109
837.443	22063
837.58	21926
837.718	22074
837.856	21964
837.993	22059
838.131	22006
838.269	21915
838.406	21774
838.544	21865
838.681	21686
838.819	21675
838.956	21424
839.094	21485
839.231	21420
839.369	21519
839.506	21816
839.643	21572
839.781	21386
839.918	21431
840.055	21507
840.193	21359
840.33	21401
840.467	21401
840.604	21408
840.742	21599
840.879	21192
841.016	21275
841.153	21207
841.29	21454
841.427	21412
841.564	21245
841.701	21351
841.838	21348
841.975	21188
842.112	21233
842.249	21104
842.385	20941
842.522	21268
842.659	21104
842.796	21009
842.933	21032
843.069	21043
843.206	20960
843.343	21154
843.479	21077
843.616	20941
843.752	20864
843.889	20834
844.025	20880
844.162	20708
844.298	20872
844.435	20830
844.571	20762
844.708	20800
844.844	20876
844.98	20963
845.117	20845
845.253	20785
845.389	20727
845.525	20842
845.661	20891
845.798	20834
845.934	20990
846.07	20826
846.206	20880
846.342	20906
846.478	20845
846.614	20560
846.75	20290
846.886	20294
847.022	20286
847.158	20294
847.294	20119
847.429	20252
847.565	20343
847.701	20343
847.837	19982
847.972	19906
848.108	19986
848.244	19997
848.379	19826
848.515	19795
848.65	19776
848.786	19788
848.921	19769
849.057	19913
849.192	19814
849.328	19856
849.463	19761
849.598	19719
849.734	19734
849.869	19693
850.004	19533
850.14	19453
850.275	19518
850.41	19373
850.545	19468
850.68	19491
850.815	19381
850.95	19575
851.085	19670
851.22	19594
851.355	19449
851.49	19552
851.625	19540
851.76	19529
851.895	19358
852.03	19453
852.165	19491
852.299	19567
852.434	19609
852.569	19662
852.703	19529
852.838	19643
852.973	19651
853.107	19506
853.242	19422
853.376	19438
853.511	19293
853.645	19377
853.78	19396
853.914	19396
854.048	19255
854.183	19324
854.317	19358
854.451	19510
854.585	19126
854.72	19381
854.854	19411
854.988	19285
855.122	19365
855.256	19152
855.39	19293
855.524	19384
855.658	19411
855.792	19499
855.926	19324
856.06	19327
856.194	19480
856.327	19285
856.461	19285
856.595	19278
856.729	19327
856.862	19502
856.996	19343
857.13	19297
857.263	19441
857.397	19407
857.53	19228
857.664	19384
857.797	19354
857.931	19335
858.064	19392
858.197	19297
858.331	19282
858.464	19164
858.597	19069
858.731	19259
858.864	19137
858.997	19171
859.13	19396
859.263	19266
859.396	19396
859.529	19297
859.662	19221
859.795	19114
859.928	19217
860.061	19434
860.194	19453
860.327	19293
860.46	19198
860.592	19335
860.725	19285
860.858	19365
860.99	19346
861.123	19133
861.256	19164
861.388	19301
861.521	19902
861.653	19141
861.786	19145
861.918	19076
862.05	19247
862.183	19304
862.315	19346
862.447	19320
862.58	19335
862.712	19099
862.844	18932
862.976	19076
863.108	19099
863.24	19346
863.372	18894
863.504	19069
863.636	18901
863.768	19129
863.9	19023
864.032	18825
864.164	18905
864.296	18894
864.428	18993
864.559	19065
864.691	19114
864.823	18867
864.954	18916
865.086	18856
865.217	18856
865.349	18882
865.48	18890
865.612	18810
865.743	18928
865.875	18795
866.006	18776
866.137	18821
866.269	18867
866.4	18787
866.531	18821
866.662	18772
866.793	18779
866.924	18833
867.055	18844
867.186	18867
867.317	18711
867.448	18673
867.579	18722
867.71	18703
867.841	18738
867.972	18783
868.103	18798
868.233	18833
868.364	18817
868.495	18913
868.625	19008
868.756	19110
868.886	19061
869.017	18996
869.147	19126
869.278	19076
869.408	19053
869.539	19031
869.669	19076
869.799	19057
869.929	19171
870.06	19255
870.19	19407
870.32	19362
870.45	19282
870.58	19403
870.71	19548
870.84	19518
870.97	19430
871.1	19438
871.23	19453
871.36	19635
871.489	19552
871.619	19643
871.749	19559
871.879	19556
872.008	19731
872.138	19609
872.267	19704
872.397	19575
872.526	19533
872.656	19407
872.785	19464
872.915	19559
873.044	19738
873.173	19651
873.303	19639
873.432	19753
873.561	19750
873.69	19776
873.819	19681
873.948	19681
874.077	19734
874.206	19693
874.335	19620
874.464	19750
874.593	19906
874.722	19879
874.851	19928
874.979	20046
875.108	20005
875.237	19955
875.365	19841
875.494	19898
875.623	20103
875.751	19936
875.88	19944
876.008	20107
876.136	20176
876.265	20434
876.393	20476
876.521	20465
876.65	20465
876.778	20282
876.906	20259
877.034	20431
877.162	20320
877.29	20362
877.418	20309
877.546	20404
877.674	20278
877.802	20366
877.93	20320
878.058	20240
878.185	20142
878.313	20301
878.441	20336
878.568	20176
878.696	20355
878.824	20446
878.951	20457
879.079	20590
879.206	20697
879.333	20625
879.461	20560
879.588	20526
879.715	20705
879.842	20678
879.97	20476
880.097	20320
880.224	20210
880.351	20282
880.478	20218
880.605	20286
880.732	20275
880.859	20492
880.986	20237
881.112	20263
881.239	20103
881.366	19909
881.493	19860
881.619	19761
881.746	19742
881.872	19803
881.999	19712
882.125	19719
882.252	19814
882.378	19788
882.505	19925
882.631	19750
882.757	19491
882.883	19601
883.01	19677
883.136	19483
883.262	19510
883.388	19384
883.514	19556
883.64	19495
883.766	19468
883.892	19331
884.018	19228
884.143	19495
884.269	19552
884.395	19190
884.52	19206
884.646	19312
884.772	19198
884.897	19088
885.023	19259
885.148	19217
885.274	19445
885.399	19297
885.524	19183
885.65	19175
885.775	19304
885.9	19171
886.025	19343
886.15	19183
886.275	19126
886.4	19065
886.525	19107
886.65	19107
886.775	19141
886.9	19217
887.025	19415
887.149	19209
887.274	18993
887.399	18935
887.523	18962
887.648	18924
887.773	18810
887.897	19034
888.021	18981
888.146	18871
888.27	18916
888.395	18973
888.519	18802
888.643	18989
888.767	19126
888.891	18779
889.015	18707
889.139	18920
889.263	18745
889.387	18840
889.511	18897
889.635	18806
889.759	18783
889.883	18856
890.006	18798
890.13	18859
890.254	18570
890.377	18658
890.501	18521
890.624	18365
890.748	18483
890.871	18380
890.995	18319
891.118	18330
891.241	18384
891.364	18338
891.488	18498
891.611	18426
891.734	18357
891.857	18315
891.98	18372
892.103	18399
892.226	18323
892.349	18296
892.471	18106
892.594	18232
892.717	18334
892.839	18209
892.962	18243
893.085	18350
893.207	18205
893.33	18140
893.452	18201
893.575	18388
893.697	18136
893.819	18426
893.941	18418
894.064	18319
894.186	18159
894.308	18144
894.43	18384
894.552	18266
894.674	18388
894.796	18247
894.918	18247
895.04	18330
895.161	18391
895.283	18304
895.405	18220
895.526	18311
895.648	18327
895.769	18258
895.891	18327
896.012	18369
896.134	18407
896.255	18342
896.376	18228
896.498	18372
896.619	18429
896.74	18311
896.861	18300
896.982	18696
897.103	18688
897.224	18620
897.345	18635
897.466	18437
897.587	18551
897.708	18661
897.828	18578
897.949	18528
898.07	18311
898.19	18525
898.311	18555
898.431	18532
898.552	18551
898.672	18707
898.792	18669
898.913	18654
899.033	18525
899.153	18323
899.273	18319
899.393	18441
899.513	18399
899.633	18258
899.753	18289
899.873	18292
899.993	18372
900.113	18247
900.232	18239
900.352	18213
900.472	18323
900.591	18087
900.711	18216
900.83	18197
900.95	18228
901.069	18190
901.189	18022
901.308	17847
901.427	17786
901.546	17832
901.665	17798
901.784	17828
901.904	17722
902.023	17535
902.141	17349
902.26	17341
902.379	17296
902.498	17379
902.617	17269
902.735	17284
902.854	17128
902.973	17178
903.091	16919
903.21	16938
903.328	17006
903.446	16858
903.565	16713
903.683	16782
903.801	16736
903.919	16713
904.038	16812
904.156	16550
904.274	16527
904.392	16542
904.51	16558
904.627	16451
904.745	16607
904.863	16637
904.981	16280
905.098	16181
905.216	16154
905.334	16204
905.451	16173
905.569	16177
905.686	16230
905.803	16246
905.921	15911
906.038	16169
906.155	15895
906.272	15945
906.389	15869
906.506	15739
906.623	15739
906.74	15690
906.857	15614
906.974	15610
907.091	15808
907.208	15804
907.324	15846
907.441	15622
907.557	15504
907.674	15477
907.79	15370
907.907	15431
908.023	15496
908.139	15473
908.256	15332
908.372	15298
908.488	15294
908.604	15222
908.72	15097
908.836	15142
908.952	15150
909.068	15127
909.184	15199
909.3	15146
909.415	15093
909.531	15119
909.647	14838
909.762	14830
909.878	14834
909.993	14853
910.108	14769
910.224	14727
910.339	14743
910.454	14708
910.57	14659
910.685	14655
910.8	14800
910.915	14670
911.03	14735
911.145	14488
911.259	14434
911.374	14404
911.489	14301
911.604	14309
911.718	14180
911.833	14237
911.947	14119
912.062	14111
912.176	14202
912.291	14168
912.405	14210
912.519	14393
912.633	14355
912.748	14210
912.862	14164
912.976	14058
913.09	14012
913.204	14039
913.318	14039
913.431	14153
913.545	14005
913.659	14123
913.772	13967
913.886	13871
914	13883
914.113	13906
914.226	13997
914.34	13814
914.453	13753
914.566	13814
914.68	13799
914.793	13719
914.906	13624
915.019	13491
915.132	13525
915.245	13495
915.358	13518
915.47	13552
915.583	13533
915.696	13495
915.809	13704
915.921	13620
916.034	13464
916.146	13468
916.259	13480
916.371	13453
916.483	13403
916.595	13384
916.708	13411
916.82	13460
916.932	13381
917.044	13289
917.156	13255
917.268	13175
917.38	13285
917.491	13164
917.603	13160
917.715	13419
917.826	13266
917.938	13198
918.049	13065
918.161	13145
918.272	13301
918.384	13228
918.495	13107
918.606	13065
918.717	12932
918.828	13023
918.939	13114
919.05	12928
919.161	12909
919.272	12787
919.383	12852
919.494	12970
919.604	13160
919.715	12977
919.826	12859
919.936	12882
920.047	12993
920.157	13034
920.267	13213
920.378	12947
920.488	12886
920.598	13190
920.708	13228
920.818	13095
920.928	13099
921.038	13217
921.148	13171
921.258	12989
921.368	12829
921.477	12665
921.587	12730
921.697	12471
921.806	12776
921.916	12620
922.025	12429
922.134	12342
922.244	12304
922.353	12388
922.462	12270
922.571	12163
922.68	12098
922.789	11984
922.898	12057
923.007	12064
923.116	12041
923.224	11980
923.333	12045
923.442	11927
923.55	11805
923.659	11920
923.767	11939
923.876	11828
923.984	11939
924.092	11756
924.201	11805
924.309	11824
924.417	11733
924.525	11767
924.633	11794
924.741	12585
924.849	11528
924.956	11805
925.064	11581
925.172	11387
925.279	11482
925.387	11600
925.494	11505
925.602	11668
925.709	11577
925.816	11463
925.924	11436
926.031	11566
926.138	11444
926.245	11543
926.352	11474
926.459	11535
926.566	11600
926.673	11448
926.779	11402
926.886	11239
926.993	11155
927.099	11189
927.206	11094
927.312	11033
927.419	11197
927.525	11162
927.631	11197
927.737	11048
927.843	10961
927.95	10930
928.056	10957
928.162	11113
928.267	11003
928.373	11577
928.479	11090
928.585	10809
928.69	10991
928.796	11041
928.901	10828
929.007	10714
929.112	10915
929.218	10850
929.323	10679
929.428	10774
929.533	10961
929.638	10607
929.743	10786
929.848	10812
929.953	10698
930.058	10618
930.163	10508
930.267	10451
930.372	10653
930.477	10402
930.581	10694
930.685	10478
930.79	10398
930.894	10440
930.998	10428
931.103	10500
931.207	10036
931.311	10059
931.415	9899
931.519	9709
931.623	9842
