Data from test_V78500241_640.txt Node
Date: Fri Mar 25 14:38:10 CST 2022
User: usil
Spectrometer: V785-0024
Trigger mode: 0
Integration Time (sec): 4.000000E-1
Scans to average: 1
Nonlinearity correction enabled: false
Boxcar width: 0
Storing dark spectrum: false
XAxis mode: Wavelengths
Number of Pixels in Spectrum: 1024
>>>>>Begin Spectral Data<<<<<
801.071	27808
801.214	27861
801.356	27427
801.499	27420
801.641	27325
801.783	27294
801.926	27294
802.068	27085
802.211	26982
802.353	26925
802.496	26796
802.638	26777
802.78	26765
802.923	26667
803.065	26708
803.208	26739
803.35	26754
803.492	26796
803.635	26956
803.777	26826
803.919	26819
804.061	27108
804.204	27024
804.346	26815
804.488	26800
804.63	26956
804.773	26834
804.915	26986
805.057	27127
805.199	27089
805.341	27203
805.483	27393
805.626	27344
805.768	27408
805.91	27431
806.052	27606
806.194	27648
806.336	27926
806.478	27945
806.62	28143
806.762	28485
806.904	28809
807.046	29288
807.188	29471
807.33	29824
807.472	30315
807.614	30924
807.756	31578
807.898	32518
808.04	33793
808.182	35315
808.324	37559
808.465	40078
808.607	42612
808.749	45188
808.891	46668
809.033	46702
809.174	45218
809.316	42977
809.458	40097
809.6	37228
809.741	35094
809.883	33237
810.025	32225
810.166	31129
810.308	30574
810.45	30087
810.591	29562
810.733	29048
810.875	28630
811.016	28470
811.158	28154
811.299	28169
811.441	28162
811.582	28112
811.724	27911
811.865	27793
812.007	27720
812.148	27701
812.29	27606
812.431	27595
812.573	27701
812.714	27766
812.855	27854
812.997	27812
813.138	27983
813.279	27941
813.421	27766
813.562	27736
813.703	27511
813.845	27272
813.986	26940
814.127	26883
814.268	26575
814.41	26541
814.551	26587
814.692	26495
814.833	26431
814.974	26533
815.115	26537
815.256	26320
815.397	26317
815.539	26252
815.68	26259
815.821	26081
815.962	26157
816.103	26187
816.244	25989
816.385	25890
816.526	25746
816.666	25582
816.807	25441
816.948	25464
817.089	25525
817.23	25476
817.371	25384
817.512	25449
817.653	25426
817.793	25266
817.934	25278
818.075	25415
818.216	25441
818.356	25350
818.497	25206
818.638	24954
818.778	25012
818.919	25103
819.06	25118
819.2	25133
819.341	25278
819.481	25225
819.622	25464
819.762	25613
819.903	25422
820.043	25365
820.184	25236
820.324	25304
820.465	25362
820.605	25236
820.746	25225
820.886	25164
821.026	25160
821.167	25198
821.307	25171
821.447	25152
821.588	24977
821.728	24802
821.868	24688
822.008	24532
822.149	24566
822.289	24395
822.429	24174
822.569	24117
822.709	24121
822.849	23965
822.99	23828
823.13	23980
823.27	23821
823.41	23748
823.55	23752
823.69	23581
823.83	23646
823.97	23703
824.11	23452
824.25	23463
824.389	23455
824.529	23547
824.669	23417
824.809	23577
824.949	23501
825.089	23577
825.228	23372
825.368	23311
825.508	23212
825.648	23250
825.787	23315
825.927	23315
826.067	23162
826.206	23261
826.346	23292
826.485	23155
826.625	23204
826.765	23223
826.904	23288
827.044	22984
827.183	22847
827.323	22892
827.462	22816
827.601	22946
827.741	22828
827.88	22881
828.02	22733
828.159	22923
828.298	22854
828.437	22946
828.577	22835
828.716	23010
828.855	22862
828.994	22649
829.134	22478
829.273	22626
829.412	22451
829.551	22497
829.69	22523
829.829	22577
829.968	22691
830.107	22645
830.246	22607
830.385	22653
830.524	22615
830.663	22337
830.802	22272
830.941	22246
831.08	22120
831.219	22177
831.357	22135
831.496	22352
831.635	22128
831.774	22147
831.913	22234
832.051	21922
832.19	21960
832.329	22006
832.467	21994
832.606	21918
832.744	21915
832.883	22010
833.022	22154
833.16	22105
833.299	22249
833.437	22352
833.576	22527
833.714	22618
833.852	22710
833.991	22725
834.129	22915
834.267	23003
834.406	22896
834.544	22896
834.682	22755
834.821	22637
834.959	22580
835.097	22481
835.235	22481
835.373	22299
835.511	22238
835.65	21911
835.788	21960
835.926	21717
836.064	21568
836.202	21625
836.34	21823
836.478	21876
836.615	21671
836.753	21724
836.891	21709
837.029	21599
837.167	21633
837.305	21595
837.443	21378
837.58	21469
837.718	21526
837.856	21507
837.993	21397
838.131	21329
838.269	21416
838.406	21393
838.544	21389
838.681	21214
838.819	21047
838.956	20887
839.094	20925
839.231	21039
839.369	21108
839.506	21321
839.643	21112
839.781	20891
839.918	20777
840.055	20899
840.193	20857
840.33	20739
840.467	20906
840.604	20933
840.742	21211
840.879	20712
841.016	20708
841.153	20731
841.29	20921
841.427	20754
841.564	21017
841.701	20902
841.838	20682
841.975	20823
842.112	20773
842.249	20663
842.385	20678
842.522	20845
842.659	20678
842.796	20579
842.933	20712
843.069	20689
843.206	20583
843.343	20792
843.479	20815
843.616	20735
843.752	20568
843.889	20697
844.025	20823
844.162	20754
844.298	20918
844.435	20937
844.571	21055
844.708	21233
844.844	21732
844.98	22032
845.117	22557
845.253	23299
845.389	24909
845.525	27701
845.661	32507
845.798	38187
845.934	42547
846.07	44103
846.206	43080
846.342	39313
846.478	33534
846.614	28607
846.75	25316
846.886	23383
847.022	22379
847.158	21568
847.294	21062
847.429	20880
847.565	20583
847.701	20701
847.837	20054
847.972	19986
848.108	20027
848.244	19955
848.379	19723
848.515	19639
848.65	19624
848.786	19620
848.921	19601
849.057	19715
849.192	19666
849.328	19548
849.463	19499
849.598	19426
849.734	19518
849.869	19438
850.004	19225
850.14	19213
850.275	19343
850.41	19164
850.545	19179
850.68	19126
850.815	19190
850.95	19187
851.085	19419
851.22	19297
851.355	19263
851.49	19274
851.625	19114
851.76	19050
851.895	19160
852.03	19114
852.165	19198
852.299	19255
852.434	19400
852.569	19327
852.703	19297
852.838	19430
852.973	19354
853.107	19582
853.242	19255
853.376	19209
853.511	19053
853.645	19293
853.78	19266
853.914	19381
854.048	19316
854.183	19396
854.317	19369
854.451	19525
854.585	19266
854.72	19407
854.854	19483
854.988	19304
855.122	19244
855.256	19118
855.39	19213
855.524	19232
855.658	19221
855.792	19228
855.926	19122
856.06	19141
856.194	19175
856.327	19027
856.461	18901
856.595	18981
856.729	19046
856.862	19190
856.996	19076
857.13	19038
857.263	19152
857.397	19099
857.53	18947
857.664	18905
857.797	19099
857.931	19065
858.064	18905
858.197	19053
858.331	18935
858.464	18905
858.597	18878
858.731	18878
858.864	18909
858.997	18867
859.13	18924
859.263	18882
859.396	19012
859.529	18802
859.662	18916
859.795	18833
859.928	18783
860.061	19031
860.194	19023
860.327	18878
860.46	18852
860.592	18977
860.725	18962
860.858	19019
860.99	18867
861.123	18825
861.256	18848
861.388	18909
861.521	19559
861.653	18681
861.786	18684
861.918	18703
862.05	18791
862.183	18928
862.315	18977
862.447	18821
862.58	18802
862.712	18658
862.844	18589
862.976	18654
863.108	18563
863.24	18928
863.372	18521
863.504	18441
863.636	18536
863.768	18654
863.9	18654
864.032	18445
864.164	18513
864.296	18566
864.428	18696
864.559	18593
864.691	18627
864.823	18585
864.954	18574
865.086	18578
865.217	18471
865.349	18433
865.48	18391
865.612	18483
865.743	18566
865.875	18464
866.006	18517
866.137	18464
866.269	18407
866.4	18369
866.531	18445
866.662	18391
866.793	18437
866.924	18422
867.055	18471
867.186	18498
867.317	18365
867.448	18334
867.579	18372
867.71	18361
867.841	18399
867.972	18479
868.103	18384
868.233	18448
868.364	18334
868.495	18692
868.625	18642
868.756	18837
868.886	18616
869.017	18544
869.147	18776
869.278	18760
869.408	18764
869.539	18730
869.669	18738
869.799	18738
869.929	18821
870.06	18817
870.19	19088
870.32	19034
870.45	19031
870.58	19194
870.71	19175
870.84	19179
870.97	19152
871.1	19053
871.23	19209
871.36	19244
871.489	19343
871.619	19308
871.749	19403
871.879	19335
872.008	19525
872.138	19464
872.267	19373
872.397	19377
872.526	19244
872.656	19358
872.785	19381
872.915	19453
873.044	19575
873.173	19487
873.303	19651
873.432	19628
873.561	19689
873.69	19632
873.819	19601
873.948	19750
874.077	19693
874.206	19700
874.335	19731
874.464	19909
874.593	19936
874.722	19894
874.851	19978
874.979	20153
875.108	20164
875.237	20062
875.365	20122
875.494	20138
875.623	20324
875.751	20305
875.88	20339
876.008	20381
876.136	20556
876.265	20880
876.393	21028
876.521	21020
876.65	21058
876.778	20960
876.906	20982
877.034	21100
877.162	21032
877.29	21104
877.418	21230
877.546	21195
877.674	21348
877.802	21610
877.93	21656
878.058	21713
878.185	21831
878.313	22131
878.441	22451
878.568	22557
878.696	23162
878.824	23882
878.951	24798
879.079	26088
879.206	27755
879.333	29589
879.461	30901
879.588	31947
879.715	31818
879.842	31263
879.97	29668
880.097	27755
880.224	26503
880.351	25335
880.478	24661
880.605	24213
880.732	23927
880.859	24057
880.986	23501
881.112	23421
881.239	23231
881.366	23056
881.493	23128
881.619	22946
881.746	22946
881.872	22957
881.999	23109
882.125	23003
882.252	23151
882.378	23322
882.505	23273
882.631	23162
882.757	23060
882.883	23166
883.01	22942
883.136	23022
883.262	22828
883.388	22831
883.514	23044
883.64	22999
883.766	22790
883.892	22786
884.018	22900
884.143	22911
884.269	22953
884.395	22771
884.52	22717
884.646	22752
884.772	22561
884.897	22618
885.023	22733
885.148	22786
885.274	22736
885.399	22599
885.524	22440
885.65	22527
885.775	22280
885.9	22093
886.025	22226
886.15	21941
886.275	21873
886.4	21580
886.525	21572
886.65	21397
886.775	21477
886.9	21511
887.025	21389
887.149	21085
887.274	20842
887.399	20750
887.523	20670
887.648	20632
887.773	20476
887.897	20659
888.021	20503
888.146	20286
888.27	20484
888.395	20381
888.519	20294
888.643	20252
888.767	20317
888.891	20054
889.015	20103
889.139	19978
889.263	19883
889.387	19989
889.511	20058
889.635	19890
889.759	19784
889.883	19757
890.006	19822
890.13	19742
890.254	19597
890.377	19506
890.501	19381
890.624	19354
890.748	19365
890.871	19320
890.995	19171
891.118	19126
891.241	19072
891.364	19152
891.488	19160
891.611	19038
891.734	19141
891.857	18947
891.98	19012
892.103	18871
892.226	18973
892.349	18863
892.471	18791
892.594	18738
892.717	18878
892.839	18620
892.962	18749
893.085	18738
893.207	18639
893.33	18673
893.452	18604
893.575	18627
893.697	18635
893.819	18844
893.941	18806
894.064	18570
894.186	18483
894.308	18506
894.43	18551
894.552	18665
894.674	18570
894.796	18391
894.918	18509
895.04	18323
895.161	18403
895.283	18429
895.405	18311
895.526	18365
895.648	18342
895.769	18479
895.891	18270
896.012	18361
896.134	18426
896.255	18372
896.376	18292
896.498	18357
896.619	18338
896.74	18388
896.861	18452
896.982	18707
897.103	18810
897.224	18566
897.345	18513
897.466	18372
897.587	18620
897.708	18623
897.828	18540
897.949	18509
898.07	18304
898.19	18441
898.311	18563
898.431	18384
898.552	18433
898.672	18597
898.792	18574
898.913	18578
899.033	18532
899.153	18315
899.273	18144
899.393	18258
899.513	18418
899.633	18319
899.753	18330
899.873	18292
899.993	18254
900.113	18140
900.232	18292
900.352	18152
900.472	18102
900.591	18022
900.711	18102
900.83	18045
900.95	18174
901.069	18064
901.189	17992
901.308	17585
901.427	17745
901.546	17687
901.665	17691
901.784	17570
901.904	17497
902.023	17398
902.141	17147
902.26	17064
902.379	17231
902.498	17155
902.617	17083
902.735	17178
902.854	17109
902.973	17025
903.091	16763
903.21	16679
903.328	16740
903.446	16736
903.565	16554
903.683	16577
903.801	16516
903.919	16504
904.038	16462
904.156	16333
904.274	16390
904.392	16211
904.51	16280
904.627	16265
904.745	16421
904.863	16234
904.981	16051
905.098	15915
905.216	15869
905.334	16002
905.451	15884
905.569	15915
905.686	15922
905.803	15861
905.921	15663
906.038	15762
906.155	15724
906.272	15564
906.389	15553
906.506	15584
906.623	15450
906.74	15526
906.857	15393
906.974	15272
907.091	15519
907.208	15454
907.324	15488
907.441	15348
907.557	15180
907.674	15199
907.79	15055
907.907	15154
908.023	15218
908.139	15154
908.256	15154
908.372	14979
908.488	15093
908.604	14880
908.72	14910
908.836	14792
908.952	14826
909.068	14807
909.184	14929
909.3	14975
909.415	14872
909.531	14883
909.647	14636
909.762	14674
909.878	14533
909.993	14560
910.108	14587
910.224	14571
910.339	14663
910.454	14423
910.57	14465
910.685	14298
910.8	14568
910.915	14606
911.03	14313
911.145	14157
911.259	14172
911.374	14237
911.489	14191
911.604	14187
911.718	14012
911.833	13913
911.947	13868
912.062	13693
912.176	13974
912.291	13978
912.405	13982
912.519	14126
912.633	14100
912.748	13970
912.862	13951
912.976	13883
913.09	13689
913.204	13784
913.318	13803
913.431	13928
913.545	13909
913.659	13902
913.772	13791
913.886	13666
914	13624
914.113	13712
914.226	13731
914.34	13712
914.453	13556
914.566	13731
914.68	13556
914.793	13582
914.906	13396
915.019	13266
915.132	13266
915.245	13259
915.358	13358
915.47	13320
915.583	13274
915.696	13324
915.809	13445
915.921	13438
916.034	13308
916.146	13274
916.259	13232
916.371	13369
916.483	13327
916.595	13236
916.708	13282
916.82	13255
916.932	13198
917.044	13266
917.156	13149
917.268	13149
917.38	13187
917.491	13057
917.603	13072
917.715	13179
917.826	13099
917.938	13053
918.049	12935
918.161	13027
918.272	13118
918.384	13129
918.495	12935
918.606	12844
918.717	12745
918.828	12856
918.939	12817
919.05	12677
919.161	12707
919.272	12665
919.383	12620
919.494	12909
919.604	13000
919.715	12817
919.826	12681
919.936	12757
920.047	12840
920.157	12798
920.267	13053
920.378	12783
920.488	12867
920.598	12901
920.708	13053
920.818	12901
920.928	12882
921.038	13072
921.148	13046
921.258	12745
921.368	12608
921.477	12563
921.587	12513
921.697	12426
921.806	12506
921.916	12380
922.025	12232
922.134	12273
922.244	12247
922.353	12167
922.462	12114
922.571	11999
922.68	11942
922.789	11756
922.898	11802
923.007	11802
923.116	11889
923.224	11882
923.333	11760
923.442	11718
923.55	11646
923.659	11817
923.767	11786
923.876	11657
923.984	11714
924.092	11668
924.201	11691
924.309	11661
924.417	11585
924.525	11532
924.633	11524
924.741	12277
924.849	11414
924.956	11535
925.064	11334
925.172	11296
925.279	11258
925.387	11482
925.494	11368
925.602	11474
925.709	11417
925.816	11376
925.924	11261
926.031	11364
926.138	11216
926.245	11330
926.352	11212
926.459	11383
926.566	11387
926.673	11235
926.779	11204
926.886	11140
926.993	11003
927.099	10938
927.206	10984
927.312	11006
927.419	11018
927.525	10995
927.631	10999
927.737	10927
927.843	10797
927.95	10687
928.056	10793
928.162	10919
928.267	10805
928.373	11360
928.479	10892
928.585	10691
928.69	10820
928.796	10820
928.901	10752
929.007	10538
929.112	10656
929.218	10752
929.323	10599
929.428	10603
929.533	10717
929.638	10516
929.743	10519
929.848	10649
929.953	10607
930.058	10432
930.163	10276
930.267	10402
930.372	10417
930.477	10310
930.581	10500
930.685	10363
930.79	10253
930.894	10207
930.998	10074
931.103	10322
931.207	10002
931.311	9930
931.415	9785
931.519	9698
931.623	9633
