Data from test_V78500241_3693.txt Node
Date: Fri Mar 25 14:59:26 CST 2022
User: usil
Spectrometer: V785-0024
Trigger mode: 0
Integration Time (sec): 4.000000E-1
Scans to average: 1
Nonlinearity correction enabled: false
Boxcar width: 0
Storing dark spectrum: false
XAxis mode: Wavelengths
Number of Pixels in Spectrum: 1024
>>>>>Begin Spectral Data<<<<<
801.071	21968
801.214	21789
801.356	21568
801.499	21564
801.641	21424
801.783	21294
801.926	21340
802.068	21089
802.211	21332
802.353	20979
802.496	20914
802.638	20735
802.78	20853
802.923	20556
803.065	20587
803.208	20670
803.35	20552
803.492	20796
803.635	20773
803.777	20606
803.919	20769
804.061	20956
804.204	20697
804.346	20537
804.488	20526
804.63	20552
804.773	20503
804.915	20518
805.057	20625
805.199	20651
805.341	20526
805.483	20621
805.626	20629
805.768	20514
805.91	20575
806.052	20465
806.194	20454
806.336	20655
806.478	20446
806.62	20488
806.762	20697
806.904	20777
807.046	20967
807.188	20891
807.33	20956
807.472	20834
807.614	20902
807.756	20716
807.898	20678
808.04	20640
808.182	20492
808.324	20571
808.465	20598
808.607	20743
808.749	20956
808.891	20975
809.033	21047
809.174	20960
809.316	20853
809.458	20986
809.6	20826
809.741	20921
809.883	20948
810.025	21100
810.166	20986
810.308	21017
810.45	21112
810.591	20899
810.733	20712
810.875	20648
811.016	20621
811.158	20655
811.299	20590
811.441	20670
811.582	20636
811.724	20674
811.865	20625
812.007	20594
812.148	20488
812.29	20724
812.431	20746
812.573	20842
812.714	20895
812.855	21142
812.997	21218
813.138	21367
813.279	21226
813.421	21093
813.562	21028
813.703	20899
813.845	20880
813.986	20457
814.127	20248
814.268	20244
814.41	20073
814.551	20100
814.692	20225
814.833	20119
814.974	20065
815.115	20153
815.256	20050
815.397	20115
815.539	20008
815.68	19917
815.821	19830
815.962	19913
816.103	19868
816.244	19772
816.385	19658
816.526	19624
816.666	19533
816.807	19365
816.948	19320
817.089	19415
817.23	19445
817.371	19346
817.512	19377
817.653	19232
817.793	19095
817.934	19247
818.075	19476
818.216	19388
818.356	19190
818.497	19141
818.638	19012
818.778	18989
818.919	18890
819.06	19114
819.2	19099
819.341	19126
819.481	19175
819.622	19327
819.762	19544
819.903	19521
820.043	19278
820.184	19346
820.324	19289
820.465	19331
820.605	19171
820.746	19232
820.886	19152
821.026	19327
821.167	19217
821.307	19274
821.447	19168
821.588	19046
821.728	19080
821.868	18920
822.008	18669
822.149	18738
822.289	18650
822.429	18502
822.569	18422
822.709	18418
822.849	18133
822.99	18117
823.13	18186
823.27	18133
823.41	17958
823.55	18030
823.69	17939
823.83	17980
823.97	17950
824.11	17741
824.25	17722
824.389	17920
824.529	17828
824.669	17703
824.809	17874
824.949	17859
825.089	17771
825.228	17733
825.368	17547
825.508	17615
825.648	17634
825.787	17600
825.927	17638
826.067	17486
826.206	17554
826.346	17619
826.485	17619
826.625	17463
826.765	17535
826.904	17608
827.044	17345
827.183	17296
827.323	17254
827.462	17326
827.601	17341
827.741	17246
827.88	17220
828.02	17109
828.159	17220
828.298	17353
828.437	17220
828.577	17303
828.716	17353
828.855	17242
828.994	17098
829.134	17121
829.273	17029
829.412	17006
829.551	16927
829.69	16946
829.829	16885
829.968	17048
830.107	17052
830.246	17041
830.385	16942
830.524	16953
830.663	16790
830.802	16759
830.941	16622
831.08	16565
831.219	16630
831.357	16675
831.496	16668
831.635	16649
831.774	16455
831.913	16569
832.051	16421
832.19	16447
832.329	16531
832.467	16303
832.606	16200
832.744	16268
832.883	16242
833.022	16272
833.16	16428
833.299	16394
833.437	16500
833.576	16466
833.714	16394
833.852	16394
833.991	16402
834.129	16451
834.267	16455
834.406	16409
834.544	16405
834.682	16481
834.821	16352
834.959	16523
835.097	16390
835.235	16485
835.373	16421
835.511	16421
835.65	16234
835.788	16265
835.926	16071
836.064	16135
836.202	16185
836.34	16306
836.478	16390
836.615	16265
836.753	16382
836.891	16310
837.029	16360
837.167	16303
837.305	16207
837.443	16219
837.58	16188
837.718	16105
837.856	16162
837.993	16124
838.131	16112
838.269	16177
838.406	16059
838.544	15964
838.681	15941
838.819	15842
838.956	15789
839.094	15690
839.231	15724
839.369	15842
839.506	16112
839.643	15983
839.781	15652
839.918	15717
840.055	15781
840.193	15682
840.33	15789
840.467	15732
840.604	15766
840.742	16051
840.879	15606
841.016	15610
841.153	15682
841.29	15850
841.427	15770
841.564	15739
841.701	15720
841.838	15656
841.975	15686
842.112	15660
842.249	15576
842.385	15492
842.522	15713
842.659	15504
842.796	15481
842.933	15424
843.069	15462
843.206	15435
843.343	15625
843.479	15572
843.616	15568
843.752	15272
843.889	15264
844.025	15469
844.162	15173
844.298	15504
844.435	15268
844.571	15283
844.708	15336
844.844	15462
844.98	15458
845.117	15439
845.253	15249
845.389	15199
845.525	15226
845.661	15226
845.798	15119
845.934	15066
846.07	15104
846.206	15127
846.342	15154
846.478	15074
846.614	14948
846.75	14868
846.886	14826
847.022	15032
847.158	14914
847.294	14823
847.429	15005
847.565	14792
847.701	15138
847.837	14522
847.972	14473
848.108	14712
848.244	14708
848.379	14552
848.515	14503
848.65	14400
848.786	14518
848.921	14473
849.057	14549
849.192	14575
849.328	14644
849.463	14549
849.598	14396
849.734	14419
849.869	14343
850.004	14396
850.14	14358
850.275	14263
850.41	14123
850.545	14183
850.68	14210
850.815	14248
850.95	14343
851.085	14381
851.22	14339
851.355	14278
851.49	14290
851.625	14153
851.76	14256
851.895	14138
852.03	14157
852.165	14199
852.299	14313
852.434	14336
852.569	14290
852.703	14263
852.838	14237
852.973	14362
853.107	14320
853.242	14206
853.376	14130
853.511	13936
853.645	14107
853.78	14320
853.914	14126
854.048	14149
854.183	14161
854.317	14202
854.451	14229
854.585	14058
854.72	14149
854.854	14100
854.988	14206
855.122	14092
855.256	14046
855.39	14100
855.524	14248
855.658	14157
855.792	14202
855.926	14233
856.06	14221
856.194	14256
856.327	14088
856.461	14077
856.595	14206
856.729	14187
856.862	14168
856.996	14206
857.13	14240
857.263	14218
857.397	14294
857.53	14088
857.664	14187
857.797	14271
857.931	14313
858.064	14180
858.197	14313
858.331	14164
858.464	14153
858.597	14092
858.731	14084
858.864	14145
858.997	14145
859.13	14142
859.263	14145
859.396	14218
859.529	14103
859.662	14081
859.795	14096
859.928	14084
860.061	14233
860.194	14351
860.327	14138
860.46	14183
860.592	14278
860.725	14286
860.858	14271
860.99	14180
861.123	13986
861.256	14077
861.388	14202
861.521	14804
861.653	14103
861.786	13993
861.918	13925
862.05	14031
862.183	14062
862.315	14157
862.447	14069
862.58	14069
862.712	13963
862.844	13902
862.976	13967
863.108	13932
863.24	14454
863.372	13883
863.504	13906
863.636	13818
863.768	13921
863.9	13921
864.032	13849
864.164	13928
864.296	13887
864.428	13989
864.559	14031
864.691	13997
864.823	14024
864.954	13890
865.086	13978
865.217	13940
865.349	13795
865.48	13925
865.612	13875
865.743	14058
865.875	13974
866.006	13841
866.137	13883
866.269	13940
866.4	13944
866.531	13925
866.662	13799
866.793	13887
866.924	13856
867.055	13879
867.186	13921
867.317	13906
867.448	13780
867.579	13887
867.71	13906
867.841	13856
867.972	13936
868.103	13894
868.233	13917
868.364	13902
868.495	14046
868.625	14164
868.756	14324
868.886	14161
869.017	14096
869.147	14202
869.278	14240
869.408	14187
869.539	14195
869.669	14134
869.799	14187
869.929	14294
870.06	14278
870.19	14526
870.32	14476
870.45	14526
870.58	14610
870.71	14594
870.84	14724
870.97	14492
871.1	14549
871.23	14727
871.36	14758
871.489	14663
871.619	14686
871.749	14769
871.879	14716
872.008	14861
872.138	14769
872.267	14621
872.397	14617
872.526	14507
872.656	14564
872.785	14602
872.915	14743
873.044	14914
873.173	14781
873.303	14868
873.432	14826
873.561	14906
873.69	14861
873.819	14861
873.948	14781
874.077	14876
874.206	14811
874.335	14788
874.464	14906
874.593	15100
874.722	15074
874.851	15142
874.979	15154
875.108	15207
875.237	15055
875.365	15032
875.494	15116
875.623	15203
875.751	15055
875.88	15188
876.008	15226
876.136	15443
876.265	15625
876.393	15663
876.521	15549
876.65	15561
876.778	15584
876.906	15481
877.034	15538
877.162	15530
877.29	15504
877.418	15431
877.546	15530
877.674	15485
877.802	15504
877.93	15519
878.058	15545
878.185	15397
878.313	15564
878.441	15538
878.568	15469
878.696	15614
878.824	15606
878.951	15576
879.079	15720
879.206	15842
879.333	15785
879.461	15545
879.588	15622
879.715	15747
879.842	15850
879.97	15606
880.097	15412
880.224	15488
880.351	15454
880.478	15416
880.605	15386
880.732	15454
880.859	15671
880.986	15458
881.112	15462
881.239	15317
881.366	15188
881.493	15055
881.619	15112
881.746	15036
881.872	15062
881.999	15093
882.125	15074
882.252	15066
882.378	15047
882.505	15230
882.631	14941
882.757	14925
882.883	14937
883.01	14925
883.136	14838
883.262	14739
883.388	14864
883.514	14899
883.64	14899
883.766	14845
883.892	14648
884.018	14693
884.143	14876
884.269	14986
884.395	14602
884.52	14625
884.646	14556
884.772	14583
884.897	14473
885.023	14644
885.148	14636
885.274	14739
885.399	14678
885.524	14598
885.65	14473
885.775	14587
885.9	14507
886.025	14693
886.15	14594
886.275	14560
886.4	14415
886.525	14697
886.65	14579
886.775	14415
886.9	14720
887.025	14807
887.149	14571
887.274	14522
887.399	14385
887.523	14324
887.648	14351
887.773	14343
887.897	14438
888.021	14404
888.146	14396
888.27	14442
888.395	14530
888.519	14530
888.643	14503
888.767	14434
888.891	14362
889.015	14271
889.139	14309
889.263	14267
889.387	14351
889.511	14476
889.635	14305
889.759	14351
889.883	14210
890.006	14347
890.13	14434
890.254	14191
890.377	14225
890.501	14062
890.624	14054
890.748	14111
890.871	14107
890.995	13856
891.118	13890
891.241	14039
891.364	14008
891.488	14027
891.611	13944
891.734	13974
891.857	14050
891.98	13925
892.103	14058
892.226	14069
892.349	13963
892.471	13860
892.594	13989
892.717	14065
892.839	13963
892.962	14020
893.085	14058
893.207	13925
893.33	13913
893.452	13830
893.575	14111
893.697	13955
893.819	14149
893.941	14145
894.064	14164
894.186	13989
894.308	13909
894.43	14103
894.552	14305
894.674	14123
894.796	13989
894.918	13974
895.04	14081
895.161	14134
895.283	14149
895.405	13963
895.526	14024
895.648	14134
895.769	14164
895.891	14176
896.012	14180
896.134	14145
896.255	14081
896.376	14024
896.498	14176
896.619	14214
896.74	14180
896.861	14103
896.982	14442
897.103	14568
897.224	14454
897.345	14446
897.466	14313
897.587	14309
897.708	14522
897.828	14484
897.949	14461
898.07	14214
898.19	14328
898.311	14640
898.431	14465
898.552	14446
898.672	14674
898.792	14659
898.913	14533
899.033	14465
899.153	14366
899.273	14275
899.393	14309
899.513	14385
899.633	14339
899.753	14393
899.873	14381
899.993	14412
900.113	14355
900.232	14412
900.352	14358
900.472	14202
900.591	14161
900.711	14218
900.83	14206
900.95	14282
901.069	14366
901.189	14107
901.308	13959
901.427	13868
901.546	13921
901.665	13913
901.784	13940
901.904	13708
902.023	13681
902.141	13499
902.26	13445
902.379	13510
902.498	13460
902.617	13381
902.735	13403
902.854	13388
902.973	13403
903.091	13190
903.21	13240
903.328	13240
903.446	13015
903.565	12962
903.683	13057
903.801	12894
903.919	13015
904.038	12970
904.156	12954
904.274	12894
904.392	12916
904.51	12837
904.627	12795
904.745	12856
904.863	12875
904.981	12696
905.098	12540
905.216	12540
905.334	12502
905.451	12559
905.569	12486
905.686	12623
905.803	12597
905.921	12426
906.038	12426
906.155	12414
906.272	12304
906.389	12289
906.506	12178
906.623	12232
906.74	12117
906.857	12003
906.974	12038
907.091	12251
907.208	12327
907.324	12125
907.441	12079
907.557	11878
907.674	11908
907.79	11760
907.907	11859
908.023	11946
908.139	11863
908.256	11828
908.372	11809
908.488	11764
908.604	11672
908.72	11699
908.836	11710
908.952	11627
909.068	11699
909.184	11714
909.3	11653
909.415	11798
909.531	11710
909.647	11474
909.762	11425
909.878	11402
909.993	11444
910.108	11391
910.224	11440
910.339	11421
910.454	11337
910.57	11296
910.685	11235
910.8	11455
910.915	11486
911.03	11299
911.145	11147
911.259	11086
911.374	11170
911.489	11056
911.604	10911
911.718	10900
911.833	10896
911.947	10706
912.062	10656
912.176	10866
912.291	10946
912.405	10854
912.519	11010
912.633	11121
912.748	10957
912.862	10911
912.976	10790
913.09	10630
913.204	10721
913.318	10778
913.431	10862
913.545	10828
913.659	10938
913.772	10801
913.886	10577
914	10721
914.113	10755
914.226	10774
914.34	10698
914.453	10462
914.566	10714
914.68	10611
914.793	10622
914.906	10459
915.019	10394
915.132	10253
915.245	10329
915.358	10405
915.47	10352
915.583	10466
915.696	10497
915.809	10554
915.921	10607
916.034	10405
916.146	10402
916.259	10394
916.371	10371
916.483	10440
916.595	10249
916.708	10341
916.82	10344
916.932	10344
917.044	10318
917.156	10265
917.268	10200
917.38	10257
917.491	10219
917.603	10234
917.715	10322
917.826	10363
917.938	10215
918.049	10158
918.161	10303
918.272	10352
918.384	10337
918.495	10261
918.606	10135
918.717	10051
918.828	10120
918.939	10090
919.05	10025
919.161	10071
919.272	9979
919.383	10006
919.494	10192
919.604	10352
919.715	10139
919.826	10071
919.936	10051
920.047	10188
920.157	10131
920.267	10371
920.378	10200
920.488	10120
920.598	10310
920.708	10538
920.818	10287
920.928	10379
921.038	10538
921.148	10447
921.258	10181
921.368	10101
921.477	9964
921.587	9968
921.697	9884
921.806	9987
921.916	9865
922.025	9701
922.134	9686
922.244	9625
922.353	9652
922.462	9629
922.571	9564
922.68	9454
922.789	9348
922.898	9420
923.007	9325
923.116	9378
923.224	9367
923.333	9321
923.442	9218
923.55	9199
923.659	9313
923.767	9386
923.876	9214
923.984	9355
924.092	9298
924.201	9272
924.309	9253
924.417	9237
924.525	9192
924.633	9253
924.741	10051
924.849	9047
924.956	9211
925.064	9032
925.172	9039
925.279	8982
925.387	9085
925.494	9005
925.602	9176
925.709	9127
925.816	9055
925.924	9005
926.031	9161
926.138	9074
926.245	9058
926.352	8948
926.459	9058
926.566	9131
926.673	9020
926.779	8861
926.886	8956
926.993	8708
927.099	8754
927.206	8636
927.312	8712
927.419	8826
927.525	8697
927.631	8872
927.737	8785
927.843	8636
927.95	8541
928.056	8625
928.162	8663
928.267	8773
928.373	9298
928.479	8773
928.585	8499
928.69	8598
928.796	8708
928.901	8511
929.007	8427
929.112	8530
929.218	8575
929.323	8473
929.428	8404
929.533	8606
929.638	8389
929.743	8465
929.848	8511
929.953	8446
930.058	8385
930.163	8233
930.267	8324
930.372	8328
930.477	8248
930.581	8450
930.685	8240
930.79	8191
930.894	8252
930.998	8172
931.103	8275
931.207	7978
931.311	7944
931.415	7883
931.519	7700
931.623	7693
