Data from test_V78500241_3153.txt Node
Date: Fri Mar 25 14:55:40 CST 2022
User: usil
Spectrometer: V785-0024
Trigger mode: 0
Integration Time (sec): 4.000000E-1
Scans to average: 1
Nonlinearity correction enabled: false
Boxcar width: 0
Storing dark spectrum: false
XAxis mode: Wavelengths
Number of Pixels in Spectrum: 1024
>>>>>Begin Spectral Data<<<<<
801.071	21998
801.214	22036
801.356	21705
801.499	21629
801.641	21580
801.783	21435
801.926	21523
802.068	21336
802.211	21306
802.353	21237
802.496	21077
802.638	20994
802.78	20948
802.923	20811
803.065	20712
803.208	20724
803.35	20724
803.492	20937
803.635	20918
803.777	20731
803.919	20785
804.061	21058
804.204	20781
804.346	20686
804.488	20682
804.63	20716
804.773	20552
804.915	20609
805.057	20830
805.199	20651
805.341	20689
805.483	20838
805.626	20785
805.768	20667
805.91	20731
806.052	20640
806.194	20670
806.336	20796
806.478	20629
806.62	20587
806.762	20743
806.904	20849
807.046	21116
807.188	21051
807.33	21051
807.472	20986
807.614	20933
807.756	20887
807.898	20804
808.04	20800
808.182	20682
808.324	20823
808.465	20792
808.607	21047
808.749	21123
808.891	21180
809.033	21116
809.174	21093
809.316	20990
809.458	21096
809.6	20933
809.741	21036
809.883	21116
810.025	21112
810.166	21173
810.308	21252
810.45	21131
810.591	21024
810.733	20914
810.875	20895
811.016	20762
811.158	20670
811.299	20758
811.441	20929
811.582	20880
811.724	20845
811.865	20697
812.007	20727
812.148	20830
812.29	20826
812.431	21058
812.573	21180
812.714	21104
812.855	21370
812.997	21477
813.138	21561
813.279	21416
813.421	21279
813.562	21207
813.703	21089
813.845	20887
813.986	20659
814.127	20427
814.268	20412
814.41	20484
814.551	20267
814.692	20431
814.833	20343
814.974	20298
815.115	20256
815.256	20244
815.397	20058
815.539	20161
815.68	20119
815.821	19955
815.962	20005
816.103	20100
816.244	19860
816.385	19864
816.526	19765
816.666	19655
816.807	19491
816.948	19502
817.089	19487
817.23	19567
817.371	19407
817.512	19430
817.653	19518
817.793	19434
817.934	19468
818.075	19521
818.216	19506
818.356	19392
818.497	19312
818.638	19145
818.778	18993
818.919	19152
819.06	19171
819.2	19327
819.341	19392
819.481	19365
819.622	19518
819.762	19628
819.903	19601
820.043	19506
820.184	19468
820.324	19301
820.465	19548
820.605	19426
820.746	19460
820.886	19308
821.026	19411
821.167	19419
821.307	19449
821.447	19419
821.588	19282
821.728	19031
821.868	18890
822.008	18875
822.149	18882
822.289	18871
822.429	18646
822.569	18464
822.709	18555
822.849	18372
822.99	18289
823.13	18300
823.27	18311
823.41	18121
823.55	18098
823.69	18129
823.83	18235
823.97	18201
824.11	18022
824.25	17942
824.389	17901
824.529	17901
824.669	17878
824.809	17999
824.949	17901
825.089	17984
825.228	17984
825.368	17741
825.508	17737
825.648	17707
825.787	17668
825.927	17767
826.067	17775
826.206	17665
826.346	17809
826.485	17817
826.625	17646
826.765	17672
826.904	17752
827.044	17482
827.183	17425
827.323	17337
827.462	17421
827.601	17452
827.741	17254
827.88	17520
828.02	17185
828.159	17345
828.298	17356
828.437	17448
828.577	17372
828.716	17425
828.855	17284
828.994	17060
829.134	17105
829.273	17166
829.412	17071
829.551	16946
829.69	17010
829.829	17159
829.968	17212
830.107	17185
830.246	17132
830.385	17041
830.524	17003
830.663	17018
830.802	16904
830.941	16763
831.08	16774
831.219	16778
831.357	16824
831.496	16942
831.635	16702
831.774	16596
831.913	16599
832.051	16546
832.19	16523
832.329	16584
832.467	16413
832.606	16432
832.744	16443
832.883	16428
833.022	16424
833.16	16344
833.299	16489
833.437	16474
833.576	16478
833.714	16489
833.852	16455
833.991	16535
834.129	16630
834.267	16523
834.406	16489
834.544	16512
834.682	16466
834.821	16508
834.959	16698
835.097	16443
835.235	16618
835.373	16523
835.511	16519
835.65	16394
835.788	16322
835.926	16204
836.064	16097
836.202	16185
836.34	16455
836.478	16508
836.615	16363
836.753	16440
836.891	16531
837.029	16424
837.167	16398
837.305	16356
837.443	16341
837.58	16303
837.718	16280
837.856	16253
837.993	16246
838.131	16360
838.269	16135
838.406	16246
838.544	16173
838.681	15934
838.819	15949
838.956	15819
839.094	15793
839.231	15793
839.369	16067
839.506	16242
839.643	16051
839.781	15850
839.918	15694
840.055	15709
840.193	15781
840.33	15728
840.467	15762
840.604	15865
840.742	16090
840.879	15724
841.016	15660
841.153	15701
841.29	15842
841.427	15915
841.564	15873
841.701	15865
841.838	15781
841.975	15644
842.112	15698
842.249	15595
842.385	15496
842.522	15720
842.659	15625
842.796	15549
842.933	15507
843.069	15492
843.206	15542
843.343	15610
843.479	15656
843.616	15549
843.752	15401
843.889	15367
844.025	15545
844.162	15378
844.298	15519
844.435	15397
844.571	15264
844.708	15564
844.844	15572
844.98	15485
845.117	15488
845.253	15272
845.389	15249
845.525	15325
845.661	15268
845.798	15218
845.934	15138
846.07	15211
846.206	15233
846.342	15241
846.478	15180
846.614	14929
846.75	14929
846.886	14899
847.022	15062
847.158	14948
847.294	14902
847.429	14975
847.565	14979
847.701	15218
847.837	14663
847.972	14655
848.108	14735
848.244	14754
848.379	14545
848.515	14526
848.65	14514
848.786	14522
848.921	14552
849.057	14689
849.192	14640
849.328	14587
849.463	14579
849.598	14412
849.734	14427
849.869	14427
850.004	14374
850.14	14393
850.275	14298
850.41	14195
850.545	14221
850.68	14256
850.815	14233
850.95	14225
851.085	14473
851.22	14415
851.355	14412
851.49	14286
851.625	14191
851.76	14282
851.895	14221
852.03	14259
852.165	14305
852.299	14339
852.434	14404
852.569	14389
852.703	14313
852.838	14355
852.973	14389
853.107	14450
853.242	14317
853.376	14176
853.511	14062
853.645	14107
853.78	14233
853.914	14263
854.048	14130
854.183	14119
854.317	14256
854.451	14427
854.585	14134
854.72	14168
854.854	14157
854.988	14073
855.122	14096
855.256	14062
855.39	14145
855.524	14172
855.658	14187
855.792	14206
855.926	14199
856.06	14218
856.194	14259
856.327	14180
856.461	14161
856.595	14138
856.729	14149
856.862	14248
856.996	14183
857.13	14218
857.263	14275
857.397	14313
857.53	14157
857.664	14267
857.797	14195
857.931	14267
858.064	14252
858.197	14290
858.331	14187
858.464	14149
858.597	14054
858.731	14252
858.864	14252
858.997	14054
859.13	14191
859.263	14111
859.396	14244
859.529	14161
859.662	14172
859.795	14157
859.928	14206
860.061	14343
860.194	14362
860.327	14161
860.46	14237
860.592	14218
860.725	14298
860.858	14309
860.99	14202
861.123	14092
861.256	14142
861.388	14199
861.521	14811
861.653	14024
861.786	14008
861.918	14145
862.05	14183
862.183	14115
862.315	14142
862.447	14164
862.58	14206
862.712	13989
862.844	13925
862.976	14012
863.108	13978
863.24	14248
863.372	13944
863.504	13898
863.636	13970
863.768	14073
863.9	13940
864.032	13913
864.164	13894
864.296	14020
864.428	14039
864.559	14199
864.691	14031
864.823	13993
864.954	13940
865.086	14031
865.217	13967
865.349	13898
865.48	13932
865.612	13925
865.743	14168
865.875	13959
866.006	13883
866.137	13921
866.269	13974
866.4	13959
866.531	13944
866.662	13906
866.793	13769
866.924	13959
867.055	13887
867.186	13967
867.317	13894
867.448	13742
867.579	13811
867.71	13917
867.841	13852
867.972	13928
868.103	13932
868.233	14001
868.364	13955
868.495	13982
868.625	14103
868.756	14267
868.886	14092
869.017	14107
869.147	14301
869.278	14271
869.408	14256
869.539	14157
869.669	14271
869.799	14298
869.929	14229
870.06	14324
870.19	14598
870.32	14457
870.45	14564
870.58	14655
870.71	14800
870.84	14648
870.97	14594
871.1	14469
871.23	14716
871.36	14834
871.489	14720
871.619	14769
871.749	14762
871.879	14819
872.008	14883
872.138	14853
872.267	14754
872.397	14663
872.526	14610
872.656	14602
872.785	14632
872.915	14800
873.044	14895
873.173	14876
873.303	14933
873.432	14864
873.561	14899
873.69	14838
873.819	14910
873.948	14948
874.077	15009
874.206	14849
874.335	14891
874.464	15013
874.593	15116
874.722	15089
874.851	15195
874.979	15165
875.108	15154
875.237	15085
875.365	15074
875.494	15211
875.623	15142
875.751	15036
875.88	15161
876.008	15340
876.136	15454
876.265	15530
876.393	15793
876.521	15732
876.65	15549
876.778	15663
876.906	15542
877.034	15488
877.162	15595
877.29	15447
877.418	15538
877.546	15549
877.674	15462
877.802	15584
877.93	15610
878.058	15610
878.185	15485
878.313	15625
878.441	15568
878.568	15458
878.696	15534
878.824	15599
878.951	15606
879.079	15641
879.206	15873
879.333	15690
879.461	15580
879.588	15660
879.715	15762
879.842	15800
879.97	15694
880.097	15458
880.224	15363
880.351	15336
880.478	15397
880.605	15348
880.732	15313
880.859	15595
880.986	15534
881.112	15431
881.239	15275
881.366	15233
881.493	15100
881.619	15055
881.746	15100
881.872	14994
881.999	15074
882.125	14982
882.252	15081
882.378	15180
882.505	15237
882.631	15001
882.757	14937
882.883	14929
883.01	14891
883.136	14849
883.262	14804
883.388	14746
883.514	14887
883.64	14849
883.766	14899
883.892	14682
884.018	14826
884.143	14826
884.269	14944
884.395	14659
884.52	14556
884.646	14594
884.772	14518
884.897	14507
885.023	14560
885.148	14777
885.274	14697
885.399	14727
885.524	14621
885.65	14579
885.775	14632
885.9	14625
886.025	14689
886.15	14651
886.275	14461
886.4	14530
886.525	14568
886.65	14465
886.775	14473
886.9	14697
887.025	14853
887.149	14522
887.274	14438
887.399	14438
887.523	14412
887.648	14267
887.773	14355
887.897	14454
888.021	14560
888.146	14358
888.27	14594
888.395	14594
888.519	14461
888.643	14450
888.767	14537
888.891	14385
889.015	14248
889.139	14396
889.263	14252
889.387	14377
889.511	14484
889.635	14518
889.759	14317
889.883	14191
890.006	14313
890.13	14495
890.254	14206
890.377	14233
890.501	13978
890.624	14244
890.748	14111
890.871	14058
890.995	13909
891.118	13925
891.241	13997
891.364	14084
891.488	14077
891.611	13955
891.734	13986
891.857	14043
891.98	14065
892.103	14123
892.226	14016
892.349	14012
892.471	13799
892.594	13951
892.717	14050
892.839	13963
892.962	14024
893.085	14107
893.207	13947
893.33	13890
893.452	13887
893.575	13944
893.697	13967
893.819	14191
893.941	14172
894.064	14180
894.186	13894
894.308	13868
894.43	14168
894.552	14187
894.674	14168
894.796	14001
894.918	14016
895.04	14111
895.161	14134
895.283	14142
895.405	14111
895.526	14050
895.648	14142
895.769	14092
895.891	14210
896.012	14267
896.134	14240
896.255	14164
896.376	14126
896.498	14172
896.619	14275
896.74	14176
896.861	14240
896.982	14495
897.103	14716
897.224	14457
897.345	14454
897.466	14396
897.587	14514
897.708	14579
897.828	14454
897.949	14400
898.07	14366
898.19	14484
898.311	14667
898.431	14503
898.552	14476
898.672	14625
898.792	14644
898.913	14617
899.033	14503
899.153	14419
899.273	14225
899.393	14347
899.513	14408
899.633	14377
899.753	14503
899.873	14385
899.993	14419
900.113	14332
900.232	14370
900.352	14393
900.472	14351
900.591	14183
900.711	14301
900.83	14153
900.95	14377
901.069	14377
901.189	14263
901.308	13932
901.427	13864
901.546	13997
901.665	14024
901.784	13871
901.904	13791
902.023	13776
902.141	13575
902.26	13487
902.379	13529
902.498	13453
902.617	13464
902.735	13476
902.854	13487
902.973	13483
903.091	13202
903.21	13232
903.328	13221
903.446	13149
903.565	13065
903.683	13160
903.801	12973
903.919	13004
904.038	13042
904.156	12894
904.274	13061
904.392	12935
904.51	12798
904.627	12837
904.745	13069
904.863	12920
904.981	12745
905.098	12601
905.216	12513
905.334	12646
905.451	12627
905.569	12441
905.686	12700
905.803	12525
905.921	12384
906.038	12498
906.155	12399
906.272	12300
906.389	12258
906.506	12266
906.623	12041
906.74	12194
906.857	11988
906.974	12144
907.091	12175
907.208	12296
907.324	12190
907.441	12038
907.557	11977
907.674	11931
907.79	11809
907.907	11885
908.023	11946
908.139	11965
908.256	11920
908.372	11859
908.488	11767
908.604	11680
908.72	11676
908.836	11596
908.952	11608
909.068	11688
909.184	11786
909.3	11703
909.415	11722
909.531	11714
909.647	11417
909.762	11452
909.878	11410
909.993	11474
910.108	11406
910.224	11387
910.339	11414
910.454	11376
910.57	11193
910.685	11208
910.8	11558
910.915	11421
911.03	11402
911.145	11143
911.259	11147
911.374	11155
911.489	11056
911.604	11090
911.718	10961
911.833	11003
911.947	10824
912.062	10717
912.176	10805
912.291	10915
912.405	10854
912.519	11113
912.633	11235
912.748	10968
912.862	10877
912.976	10755
913.09	10588
913.204	10778
913.318	10809
913.431	10896
913.545	10904
913.659	10892
913.772	10759
913.886	10740
914	10615
914.113	10714
914.226	10862
914.34	10771
914.453	10577
914.566	10656
914.68	10558
914.793	10607
914.906	10413
915.019	10352
915.132	10344
915.245	10382
915.358	10398
915.47	10474
915.583	10459
915.696	10363
915.809	10577
915.921	10466
916.034	10417
916.146	10371
916.259	10329
916.371	10451
916.483	10367
916.595	10360
916.708	10367
916.82	10329
916.932	10421
917.044	10329
917.156	10318
917.268	10261
917.38	10280
917.491	10268
917.603	10333
917.715	10238
917.826	10325
917.938	10284
918.049	10215
918.161	10242
918.272	10379
918.384	10306
918.495	10253
918.606	10204
918.717	10067
918.828	10246
918.939	10131
919.05	10124
919.161	10207
919.272	9869
919.383	9979
919.494	10188
919.604	10390
919.715	10143
919.826	10010
919.936	10124
920.047	10299
920.157	10215
920.267	10333
920.378	10223
920.488	10215
920.598	10367
920.708	10535
920.818	10409
920.928	10337
921.038	10569
921.148	10512
921.258	10265
921.368	10154
921.477	10063
921.587	10025
921.697	9941
921.806	10071
921.916	9945
922.025	9850
922.134	9724
922.244	9686
922.353	9793
922.462	9633
922.571	9576
922.68	9519
922.789	9447
922.898	9481
923.007	9370
923.116	9466
923.224	9393
923.333	9504
923.442	9344
923.55	9344
923.659	9367
923.767	9439
923.876	9283
923.984	9450
924.092	9275
924.201	9370
924.309	9287
924.417	9329
924.525	9218
924.633	9291
924.741	10219
924.849	9081
924.956	9203
925.064	9108
925.172	8982
925.279	9100
925.387	9123
925.494	9116
925.602	9207
925.709	9173
925.816	9093
925.924	9112
926.031	9180
926.138	9097
926.245	9051
926.352	9097
926.459	9188
926.566	9180
926.673	9097
926.779	8956
926.886	8998
926.993	8811
927.099	8773
927.206	8857
927.312	8872
927.419	8891
927.525	8838
927.631	8868
927.737	8716
927.843	8766
927.95	8583
928.056	8674
928.162	8788
928.267	8834
928.373	9279
928.479	8804
928.585	8590
928.69	8701
928.796	8777
928.901	8644
929.007	8473
929.112	8632
929.218	8613
929.323	8549
929.428	8552
929.533	8678
929.638	8469
929.743	8488
929.848	8571
929.953	8549
930.058	8434
930.163	8290
930.267	8339
930.372	8480
930.477	8267
930.581	8556
930.685	8442
930.79	8164
930.894	8256
930.998	8237
931.103	8370
931.207	8046
931.311	8069
931.415	7887
931.519	7776
931.623	7746
