Data from test_V78500241_2795.txt Node
Date: Fri Mar 25 14:53:10 CST 2022
User: usil
Spectrometer: V785-0024
Trigger mode: 0
Integration Time (sec): 4.000000E-1
Scans to average: 1
Nonlinearity correction enabled: false
Boxcar width: 0
Storing dark spectrum: false
XAxis mode: Wavelengths
Number of Pixels in Spectrum: 1024
>>>>>Begin Spectral Data<<<<<
801.071	21956
801.214	21983
801.356	21698
801.499	21591
801.641	21450
801.783	21473
801.926	21485
802.068	21416
802.211	21199
802.353	21252
802.496	20986
802.638	20986
802.78	20902
802.923	20880
803.065	20648
803.208	20724
803.35	20807
803.492	20921
803.635	20895
803.777	20689
803.919	20857
804.061	21028
804.204	20823
804.346	20625
804.488	20667
804.63	20743
804.773	20724
804.915	20686
805.057	20712
805.199	20682
805.341	20758
805.483	20712
805.626	20838
805.768	20617
805.91	20617
806.052	20590
806.194	20609
806.336	20830
806.478	20564
806.62	20613
806.762	20777
806.904	20781
807.046	21096
807.188	21020
807.33	20982
807.472	21020
807.614	20746
807.756	20914
807.898	20773
808.04	20849
808.182	20727
808.324	20807
808.465	20777
808.607	20868
808.749	21001
808.891	21116
809.033	21245
809.174	21169
809.316	21055
809.458	20994
809.6	21024
809.741	21119
809.883	21119
810.025	21142
810.166	21306
810.308	21112
810.45	21116
810.591	21093
810.733	20933
810.875	20944
811.016	20815
811.158	20648
811.299	20864
811.441	20933
811.582	20804
811.724	20765
811.865	20678
812.007	20933
812.148	20781
812.29	20769
812.431	20971
812.573	21039
812.714	21100
812.855	21214
812.997	21306
813.138	21367
813.279	21439
813.421	21321
813.562	21146
813.703	21043
813.845	20914
813.986	20712
814.127	20454
814.268	20385
814.41	20336
814.551	20290
814.692	20404
814.833	20339
814.974	20336
815.115	20408
815.256	20244
815.397	20084
815.539	20149
815.68	20077
815.821	20005
815.962	20077
816.103	20065
816.244	19963
816.385	19765
816.526	19734
816.666	19666
816.807	19441
816.948	19651
817.089	19586
817.23	19464
817.371	19415
817.512	19483
817.653	19362
817.793	19365
817.934	19400
818.075	19434
818.216	19468
818.356	19373
818.497	19304
818.638	19190
818.778	19194
818.919	19095
819.06	19156
819.2	19293
819.341	19438
819.481	19483
819.622	19502
819.762	19674
819.903	19635
820.043	19483
820.184	19324
820.324	19460
820.465	19521
820.605	19392
820.746	19438
820.886	19251
821.026	19346
821.167	19327
821.307	19548
821.447	19324
821.588	19225
821.728	19050
821.868	19008
822.008	18993
822.149	18954
822.289	18871
822.429	18566
822.569	18517
822.709	18536
822.849	18407
822.99	18399
823.13	18334
823.27	18300
823.41	18129
823.55	18098
823.69	18102
823.83	18133
823.97	18060
824.11	17927
824.25	17939
824.389	17969
824.529	17942
824.669	17859
824.809	17961
824.949	18053
825.089	17958
825.228	18011
825.368	17813
825.508	17737
825.648	17691
825.787	17802
825.927	17699
826.067	17642
826.206	17707
826.346	17703
826.485	17630
826.625	17764
826.765	17775
826.904	17767
827.044	17490
827.183	17349
827.323	17406
827.462	17429
827.601	17448
827.741	17406
827.88	17452
828.02	17303
828.159	17383
828.298	17398
828.437	17391
828.577	17280
828.716	17543
828.855	17292
828.994	17113
829.134	17147
829.273	17159
829.412	17071
829.551	17155
829.69	17048
829.829	17178
829.968	17277
830.107	17246
830.246	17121
830.385	16980
830.524	16942
830.663	17003
830.802	16820
830.941	16717
831.08	16736
831.219	16816
831.357	16820
831.496	16995
831.635	16744
831.774	16752
831.913	16683
832.051	16527
832.19	16611
832.329	16668
832.467	16337
832.606	16394
832.744	16398
832.883	16512
833.022	16402
833.16	16390
833.299	16481
833.437	16493
833.576	16512
833.714	16558
833.852	16459
833.991	16538
834.129	16588
834.267	16508
834.406	16596
834.544	16485
834.682	16554
834.821	16341
834.959	16721
835.097	16413
835.235	16538
835.373	16447
835.511	16512
835.65	16402
835.788	16447
835.926	16303
836.064	16223
836.202	16211
836.34	16466
836.478	16348
836.615	16447
836.753	16413
836.891	16542
837.029	16531
837.167	16386
837.305	16314
837.443	16284
837.58	16234
837.718	16341
837.856	16265
837.993	16310
838.131	16299
838.269	16280
838.406	16181
838.544	16162
838.681	15983
838.819	15926
838.956	15827
839.094	15922
839.231	15907
839.369	16002
839.506	16211
839.643	16093
839.781	15857
839.918	15838
840.055	15842
840.193	15812
840.33	15808
840.467	15812
840.604	15922
840.742	16006
840.879	15644
841.016	15633
841.153	15770
841.29	15945
841.427	15759
841.564	15915
841.701	15895
841.838	15797
841.975	15648
842.112	15728
842.249	15747
842.385	15485
842.522	15781
842.659	15751
842.796	15542
842.933	15568
843.069	15644
843.206	15614
843.343	15766
843.479	15625
843.616	15679
843.752	15526
843.889	15393
844.025	15584
844.162	15405
844.298	15542
844.435	15378
844.571	15389
844.708	15477
844.844	15542
844.98	15561
845.117	15496
845.253	15344
845.389	15279
845.525	15317
845.661	15317
845.798	15226
845.934	15306
846.07	15146
846.206	15207
846.342	15355
846.478	15233
846.614	15062
846.75	14998
846.886	14838
847.022	15036
847.158	14986
847.294	14963
847.429	15089
847.565	14937
847.701	15131
847.837	14785
847.972	14758
848.108	14845
848.244	14845
848.379	14686
848.515	14549
848.65	14503
848.786	14556
848.921	14587
849.057	14697
849.192	14682
849.328	14625
849.463	14644
849.598	14598
849.734	14492
849.869	14442
850.004	14313
850.14	14454
850.275	14385
850.41	14210
850.545	14339
850.68	14343
850.815	14351
850.95	14362
851.085	14568
851.22	14393
851.355	14362
851.49	14282
851.625	14328
851.76	14237
851.895	14221
852.03	14286
852.165	14309
852.299	14309
852.434	14427
852.569	14381
852.703	14389
852.838	14374
852.973	14492
853.107	14442
853.242	14199
853.376	14309
853.511	14142
853.645	14164
853.78	14298
853.914	14339
854.048	14149
854.183	14199
854.317	14248
854.451	14415
854.585	14244
854.72	14206
854.854	14309
854.988	14142
855.122	14172
855.256	14126
855.39	14202
855.524	14393
855.658	14271
855.792	14191
855.926	14183
856.06	14214
856.194	14282
856.327	14191
856.461	14138
856.595	14153
856.729	14126
856.862	14393
856.996	14343
857.13	14313
857.263	14191
857.397	14320
857.53	14142
857.664	14332
857.797	14336
857.931	14381
858.064	14328
858.197	14336
858.331	14248
858.464	14256
858.597	14115
858.731	14191
858.864	14210
858.997	14145
859.13	14252
859.263	14202
859.396	14248
859.529	14290
859.662	14221
859.795	14218
859.928	14256
860.061	14366
860.194	14419
860.327	14290
860.46	14210
860.592	14267
860.725	14454
860.858	14389
860.99	14145
861.123	14149
861.256	14100
861.388	14134
861.521	14902
861.653	14142
861.786	13970
861.918	13997
862.05	14176
862.183	14172
862.315	14305
862.447	14290
862.58	14142
862.712	14039
862.844	13955
862.976	14123
863.108	14100
863.24	14503
863.372	13932
863.504	13974
863.636	13974
863.768	14012
863.9	14031
864.032	13963
864.164	13963
864.296	13951
864.428	14138
864.559	14107
864.691	14149
864.823	14043
864.954	13997
865.086	14050
865.217	14069
865.349	13875
865.48	13906
865.612	13982
865.743	14024
865.875	14027
866.006	13989
866.137	13974
866.269	14024
866.4	13906
866.531	13826
866.662	13989
866.793	13944
866.924	14081
867.055	13993
867.186	14035
867.317	13936
867.448	13883
867.579	13913
867.71	13875
867.841	13811
867.972	13936
868.103	13978
868.233	14054
868.364	13974
868.495	14149
868.625	14229
868.756	14263
868.886	14149
869.017	14294
869.147	14309
869.278	14298
869.408	14267
869.539	14199
869.669	14317
869.799	14317
869.929	14362
870.06	14434
870.19	14537
870.32	14522
870.45	14674
870.58	14708
870.71	14796
870.84	14735
870.97	14571
871.1	14629
871.23	14777
871.36	14887
871.489	14758
871.619	14842
871.749	14811
871.879	14838
872.008	14929
872.138	14906
872.267	14765
872.397	14579
872.526	14686
872.656	14659
872.785	14773
872.915	14872
873.044	14872
873.173	14906
873.303	14876
873.432	14921
873.561	15009
873.69	14826
873.819	14910
873.948	14902
874.077	14807
874.206	14815
874.335	14967
874.464	15051
874.593	15272
874.722	15142
874.851	15302
874.979	15169
875.108	15233
875.237	15112
875.365	15169
875.494	15020
875.623	15176
875.751	15089
875.88	15291
876.008	15317
876.136	15408
876.265	15591
876.393	15785
876.521	15717
876.65	15724
876.778	15625
876.906	15603
877.034	15564
877.162	15682
877.29	15606
877.418	15553
877.546	15599
877.674	15568
877.802	15595
877.93	15682
878.058	15534
878.185	15416
878.313	15648
878.441	15557
878.568	15435
878.696	15568
878.824	15553
878.951	15622
879.079	15804
879.206	15975
879.333	15720
879.461	15644
879.588	15854
879.715	15842
879.842	15789
879.97	15568
880.097	15382
880.224	15393
880.351	15526
880.478	15481
880.605	15488
880.732	15526
880.859	15720
880.986	15519
881.112	15477
881.239	15294
881.366	15317
881.493	15188
881.619	15070
881.746	15176
881.872	15127
881.999	15097
882.125	15154
882.252	15108
882.378	15097
882.505	15291
882.631	15074
882.757	14864
882.883	15051
883.01	14998
883.136	14842
883.262	14910
883.388	14769
883.514	14937
883.64	14975
883.766	14918
883.892	14659
884.018	14701
884.143	14921
884.269	14967
884.395	14651
884.52	14629
884.646	14678
884.772	14583
884.897	14556
885.023	14689
885.148	14724
885.274	14849
885.399	14689
885.524	14625
885.65	14659
885.775	14678
885.9	14720
886.025	14712
886.15	14663
886.275	14655
886.4	14564
886.525	14560
886.65	14533
886.775	14549
886.9	14731
887.025	14918
887.149	14598
887.274	14484
887.399	14454
887.523	14377
887.648	14396
887.773	14385
887.897	14499
888.021	14476
888.146	14389
888.27	14644
888.395	14708
888.519	14507
888.643	14503
888.767	14545
888.891	14442
889.015	14328
889.139	14389
889.263	14404
889.387	14484
889.511	14549
889.635	14400
889.759	14442
889.883	14389
890.006	14328
890.13	14450
890.254	14221
890.377	14256
890.501	14111
890.624	14054
890.748	14195
890.871	14043
890.995	14058
891.118	13932
891.241	14043
891.364	14039
891.488	14157
891.611	13967
891.734	14058
891.857	14073
891.98	14115
892.103	14149
892.226	13989
892.349	14039
892.471	13875
892.594	14005
892.717	13997
892.839	14027
892.962	14088
893.085	14123
893.207	14043
893.33	13982
893.452	13917
893.575	14092
893.697	13913
893.819	14221
893.941	14210
894.064	14263
894.186	14050
894.308	14012
894.43	14161
894.552	14206
894.674	14199
894.796	14031
894.918	14054
895.04	14126
895.161	14134
895.283	14149
895.405	14111
895.526	14119
895.648	14176
895.769	14221
895.891	14168
896.012	14301
896.134	14240
896.255	14233
896.376	14145
896.498	14282
896.619	14347
896.74	14343
896.861	14282
896.982	14648
897.103	14682
897.224	14499
897.345	14423
897.466	14381
897.587	14377
897.708	14621
897.828	14469
897.949	14396
898.07	14393
898.19	14442
898.311	14587
898.431	14556
898.552	14533
898.672	14621
898.792	14594
898.913	14560
899.033	14549
899.153	14423
899.273	14309
899.393	14374
899.513	14355
899.633	14377
899.753	14457
899.873	14343
899.993	14503
900.113	14450
900.232	14438
900.352	14492
900.472	14248
900.591	14267
900.711	14278
900.83	14195
900.95	14313
901.069	14385
901.189	14248
901.308	13936
901.427	14024
901.546	13913
901.665	13967
901.784	14020
901.904	13776
902.023	13727
902.141	13575
902.26	13502
902.379	13559
902.498	13518
902.617	13464
902.735	13559
902.854	13521
902.973	13438
903.091	13289
903.21	13285
903.328	13236
903.446	13278
903.565	13175
903.683	13209
903.801	13080
903.919	13057
904.038	12993
904.156	12886
904.274	12973
904.392	12859
904.51	12798
904.627	12897
904.745	12859
904.863	12916
904.981	12753
905.098	12608
905.216	12642
905.334	12688
905.451	12608
905.569	12620
905.686	12753
905.803	12616
905.921	12456
906.038	12547
906.155	12445
906.272	12429
906.389	12319
906.506	12167
906.623	12235
906.74	12232
906.857	12079
906.974	12152
907.091	12247
907.208	12357
907.324	12251
907.441	12163
907.557	12003
907.674	11935
907.79	11920
907.907	11935
908.023	12015
908.139	11954
908.256	11923
908.372	11885
908.488	11901
908.604	11767
908.72	11756
908.836	11790
908.952	11668
909.068	11657
909.184	11726
909.3	11748
909.415	11809
909.531	11649
909.647	11592
909.762	11501
909.878	11478
909.993	11474
910.108	11448
910.224	11459
910.339	11592
910.454	11330
910.57	11318
910.685	11216
910.8	11562
910.915	11501
911.03	11318
911.145	11174
911.259	11204
911.374	11117
911.489	11136
911.604	11025
911.718	10919
911.833	10976
911.947	10805
912.062	10714
912.176	10991
912.291	10904
912.405	10908
912.519	11174
912.633	11121
912.748	11014
912.862	11014
912.976	10786
913.09	10782
913.204	10725
913.318	10843
913.431	10961
913.545	10942
913.659	10938
913.772	10839
913.886	10736
914	10649
914.113	10801
914.226	10866
914.34	10786
914.453	10660
914.566	10755
914.68	10634
914.793	10618
914.906	10504
915.019	10402
915.132	10375
915.245	10424
915.358	10451
915.47	10481
915.583	10561
915.696	10481
915.809	10592
915.921	10645
916.034	10440
916.146	10405
916.259	10375
916.371	10512
916.483	10478
916.595	10337
916.708	10413
916.82	10360
916.932	10356
917.044	10329
917.156	10348
917.268	10257
917.38	10257
917.491	10253
917.603	10360
917.715	10344
917.826	10360
917.938	10329
918.049	10223
918.161	10356
918.272	10382
918.384	10386
918.495	10227
918.606	10188
918.717	10116
918.828	10120
918.939	10207
919.05	10097
919.161	10128
919.272	9968
919.383	10010
919.494	10272
919.604	10436
919.715	10204
919.826	10002
919.936	10181
920.047	10287
920.157	10143
920.267	10379
920.378	10238
920.488	10112
920.598	10348
920.708	10527
920.818	10390
920.928	10363
921.038	10493
921.148	10508
921.258	10276
921.368	10131
921.477	10006
921.587	9975
921.697	9991
921.806	10071
921.916	9937
922.025	9838
922.134	9762
922.244	9720
922.353	9789
922.462	9644
922.571	9618
922.68	9363
922.789	9443
922.898	9428
923.007	9450
923.116	9473
923.224	9473
923.333	9370
923.442	9370
923.55	9401
923.659	9363
923.767	9428
923.876	9275
923.984	9351
924.092	9287
924.201	9317
924.309	9332
924.417	9298
924.525	9256
924.633	9241
924.741	9975
924.849	9112
924.956	9275
925.064	9070
925.172	9028
925.279	9039
925.387	9112
925.494	9093
925.602	9272
925.709	9184
925.816	8982
925.924	9077
926.031	9214
926.138	9146
926.245	9074
926.352	9017
926.459	9203
926.566	9211
926.673	9127
926.779	8979
926.886	8971
926.993	8792
927.099	8796
927.206	8716
927.312	8762
927.419	8792
927.525	8838
927.631	8868
927.737	8724
927.843	8731
927.95	8556
928.056	8716
928.162	8724
928.267	8838
928.373	9405
928.479	8804
928.585	8590
928.69	8655
928.796	8682
928.901	8640
929.007	8450
929.112	8594
929.218	8598
929.323	8579
929.428	8602
929.533	8632
929.638	8473
929.743	8476
929.848	8606
929.953	8549
930.058	8393
930.163	8267
930.267	8328
930.372	8396
930.477	8240
930.581	8537
930.685	8400
930.79	8225
930.894	8252
930.998	8244
931.103	8336
931.207	8046
931.311	7974
931.415	7864
931.519	7780
931.623	7814
