Data from test_V78500241_1163.txt Node
Date: Fri Mar 25 14:41:48 CST 2022
User: usil
Spectrometer: V785-0024
Trigger mode: 0
Integration Time (sec): 4.000000E-1
Scans to average: 1
Nonlinearity correction enabled: false
Boxcar width: 0
Storing dark spectrum: false
XAxis mode: Wavelengths
Number of Pixels in Spectrum: 1024
>>>>>Begin Spectral Data<<<<<
801.071	22455
801.214	22443
801.356	22093
801.499	22093
801.641	21987
801.783	21884
801.926	21781
802.068	21762
802.211	21728
802.353	21785
802.496	21428
802.638	21351
802.78	21298
802.923	21302
803.065	21184
803.208	21161
803.35	21226
803.492	21310
803.635	21291
803.777	21264
803.919	21348
804.061	21534
804.204	21218
804.346	21199
804.488	21119
804.63	21104
804.773	21028
804.915	21142
805.057	21249
805.199	21055
805.341	21226
805.483	21249
805.626	21142
805.768	21058
805.91	21039
806.052	21028
806.194	21119
806.336	21321
806.478	21116
806.62	21184
806.762	21222
806.904	21454
807.046	21504
807.188	21511
807.33	21397
807.472	21488
807.614	21397
807.756	21485
807.898	21298
808.04	21241
808.182	21150
808.324	21245
808.465	21412
808.607	21431
808.749	21591
808.891	21827
809.033	21850
809.174	21827
809.316	21583
809.458	21732
809.6	21591
809.741	21686
809.883	21747
810.025	21850
810.166	21679
810.308	21808
810.45	21587
810.591	21679
810.733	21523
810.875	21492
811.016	21283
811.158	21241
811.299	21412
811.441	21420
811.582	21515
811.724	21332
811.865	21386
812.007	21252
812.148	21298
812.29	21283
812.431	21542
812.573	21838
812.714	21663
812.855	21930
812.997	21975
813.138	22147
813.279	21937
813.421	21762
813.562	21812
813.703	21663
813.845	21435
813.986	21211
814.127	21039
814.268	20845
814.41	20933
814.551	20925
814.692	20906
814.833	20880
814.974	20921
815.115	20857
815.256	20845
815.397	20667
815.539	20765
815.68	20617
815.821	20621
815.962	20682
816.103	20579
816.244	20507
816.385	20408
816.526	20434
816.666	20164
816.807	20149
816.948	20187
817.089	20100
817.23	20073
817.371	20153
817.512	20149
817.653	20058
817.793	19986
817.934	20092
818.075	20107
818.216	20035
818.356	19944
818.497	19830
818.638	19742
818.778	19689
818.919	19708
819.06	19769
819.2	19875
819.341	19864
819.481	20016
819.622	20031
819.762	20210
819.903	20256
820.043	20134
820.184	20081
820.324	20008
820.465	20172
820.605	20001
820.746	19982
820.886	19875
821.026	19959
821.167	19925
821.307	20077
821.447	19898
821.588	19913
821.728	19731
821.868	19567
822.008	19358
822.149	19453
822.289	19415
822.429	19084
822.569	19160
822.709	19103
822.849	18901
822.99	18871
823.13	18863
823.27	18871
823.41	18745
823.55	18639
823.69	18677
823.83	18852
823.97	18681
824.11	18502
824.25	18563
824.389	18551
824.529	18536
824.669	18551
824.809	18631
824.949	18532
825.089	18536
825.228	18566
825.368	18289
825.508	18342
825.648	18346
825.787	18327
825.927	18342
826.067	18224
826.206	18266
826.346	18254
826.485	18224
826.625	18228
826.765	18361
826.904	18441
827.044	18034
827.183	17984
827.323	17977
827.462	18011
827.601	18076
827.741	17931
827.88	17866
828.02	17779
828.159	17999
828.298	17946
828.437	18064
828.577	17916
828.716	18095
828.855	17908
828.994	17630
829.134	17695
829.273	17824
829.412	17691
829.551	17714
829.69	17707
829.829	17691
829.968	17832
830.107	17786
830.246	17726
830.385	17672
830.524	17630
830.663	17573
830.802	17459
830.941	17296
831.08	17353
831.219	17459
831.357	17459
831.496	17482
831.635	17395
831.774	17208
831.913	17239
832.051	17124
832.19	16984
832.329	17242
832.467	17159
832.606	17041
832.744	17071
832.883	17037
833.022	17105
833.16	17060
833.299	17071
833.437	17064
833.576	17071
833.714	17083
833.852	17166
833.991	17185
834.129	17220
834.267	17200
834.406	17121
834.544	17178
834.682	17208
834.821	17052
834.959	17322
835.097	17071
835.235	17220
835.373	17071
835.511	17155
835.65	17090
835.788	17056
835.926	16976
836.064	16961
836.202	16820
836.34	16961
836.478	17067
836.615	16923
836.753	17014
836.891	17109
837.029	17056
837.167	17029
837.305	16965
837.443	16991
837.58	16752
837.718	16984
837.856	16862
837.993	16908
838.131	16885
838.269	16847
838.406	16873
838.544	16733
838.681	16615
838.819	16527
838.956	16443
839.094	16363
839.231	16565
839.369	16584
839.506	16767
839.643	16672
839.781	16447
839.918	16470
840.055	16386
840.193	16519
840.33	16352
840.467	16470
840.604	16455
840.742	16793
840.879	16207
841.016	16386
841.153	16382
841.29	16596
841.427	16382
841.564	16440
841.701	16440
841.838	16352
841.975	16363
842.112	16337
842.249	16242
842.385	16219
842.522	16371
842.659	16249
842.796	16173
842.933	16192
843.069	16226
843.206	16135
843.343	16329
843.479	16196
843.616	16276
843.752	15998
843.889	15979
844.025	16135
844.162	15964
844.298	16131
844.435	15930
844.571	15903
844.708	16010
844.844	16158
844.98	16177
845.117	16185
845.253	15953
845.389	15884
845.525	15941
845.661	15960
845.798	15964
845.934	16116
846.07	15926
846.206	16059
846.342	16188
846.478	16025
846.614	15709
846.75	15622
846.886	15511
847.022	15633
847.158	15572
847.294	15595
847.429	15652
847.565	15530
847.701	15633
847.837	15317
847.972	15233
848.108	15469
848.244	15325
848.379	15226
848.515	15260
848.65	15188
848.786	15222
848.921	15161
849.057	15340
849.192	15207
849.328	15252
849.463	15173
849.598	15116
849.734	15036
849.869	15062
850.004	15039
850.14	15036
850.275	14902
850.41	14804
850.545	14895
850.68	14880
850.815	14857
850.95	14891
851.085	15005
851.22	14994
851.355	14910
851.49	14758
851.625	14853
851.76	14880
851.895	14838
852.03	14792
852.165	14883
852.299	14948
852.434	15020
852.569	14845
852.703	14941
852.838	15058
852.973	14986
853.107	15112
853.242	14861
853.376	14830
853.511	14720
853.645	14724
853.78	14944
853.914	14720
854.048	14800
854.183	14762
854.317	14864
854.451	14994
854.585	14762
854.72	14796
854.854	14834
854.988	14720
855.122	14750
855.256	14602
855.39	14796
855.524	14849
855.658	14785
855.792	14773
855.926	14762
856.06	14735
856.194	14849
856.327	14834
856.461	14667
856.595	14674
856.729	14727
856.862	14883
856.996	14678
857.13	14804
857.263	14864
857.397	14872
857.53	14838
857.664	14815
857.797	14830
857.931	14933
858.064	14769
858.197	14963
858.331	14842
858.464	14598
858.597	14606
858.731	14758
858.864	14769
858.997	14796
859.13	14785
859.263	14785
859.396	14838
859.529	14804
859.662	14781
859.795	14826
859.928	14807
860.061	14956
860.194	14880
860.327	14800
860.46	14746
860.592	14948
860.725	14956
860.858	14941
860.99	14819
861.123	14792
861.256	14705
861.388	14811
861.521	15530
861.653	14727
861.786	14587
861.918	14701
862.05	14705
862.183	14750
862.315	14781
862.447	14773
862.58	14705
862.712	14602
862.844	14526
862.976	14663
863.108	14648
863.24	14960
863.372	14469
863.504	14541
863.636	14469
863.768	14514
863.9	14473
864.032	14480
864.164	14476
864.296	14629
864.428	14693
864.559	14640
864.691	14636
864.823	14636
864.954	14598
865.086	14575
865.217	14621
865.349	14438
865.48	14629
865.612	14682
865.743	14644
865.875	14587
866.006	14514
866.137	14530
866.269	14488
866.4	14560
866.531	14556
866.662	14469
866.793	14389
866.924	14480
867.055	14537
867.186	14613
867.317	14434
867.448	14396
867.579	14568
867.71	14469
867.841	14473
867.972	14499
868.103	14587
868.233	14503
868.364	14598
868.495	14579
868.625	14765
868.756	14765
868.886	14663
869.017	14811
869.147	14887
869.278	14963
869.408	14792
869.539	14815
869.669	14864
869.799	14864
869.929	14941
870.06	14857
870.19	15135
870.32	15047
870.45	15135
870.58	15218
870.71	15256
870.84	15302
870.97	15157
871.1	15161
871.23	15317
871.36	15374
871.489	15264
871.619	15291
871.749	15351
871.879	15340
872.008	15420
872.138	15416
872.267	15340
872.397	15272
872.526	15203
872.656	15169
872.785	15131
872.915	15412
873.044	15496
873.173	15359
873.303	15416
873.432	15481
873.561	15519
873.69	15416
873.819	15408
873.948	15435
874.077	15447
874.206	15416
874.335	15355
874.464	15561
874.593	15660
874.722	15648
874.851	15781
874.979	15713
875.108	15713
875.237	15713
875.365	15656
875.494	15682
875.623	15884
875.751	15682
875.88	15736
876.008	15888
876.136	15831
876.265	16185
876.393	16272
876.521	16265
876.65	16238
876.778	16154
876.906	16090
877.034	16074
877.162	16253
877.29	16116
877.418	16086
877.546	16150
877.674	16135
877.802	16040
877.93	16105
878.058	16143
878.185	16074
878.313	16071
878.441	16192
878.568	15972
878.696	16131
878.824	16185
878.951	16230
879.079	16386
879.206	16478
879.333	16447
879.461	16280
879.588	16402
879.715	16447
879.842	16493
879.97	16306
880.097	16078
880.224	16074
880.351	16105
880.478	16010
880.605	15991
880.732	15975
880.859	16268
880.986	16055
881.112	16097
881.239	15819
881.366	15884
881.493	15720
881.619	15595
881.746	15648
881.872	15709
881.999	15656
882.125	15580
882.252	15728
882.378	15641
882.505	15732
882.631	15545
882.757	15405
882.883	15549
883.01	15519
883.136	15405
883.262	15351
883.388	15348
883.514	15458
883.64	15511
883.766	15488
883.892	15405
884.018	15283
884.143	15416
884.269	15614
884.395	15207
884.52	15264
884.646	15203
884.772	15066
884.897	15077
885.023	15188
885.148	15241
885.274	15313
885.399	15283
885.524	15207
885.65	15180
885.775	15260
885.9	15195
886.025	15260
886.15	15275
886.275	15013
886.4	15093
886.525	15104
886.65	15112
886.775	15036
886.9	15252
887.025	15401
887.149	15047
887.274	15123
887.399	14933
887.523	15051
887.648	14853
887.773	14842
887.897	15123
888.021	15001
888.146	14956
888.27	15081
888.395	15097
888.519	14975
888.643	14967
888.767	15062
888.891	14929
889.015	14804
889.139	14960
889.263	14811
889.387	14895
889.511	14986
889.635	14979
889.759	14891
889.883	14823
890.006	14899
890.13	14944
890.254	14777
890.377	14845
890.501	14720
890.624	14571
890.748	14724
890.871	14629
890.995	14503
891.118	14415
891.241	14507
891.364	14587
891.488	14682
891.611	14492
891.734	14564
891.857	14560
891.98	14511
892.103	14693
892.226	14674
892.349	14571
892.471	14408
892.594	14457
892.717	14621
892.839	14522
892.962	14602
893.085	14629
893.207	14526
893.33	14450
893.452	14431
893.575	14492
893.697	14514
893.819	14568
893.941	14746
894.064	14636
894.186	14465
894.308	14492
894.43	14594
894.552	14651
894.674	14682
894.796	14526
894.918	14518
895.04	14549
895.161	14617
895.283	14610
895.405	14560
895.526	14587
895.648	14621
895.769	14632
895.891	14724
896.012	14823
896.134	14720
896.255	14613
896.376	14670
896.498	14682
896.619	14708
896.74	14678
896.861	14796
896.982	15009
897.103	15173
897.224	14910
897.345	14967
897.466	14910
897.587	14925
897.708	15116
897.828	15005
897.949	14952
898.07	14906
898.19	14921
898.311	15028
898.431	14876
898.552	15013
898.672	15135
898.792	15081
898.913	15089
899.033	15043
899.153	14948
899.273	14792
899.393	14857
899.513	14944
899.633	14842
899.753	14887
899.873	14918
899.993	14899
900.113	14807
900.232	14895
900.352	14872
900.472	14788
900.591	14621
900.711	14796
900.83	14667
900.95	14800
901.069	14918
901.189	14667
901.308	14530
901.427	14355
901.546	14362
901.665	14602
901.784	14275
901.904	14324
902.023	14202
902.141	14005
902.26	13887
902.379	14088
902.498	14096
902.617	13944
902.735	13989
902.854	13830
902.973	13807
903.091	13731
903.21	13681
903.328	13651
903.446	13590
903.565	13567
903.683	13552
903.801	13346
903.919	13567
904.038	13438
904.156	13293
904.274	13445
904.392	13320
904.51	13438
904.627	13244
904.745	13369
904.863	13335
904.981	13137
905.098	12935
905.216	13057
905.334	13031
905.451	13042
905.569	13023
905.686	13034
905.803	13008
905.921	12844
906.038	12871
906.155	12814
906.272	12696
906.389	12867
906.506	12669
906.623	12616
906.74	12623
906.857	12486
906.974	12540
907.091	12650
907.208	12734
907.324	12669
907.441	12563
907.557	12445
907.674	12346
907.79	12311
907.907	12281
908.023	12395
908.139	12338
908.256	12330
908.372	12300
908.488	12239
908.604	12220
908.72	12114
908.836	12117
908.952	12049
909.068	12140
909.184	12213
909.3	12022
909.415	12254
909.531	12098
909.647	11954
909.762	11832
909.878	11866
909.993	11843
910.108	11843
910.224	11783
910.339	11931
910.454	11779
910.57	11729
910.685	11695
910.8	11893
910.915	11889
911.03	11771
911.145	11668
911.259	11547
911.374	11577
911.489	11501
911.604	11383
911.718	11315
911.833	11326
911.947	11193
912.062	11140
912.176	11284
912.291	11379
912.405	11315
912.519	11493
912.633	11630
912.748	11436
912.862	11292
912.976	11204
913.09	11136
913.204	11052
913.318	11159
913.431	11277
913.545	11269
913.659	11277
913.772	11223
913.886	11212
914	10991
914.113	11113
914.226	11159
914.34	11197
914.453	10980
914.566	11147
914.68	11045
914.793	11010
914.906	10797
915.019	10778
915.132	10702
915.245	10790
915.358	10839
915.47	10797
915.583	10828
915.696	10755
915.809	10946
915.921	10942
916.034	10763
916.146	10687
916.259	10793
916.371	10938
916.483	10778
916.595	10679
916.708	10687
916.82	10774
916.932	10691
917.044	10710
917.156	10725
917.268	10607
917.38	10554
917.491	10645
917.603	10542
917.715	10710
917.826	10721
917.938	10634
918.049	10531
918.161	10611
918.272	10744
918.384	10698
918.495	10592
918.606	10516
918.717	10417
918.828	10535
918.939	10607
919.05	10382
919.161	10542
919.272	10341
919.383	10402
919.494	10512
919.604	10778
919.715	10554
919.826	10519
919.936	10485
920.047	10565
920.157	10508
920.267	10668
920.378	10565
920.488	10455
920.598	10664
920.708	10763
920.818	10679
920.928	10717
921.038	10843
921.148	10812
921.258	10554
921.368	10470
921.477	10363
921.587	10402
921.697	10169
921.806	10421
921.916	10246
922.025	10135
922.134	10025
922.244	10032
922.353	10048
922.462	9964
922.571	9903
922.68	9740
922.789	9675
922.898	9793
923.007	9709
923.116	9797
923.224	9705
923.333	9701
923.442	9660
923.55	9625
923.659	9694
923.767	9740
923.876	9610
923.984	9625
924.092	9591
924.201	9698
924.309	9538
924.417	9580
924.525	9534
924.633	9504
924.741	10257
924.849	9370
924.956	9526
925.064	9397
925.172	9287
925.279	9359
925.387	9397
925.494	9370
925.602	9454
925.709	9477
925.816	9310
925.924	9374
926.031	9473
926.138	9397
926.245	9359
926.352	9329
926.459	9473
926.566	9443
926.673	9393
926.779	9253
926.886	9184
926.993	9123
927.099	9062
927.206	9009
927.312	8994
927.419	9176
927.525	9123
927.631	9138
927.737	9043
927.843	8971
927.95	8952
928.056	8963
928.162	8956
928.267	9062
928.373	9648
928.479	9074
928.585	8788
928.69	8982
928.796	9020
928.901	8929
929.007	8701
929.112	8880
929.218	8838
929.323	8754
929.428	8750
929.533	8921
929.638	8705
929.743	8830
929.848	8876
929.953	8773
930.058	8651
930.163	8556
930.267	8636
930.372	8724
930.477	8537
930.581	8773
930.685	8632
930.79	8499
930.894	8533
930.998	8507
931.103	8644
931.207	8282
931.311	8248
931.415	8176
931.519	7986
931.623	7978
