Data from test_V78500241_2806.txt Node
Date: Fri Mar 25 14:53:15 CST 2022
User: usil
Spectrometer: V785-0024
Trigger mode: 0
Integration Time (sec): 4.000000E-1
Scans to average: 1
Nonlinearity correction enabled: false
Boxcar width: 0
Storing dark spectrum: false
XAxis mode: Wavelengths
Number of Pixels in Spectrum: 1024
>>>>>Begin Spectral Data<<<<<
801.071	22090
801.214	21964
801.356	21736
801.499	21732
801.641	21481
801.783	21408
801.926	21443
802.068	21336
802.211	21237
802.353	21165
802.496	20941
802.638	20830
802.78	20933
802.923	20796
803.065	20663
803.208	20659
803.35	20686
803.492	20689
803.635	20765
803.777	20746
803.919	20746
804.061	21070
804.204	20826
804.346	20720
804.488	20613
804.63	20674
804.773	20625
804.915	20655
805.057	20720
805.199	20663
805.341	20716
805.483	20773
805.626	20796
805.768	20716
805.91	20655
806.052	20625
806.194	20514
806.336	20720
806.478	20598
806.62	20629
806.762	20735
806.904	20845
807.046	21096
807.188	21100
807.33	21093
807.472	21062
807.614	20975
807.756	20933
807.898	20746
808.04	20697
808.182	20842
808.324	20800
808.465	20861
808.607	20990
808.749	21024
808.891	21161
809.033	21245
809.174	21043
809.316	21096
809.458	21005
809.6	20994
809.741	21043
809.883	21020
810.025	21157
810.166	21264
810.308	21237
810.45	21241
810.591	20990
810.733	20921
810.875	20880
811.016	20864
811.158	20674
811.299	20845
811.441	20899
811.582	20963
811.724	20872
811.865	20659
812.007	20872
812.148	20781
812.29	20773
812.431	20937
812.573	21131
812.714	21199
812.855	21367
812.997	21485
813.138	21603
813.279	21435
813.421	21287
813.562	21199
813.703	21047
813.845	20998
813.986	20739
814.127	20404
814.268	20556
814.41	20419
814.551	20423
814.692	20412
814.833	20298
814.974	20408
815.115	20305
815.256	20142
815.397	20225
815.539	20218
815.68	20111
815.821	20027
815.962	20069
816.103	20096
816.244	19898
816.385	19898
816.526	19715
816.666	19708
816.807	19559
816.948	19696
817.089	19601
817.23	19544
817.371	19483
817.512	19506
817.653	19506
817.793	19422
817.934	19480
818.075	19559
818.216	19453
818.356	19464
818.497	19453
818.638	19088
818.778	19187
818.919	19202
819.06	19274
819.2	19430
819.341	19289
819.481	19327
819.622	19464
819.762	19708
819.903	19601
820.043	19445
820.184	19518
820.324	19392
820.465	19464
820.605	19567
820.746	19502
820.886	19316
821.026	19453
821.167	19346
821.307	19441
821.447	19502
821.588	19407
821.728	19179
821.868	19061
822.008	18772
822.149	18935
822.289	18935
822.429	18582
822.569	18589
822.709	18559
822.849	18388
822.99	18422
823.13	18384
823.27	18239
823.41	18243
823.55	18178
823.69	18247
823.83	18220
823.97	18182
824.11	17920
824.25	17931
824.389	17980
824.529	18049
824.669	17996
824.809	18007
824.949	18045
825.089	17885
825.228	18041
825.368	17828
825.508	17718
825.648	17790
825.787	17729
825.927	17904
826.067	17623
826.206	17760
826.346	17737
826.485	17714
826.625	17653
826.765	17843
826.904	17695
827.044	17512
827.183	17554
827.323	17471
827.462	17493
827.601	17414
827.741	17391
827.88	17406
828.02	17296
828.159	17318
828.298	17417
828.437	17455
828.577	17398
828.716	17539
828.855	17334
828.994	17223
829.134	17178
829.273	17174
829.412	17121
829.551	17105
829.69	17189
829.829	17128
829.968	17246
830.107	17200
830.246	17246
830.385	17086
830.524	17029
830.663	17025
830.802	16934
830.941	16831
831.08	16736
831.219	16763
831.357	16873
831.496	17117
831.635	16759
831.774	16645
831.913	16725
832.051	16664
832.19	16592
832.329	16611
832.467	16424
832.606	16455
832.744	16603
832.883	16379
833.022	16398
833.16	16481
833.299	16436
833.437	16478
833.576	16561
833.714	16485
833.852	16516
833.991	16561
834.129	16630
834.267	16481
834.406	16565
834.544	16607
834.682	16436
834.821	16519
834.959	16668
835.097	16478
835.235	16478
835.373	16641
835.511	16554
835.65	16428
835.788	16379
835.926	16249
836.064	16143
836.202	16230
836.34	16432
836.478	16470
836.615	16424
836.753	16481
836.891	16554
837.029	16417
837.167	16459
837.305	16409
837.443	16291
837.58	16261
837.718	16390
837.856	16299
837.993	16211
838.131	16375
838.269	16154
838.406	16310
838.544	16196
838.681	16021
838.819	16036
838.956	15846
839.094	15812
839.231	15911
839.369	16051
839.506	16303
839.643	16135
839.781	15960
839.918	15895
840.055	15861
840.193	15895
840.33	15770
840.467	15793
840.604	15899
840.742	16215
840.879	15793
841.016	15827
841.153	15869
841.29	15998
841.427	15937
841.564	15884
841.701	15850
841.838	15789
841.975	15808
842.112	15755
842.249	15679
842.385	15572
842.522	15869
842.659	15644
842.796	15625
842.933	15694
843.069	15682
843.206	15606
843.343	15690
843.479	15644
843.616	15762
843.752	15447
843.889	15348
844.025	15584
844.162	15466
844.298	15504
844.435	15473
844.571	15408
844.708	15447
844.844	15633
844.98	15603
845.117	15587
845.253	15397
845.389	15329
845.525	15344
845.661	15298
845.798	15230
845.934	15294
846.07	15146
846.206	15218
846.342	15298
846.478	15188
846.614	15020
846.75	14998
846.886	14963
847.022	15085
847.158	15043
847.294	14948
847.429	14998
847.565	15028
847.701	15211
847.837	14697
847.972	14720
848.108	14842
848.244	14819
848.379	14750
848.515	14640
848.65	14511
848.786	14590
848.921	14651
849.057	14682
849.192	14705
849.328	14594
849.463	14674
849.598	14613
849.734	14579
849.869	14507
850.004	14358
850.14	14473
850.275	14415
850.41	14313
850.545	14347
850.68	14358
850.815	14358
850.95	14370
851.085	14579
851.22	14404
851.355	14488
851.49	14381
851.625	14374
851.76	14415
851.895	14252
852.03	14244
852.165	14347
852.299	14389
852.434	14465
852.569	14385
852.703	14381
852.838	14415
852.973	14465
853.107	14610
853.242	14393
853.376	14218
853.511	14145
853.645	14168
853.78	14400
853.914	14218
854.048	14176
854.183	14172
854.317	14240
854.451	14423
854.585	14210
854.72	14263
854.854	14202
854.988	14134
855.122	14290
855.256	14115
855.39	14248
855.524	14275
855.658	14305
855.792	14298
855.926	14317
856.06	14233
856.194	14362
856.327	14305
856.461	14126
856.595	14138
856.729	14142
856.862	14339
856.996	14275
857.13	14248
857.263	14336
857.397	14400
857.53	14210
857.664	14221
857.797	14347
857.931	14351
858.064	14343
858.197	14305
858.331	14256
858.464	14172
858.597	14138
858.731	14221
858.864	14202
858.997	14229
859.13	14290
859.263	14199
859.396	14286
859.529	14195
859.662	14240
859.795	14138
859.928	14244
860.061	14339
860.194	14408
860.327	14336
860.46	14278
860.592	14385
860.725	14332
860.858	14362
860.99	14218
861.123	14233
861.256	14267
861.388	14225
861.521	14861
861.653	14107
861.786	14039
861.918	14058
862.05	14130
862.183	14157
862.315	14343
862.447	14237
862.58	14073
862.712	13993
862.844	13963
862.976	14103
863.108	14107
863.24	14457
863.372	13898
863.504	14031
863.636	14111
863.768	14050
863.9	14084
864.032	13940
864.164	13928
864.296	14077
864.428	14191
864.559	14035
864.691	14050
864.823	14115
864.954	14020
865.086	14142
865.217	14008
865.349	13902
865.48	13963
865.612	13982
865.743	14119
865.875	14020
866.006	13837
866.137	14012
866.269	13951
866.4	14016
866.531	14062
866.662	13974
866.793	13951
866.924	14005
867.055	14050
867.186	14024
867.317	13982
867.448	13852
867.579	13967
867.71	13925
867.841	13925
867.972	14008
868.103	13947
868.233	13967
868.364	13963
868.495	14046
868.625	14221
868.756	14267
868.886	14221
869.017	14229
869.147	14294
869.278	14389
869.408	14248
869.539	14187
869.669	14298
869.799	14286
869.929	14324
870.06	14408
870.19	14533
870.32	14507
870.45	14606
870.58	14606
870.71	14845
870.84	14815
870.97	14644
871.1	14640
871.23	14807
871.36	14845
871.489	14754
871.619	14777
871.749	14937
871.879	14872
872.008	14937
872.138	14800
872.267	14838
872.397	14796
872.526	14686
872.656	14682
872.785	14674
872.915	14819
873.044	15020
873.173	14807
873.303	14921
873.432	14975
873.561	14921
873.69	14883
873.819	14918
873.948	14887
874.077	14830
874.206	14902
874.335	14963
874.464	15066
874.593	15218
874.722	15180
874.851	15260
874.979	15237
875.108	15370
875.237	15142
875.365	15142
875.494	15123
875.623	15249
875.751	15272
875.88	15287
876.008	15447
876.136	15416
876.265	15682
876.393	15808
876.521	15648
876.65	15667
876.778	15599
876.906	15549
877.034	15504
877.162	15641
877.29	15629
877.418	15553
877.546	15599
877.674	15568
877.802	15576
877.93	15633
878.058	15622
878.185	15458
878.313	15736
878.441	15648
878.568	15553
878.696	15557
878.824	15610
878.951	15667
879.079	15797
879.206	15861
879.333	15876
879.461	15656
879.588	15736
879.715	15797
879.842	15895
879.97	15675
880.097	15507
880.224	15496
880.351	15431
880.478	15496
880.605	15462
880.732	15557
880.859	15629
880.986	15458
881.112	15584
881.239	15363
881.366	15230
881.493	15093
881.619	15165
881.746	15116
881.872	15116
881.999	15142
882.125	15119
882.252	15180
882.378	15157
882.505	15230
882.631	15077
882.757	15017
882.883	14979
883.01	14929
883.136	14994
883.262	14823
883.388	14880
883.514	14994
883.64	14971
883.766	14830
883.892	14750
884.018	14880
884.143	14914
884.269	15119
884.395	14746
884.52	14746
884.646	14655
884.772	14629
884.897	14450
885.023	14697
885.148	14811
885.274	14781
885.399	14773
885.524	14613
885.65	14667
885.775	14594
885.9	14708
886.025	14823
886.15	14792
886.275	14667
886.4	14568
886.525	14594
886.65	14594
886.775	14644
886.9	14750
887.025	14956
887.149	14598
887.274	14473
887.399	14442
887.523	14419
887.648	14366
887.773	14408
887.897	14552
888.021	14590
888.146	14355
888.27	14549
888.395	14598
888.519	14606
888.643	14457
888.767	14514
888.891	14419
889.015	14370
889.139	14374
889.263	14275
889.387	14507
889.511	14610
889.635	14522
889.759	14199
889.883	14286
890.006	14377
890.13	14457
890.254	14256
890.377	14252
890.501	14176
890.624	14187
890.748	14263
890.871	14092
890.995	14130
891.118	13955
891.241	14012
891.364	14039
891.488	14233
891.611	14043
891.734	14081
891.857	14183
891.98	13978
892.103	14050
892.226	13989
892.349	13959
892.471	13906
892.594	13970
892.717	14001
892.839	14012
892.962	14035
893.085	14084
893.207	14100
893.33	13967
893.452	13944
893.575	14111
893.697	13936
893.819	14244
893.941	14244
894.064	14191
894.186	14062
894.308	13989
894.43	14199
894.552	14233
894.674	14164
894.796	14065
894.918	14119
895.04	13989
895.161	14161
895.283	14180
895.405	14058
895.526	14183
895.648	14244
895.769	14142
895.891	14168
896.012	14309
896.134	14168
896.255	14221
896.376	14134
896.498	14259
896.619	14290
896.74	14233
896.861	14309
896.982	14640
897.103	14663
897.224	14568
897.345	14434
897.466	14374
897.587	14385
897.708	14568
897.828	14507
897.949	14511
898.07	14294
898.19	14446
898.311	14594
898.431	14571
898.552	14667
898.672	14590
898.792	14655
898.913	14511
899.033	14484
899.153	14412
899.273	14347
899.393	14446
899.513	14484
899.633	14427
899.753	14381
899.873	14267
899.993	14469
900.113	14438
900.232	14503
900.352	14484
900.472	14328
900.591	14221
900.711	14393
900.83	14275
900.95	14404
901.069	14324
901.189	14225
901.308	13982
901.427	13986
901.546	14035
901.665	13947
901.784	14069
901.904	13887
902.023	13814
902.141	13597
902.26	13487
902.379	13521
902.498	13628
902.617	13571
902.735	13491
902.854	13449
902.973	13499
903.091	13259
903.21	13171
903.328	13301
903.446	13156
903.565	13118
903.683	13080
903.801	13038
903.919	13050
904.038	13053
904.156	12966
904.274	12954
904.392	12859
904.51	12901
904.627	12894
904.745	12909
904.863	12935
904.981	12741
905.098	12589
905.216	12635
905.334	12608
905.451	12578
905.569	12646
905.686	12604
905.803	12642
905.921	12399
906.038	12479
906.155	12464
906.272	12391
906.389	12391
906.506	12224
906.623	12190
906.74	12235
906.857	12083
906.974	12129
907.091	12292
907.208	12342
907.324	12273
907.441	12117
907.557	12030
907.674	11954
907.79	11931
907.907	11931
908.023	12015
908.139	11965
908.256	11950
908.372	11828
908.488	11927
908.604	11737
908.72	11630
908.836	11703
908.952	11729
909.068	11710
909.184	11859
909.3	11729
909.415	11722
909.531	11661
909.647	11471
909.762	11493
909.878	11440
909.993	11501
910.108	11395
910.224	11478
910.339	11551
910.454	11395
910.57	11368
910.685	11174
910.8	11558
910.915	11474
911.03	11337
911.145	11181
911.259	11189
911.374	11212
911.489	11128
911.604	11132
911.718	10957
911.833	10934
911.947	10774
912.062	10744
912.176	10850
912.291	10938
912.405	10877
912.519	11102
912.633	11136
912.748	11025
912.862	10942
912.976	10828
913.09	10721
913.204	10759
913.318	10881
913.431	10805
913.545	10946
913.659	10957
913.772	10790
913.886	10706
914	10599
914.113	10793
914.226	10847
914.34	10744
914.453	10592
914.566	10744
914.68	10649
914.793	10706
914.906	10535
915.019	10478
915.132	10390
915.245	10424
915.358	10478
915.47	10462
915.583	10519
915.696	10443
915.809	10580
915.921	10596
916.034	10417
916.146	10409
916.259	10356
916.371	10508
916.483	10497
916.595	10363
916.708	10390
916.82	10409
916.932	10348
917.044	10390
917.156	10390
917.268	10207
917.38	10295
917.491	10303
917.603	10363
917.715	10421
917.826	10417
917.938	10265
918.049	10162
918.161	10303
918.272	10360
918.384	10405
918.495	10322
918.606	10181
918.717	10116
918.828	10181
918.939	10150
919.05	10040
919.161	10143
919.272	9941
919.383	10025
919.494	10166
919.604	10386
919.715	10086
919.826	10109
919.936	10185
920.047	10116
920.157	10173
920.267	10375
920.378	10211
920.488	10051
920.598	10459
920.708	10504
920.818	10375
920.928	10386
921.038	10538
921.148	10500
921.258	10249
921.368	10051
921.477	10112
921.587	10071
921.697	9983
921.806	9983
921.916	9941
922.025	9793
922.134	9717
922.244	9717
922.353	9755
922.462	9599
922.571	9591
922.68	9424
922.789	9367
922.898	9401
923.007	9359
923.116	9447
923.224	9443
923.333	9424
923.442	9260
923.55	9336
923.659	9393
923.767	9431
923.876	9363
923.984	9344
924.092	9192
924.201	9374
924.309	9233
924.417	9367
924.525	9325
924.633	9207
924.741	9994
924.849	9070
924.956	9245
925.064	9066
925.172	9032
925.279	8986
925.387	9119
925.494	9093
925.602	9184
925.709	9188
925.816	9039
925.924	9157
926.031	9203
926.138	9066
926.245	9154
926.352	9043
926.459	9127
926.566	9184
926.673	9055
926.779	8925
926.886	8956
926.993	8811
927.099	8826
927.206	8731
927.312	8636
927.419	8785
927.525	8766
927.631	8864
927.737	8716
927.843	8674
927.95	8552
928.056	8724
928.162	8686
928.267	8811
928.373	9317
928.479	8800
928.585	8560
928.69	8644
928.796	8750
928.901	8552
929.007	8465
929.112	8575
929.218	8579
929.323	8575
929.428	8476
929.533	8571
929.638	8533
929.743	8484
929.848	8594
929.953	8511
930.058	8492
930.163	8275
930.267	8305
930.372	8438
930.477	8263
930.581	8537
930.685	8370
930.79	8210
930.894	8271
930.998	8237
931.103	8389
931.207	8069
931.311	8001
931.415	7909
931.519	7795
931.623	7696
