Data from test_V78500241_946.txt Node
Date: Fri Mar 25 14:40:18 CST 2022
User: usil
Spectrometer: V785-0024
Trigger mode: 0
Integration Time (sec): 4.000000E-1
Scans to average: 1
Nonlinearity correction enabled: false
Boxcar width: 0
Storing dark spectrum: false
XAxis mode: Wavelengths
Number of Pixels in Spectrum: 1024
>>>>>Begin Spectral Data<<<<<
801.071	24342
801.214	24285
801.356	24034
801.499	23737
801.641	23680
801.783	23653
801.926	23608
802.068	23509
802.211	23543
802.353	23410
802.496	23220
802.638	23109
802.78	23246
802.923	23155
803.065	23025
803.208	23071
803.35	22961
803.492	23181
803.635	23181
803.777	23041
803.919	23140
804.061	23311
804.204	23022
804.346	23048
804.488	22873
804.63	22995
804.773	22923
804.915	23067
805.057	23094
805.199	22942
805.341	23014
805.483	23239
805.626	23041
805.768	23006
805.91	23006
806.052	23014
806.194	23037
806.336	23242
806.478	23117
806.62	23143
806.762	23246
806.904	23372
807.046	23638
807.188	23676
807.33	23646
807.472	23733
807.614	23672
807.756	24015
807.898	23790
808.04	23992
808.182	24296
808.324	24509
808.465	24958
808.607	25282
808.749	25651
808.891	25788
809.033	26027
809.174	25651
809.316	25320
809.458	24970
809.6	24639
809.741	24315
809.883	24220
810.025	24251
810.166	23969
810.308	23912
810.45	23859
810.591	23802
810.733	23554
810.875	23402
811.016	23292
811.158	23307
811.299	23330
811.441	23402
811.582	23501
811.724	23174
811.865	23242
812.007	23269
812.148	23208
812.29	23284
812.431	23459
812.573	23581
812.714	23657
812.855	23676
812.997	23863
813.138	23874
813.279	23927
813.421	23745
813.562	23665
813.703	23459
813.845	23315
813.986	23064
814.127	22942
814.268	22896
814.41	22778
814.551	22740
814.692	22824
814.833	22645
814.974	22824
815.115	22748
815.256	22512
815.397	22596
815.539	22523
815.68	22474
815.821	22447
815.962	22504
816.103	22413
816.244	22265
816.385	22287
816.526	22147
816.666	21979
816.807	21793
816.948	21869
817.089	22036
817.23	21880
817.371	21857
817.512	21838
817.653	21873
817.793	21759
817.934	21899
818.075	21812
818.216	21797
818.356	21812
818.497	21633
818.638	21511
818.778	21564
818.919	21580
819.06	21663
819.2	21583
819.341	21637
819.481	21736
819.622	21819
819.762	21994
819.903	22013
820.043	21911
820.184	21804
820.324	21808
820.465	21865
820.605	21793
820.746	21915
820.886	21724
821.026	21713
821.167	21785
821.307	21785
821.447	21599
821.588	21595
821.728	21572
821.868	21370
822.008	21256
822.149	21214
822.289	21150
822.429	20952
822.569	20880
822.709	20880
822.849	20629
822.99	20560
823.13	20488
823.27	20640
823.41	20492
823.55	20423
823.69	20446
823.83	20480
823.97	20396
824.11	20286
824.25	20142
824.389	20183
824.529	20225
824.669	20256
824.809	20404
824.949	20313
825.089	20336
825.228	20218
825.368	20062
825.508	20130
825.648	19997
825.787	20058
825.927	20035
826.067	19997
826.206	19917
826.346	20054
826.485	19986
826.625	19921
826.765	20096
826.904	19951
827.044	19864
827.183	19700
827.323	19776
827.462	19769
827.601	19750
827.741	19651
827.88	19666
828.02	19605
828.159	19601
828.298	19693
828.437	19616
828.577	19696
828.716	19750
828.855	19559
828.994	19407
829.134	19415
829.273	19480
829.412	19457
829.551	19274
829.69	19365
829.829	19369
829.968	19422
830.107	19552
830.246	19426
830.385	19270
830.524	19293
830.663	19194
830.802	19057
830.941	19046
831.08	18920
831.219	19133
831.357	18954
831.496	19179
831.635	18977
831.774	18962
831.913	18989
832.051	18700
832.19	18741
832.329	18810
832.467	18585
832.606	18593
832.744	18669
832.883	18620
833.022	18677
833.16	18703
833.299	18707
833.437	18715
833.576	18802
833.714	18783
833.852	18954
833.991	18798
834.129	18882
834.267	18817
834.406	18837
834.544	18905
834.682	18722
834.821	18802
834.959	18753
835.097	18604
835.235	18814
835.373	18719
835.511	18707
835.65	18684
835.788	18506
835.926	18460
836.064	18334
836.202	18361
836.34	18623
836.478	18707
836.615	18547
836.753	18620
836.891	18578
837.029	18570
837.167	18547
837.305	18582
837.443	18441
837.58	18338
837.718	18407
837.856	18471
837.993	18296
838.131	18464
838.269	18262
838.406	18327
838.544	18232
838.681	17977
838.819	18015
838.956	17988
839.094	17920
839.231	17931
839.369	18007
839.506	18304
839.643	18110
839.781	17935
839.918	17821
840.055	17950
840.193	17912
840.33	17863
840.467	17901
840.604	17942
840.742	18220
840.879	17729
841.016	17714
841.153	17760
841.29	17912
841.427	17817
841.564	17726
841.701	17893
841.838	17775
841.975	17672
842.112	17657
842.249	17596
842.385	17646
842.522	17790
842.659	17691
842.796	17684
842.933	17539
843.069	17729
843.206	17608
843.343	17703
843.479	17649
843.616	17634
843.752	17433
843.889	17440
844.025	17558
844.162	17459
844.298	17509
844.435	17429
844.571	17436
844.708	17547
844.844	17714
844.98	17680
845.117	17745
845.253	17672
845.389	17741
845.525	18117
845.661	18642
845.798	19145
845.934	19951
846.07	20138
846.206	20149
846.342	19715
846.478	18962
846.614	18034
846.75	17573
846.886	17337
847.022	17353
847.158	17223
847.294	17090
847.429	17067
847.565	17037
847.701	17231
847.837	16729
847.972	16694
848.108	16790
848.244	16877
848.379	16634
848.515	16508
848.65	16531
848.786	16500
848.921	16615
849.057	16729
849.192	16626
849.328	16577
849.463	16516
849.598	16478
849.734	16417
849.869	16337
850.004	16337
850.14	16310
850.275	16196
850.41	16242
850.545	16162
850.68	16200
850.815	16306
850.95	16166
851.085	16402
851.22	16310
851.355	16280
851.49	16177
851.625	16246
851.76	16169
851.895	16253
852.03	16135
852.165	16173
852.299	16325
852.434	16360
852.569	16185
852.703	16204
852.838	16295
852.973	16390
853.107	16337
853.242	16238
853.376	16101
853.511	16067
853.645	16101
853.78	16215
853.914	16143
854.048	16013
854.183	16074
854.317	16211
854.451	16246
854.585	16074
854.72	16051
854.854	16143
854.988	15998
855.122	16131
855.256	15960
855.39	16074
855.524	16215
855.658	16215
855.792	16162
855.926	16166
856.06	16177
856.194	16105
856.327	16109
856.461	15998
856.595	15979
856.729	16074
856.862	16219
856.996	16109
857.13	16207
857.263	16246
857.397	16169
857.53	16040
857.664	16082
857.797	16169
857.931	16116
858.064	16071
858.197	16185
858.331	16078
858.464	16029
858.597	15937
858.731	15918
858.864	16044
858.997	16025
859.13	16021
859.263	15972
859.396	16139
859.529	16143
859.662	16044
859.795	16013
859.928	16063
860.061	16299
860.194	16173
860.327	16150
860.46	16139
860.592	16158
860.725	16257
860.858	16154
860.99	16071
861.123	16017
861.256	15972
861.388	16029
861.521	16706
861.653	15991
861.786	15956
861.918	15998
862.05	15907
862.183	16036
862.315	16067
862.447	16139
862.58	16006
862.712	15797
862.844	15850
862.976	15831
863.108	15857
863.24	16310
863.372	15705
863.504	15762
863.636	15759
863.768	15895
863.9	15713
864.032	15675
864.164	15766
864.296	15819
864.428	15816
864.559	15899
864.691	15774
864.823	15842
864.954	15793
865.086	15835
865.217	15774
865.349	15625
865.48	15789
865.612	15793
865.743	15915
865.875	15766
866.006	15724
866.137	15698
866.269	15755
866.4	15736
866.531	15739
866.662	15629
866.793	15770
866.924	15717
867.055	15728
867.186	15690
867.317	15755
867.448	15679
867.579	15690
867.71	15606
867.841	15682
867.972	15751
868.103	15732
868.233	15831
868.364	15770
868.495	15884
868.625	15987
868.756	16166
868.886	15922
869.017	16044
869.147	16021
869.278	16048
869.408	16029
869.539	16044
869.669	16074
869.799	16040
869.929	16120
870.06	16101
870.19	16303
870.32	16253
870.45	16356
870.58	16428
870.71	16523
870.84	16481
870.97	16356
871.1	16352
871.23	16542
871.36	16516
871.489	16500
871.619	16550
871.749	16580
871.879	16694
872.008	16809
872.138	16603
872.267	16489
872.397	16611
872.526	16394
872.656	16584
872.785	16497
872.915	16618
873.044	16763
873.173	16634
873.303	16725
873.432	16672
873.561	16812
873.69	16725
873.819	16573
873.948	16733
874.077	16675
874.206	16611
874.335	16736
874.464	16759
874.593	16938
874.722	16961
874.851	16995
874.979	17048
875.108	17003
875.237	16923
875.365	16991
875.494	16961
875.623	17075
875.751	16965
875.88	17041
876.008	17136
876.136	17159
876.265	17463
876.393	17581
876.521	17478
876.65	17425
876.778	17459
876.906	17436
877.034	17265
877.162	17482
877.29	17372
877.418	17372
877.546	17524
877.674	17505
877.802	17490
877.93	17558
878.058	17516
878.185	17406
878.313	17512
878.441	17596
878.568	17482
878.696	17642
878.824	17756
878.951	17988
879.079	18266
879.206	18422
879.333	18639
879.461	18719
879.588	18928
879.715	19015
879.842	19004
879.97	18601
880.097	18125
880.224	17996
880.351	17809
880.478	17684
880.605	17600
880.732	17604
880.859	17798
880.986	17657
881.112	17680
881.239	17414
881.366	17436
881.493	17250
881.619	17246
881.746	17216
881.872	17239
881.999	17162
882.125	17185
882.252	17284
882.378	17288
882.505	17189
882.631	17212
882.757	17098
882.883	17181
883.01	17155
883.136	17045
883.262	16987
883.388	16980
883.514	17033
883.64	16999
883.766	16984
883.892	16881
884.018	16862
884.143	17048
884.269	17170
884.395	16828
884.52	16744
884.646	16740
884.772	16713
884.897	16573
885.023	16831
885.148	16900
885.274	16908
885.399	16885
885.524	16668
885.65	16763
885.775	16752
885.9	16634
886.025	16801
886.15	16771
886.275	16611
886.4	16558
886.525	16573
886.65	16573
886.775	16573
886.9	16687
887.025	16805
887.149	16607
887.274	16394
887.399	16363
887.523	16261
887.648	16223
887.773	16219
887.897	16356
888.021	16325
888.146	16234
888.27	16341
888.395	16440
888.519	16371
888.643	16356
888.767	16409
888.891	16173
889.015	16169
889.139	16169
889.263	16131
889.387	16188
889.511	16348
889.635	16204
889.759	16177
889.883	16128
890.006	16147
890.13	16181
890.254	15918
890.377	16071
890.501	15895
890.624	15892
890.748	15911
890.871	15709
890.995	15633
891.118	15717
891.241	15660
891.364	15705
891.488	15823
891.611	15701
891.734	15743
891.857	15781
891.98	15835
892.103	15835
892.226	15759
892.349	15747
892.471	15454
892.594	15606
892.717	15739
892.839	15675
892.962	15633
893.085	15739
893.207	15679
893.33	15660
893.452	15667
893.575	15846
893.697	15724
893.819	15827
893.941	15846
894.064	15846
894.186	15587
894.308	15717
894.43	15701
894.552	15892
894.674	15831
894.796	15667
894.918	15580
895.04	15713
895.161	15850
895.283	15808
895.405	15728
895.526	15747
895.648	15720
895.769	15789
895.891	15797
896.012	15876
896.134	15797
896.255	15759
896.376	15682
896.498	15789
896.619	15816
896.74	15717
896.861	15949
896.982	16086
897.103	16200
897.224	15998
897.345	16013
897.466	15934
897.587	15953
897.708	16093
897.828	16051
897.949	15983
898.07	15842
898.19	16063
898.311	16314
898.431	16059
898.552	16207
898.672	16109
898.792	16211
898.913	16086
899.033	16078
899.153	15994
899.273	15808
899.393	15918
899.513	15937
899.633	15941
899.753	16078
899.873	15911
899.993	15998
900.113	15964
900.232	15968
900.352	15899
900.472	15747
900.591	15778
900.711	15694
900.83	15831
900.95	15918
901.069	15922
901.189	15660
901.308	15606
901.427	15447
901.546	15439
901.665	15462
901.784	15481
901.904	15260
902.023	15252
902.141	15036
902.26	15036
902.379	15009
902.498	14880
902.617	14944
902.735	15089
902.854	14925
902.973	14929
903.091	14674
903.21	14689
903.328	14644
903.446	14659
903.565	14560
903.683	14419
903.801	14419
903.919	14492
904.038	14465
904.156	14355
904.274	14412
904.392	14309
904.51	14248
904.627	14320
904.745	14408
904.863	14282
904.981	14199
905.098	13989
905.216	14005
905.334	13986
905.451	14024
905.569	13940
905.686	13932
905.803	13967
905.921	13807
906.038	13837
906.155	13856
906.272	13601
906.389	13628
906.506	13552
906.623	13556
906.74	13480
906.857	13468
906.974	13422
907.091	13506
907.208	13578
907.324	13601
907.441	13441
907.557	13278
907.674	13247
907.79	13247
907.907	13190
908.023	13266
908.139	13244
908.256	13133
908.372	13137
908.488	13190
908.604	13057
908.72	12977
908.836	12920
908.952	12779
909.068	12943
909.184	13053
909.3	12962
909.415	12954
909.531	13000
909.647	12719
909.762	12760
909.878	12639
909.993	12673
910.108	12646
910.224	12700
910.339	12681
910.454	12631
910.57	12544
910.685	12471
910.8	12840
910.915	12677
911.03	12612
911.145	12418
911.259	12414
911.374	12342
911.489	12323
911.604	12300
911.718	12182
911.833	12129
911.947	12049
912.062	11950
912.176	12159
912.291	12072
912.405	12117
912.519	12311
912.633	12319
912.748	12213
912.862	12041
912.976	12068
913.09	11851
913.204	11939
913.318	12091
913.431	11969
913.545	12068
913.659	12171
913.772	11954
913.886	11882
914	11775
914.113	11927
914.226	11935
914.34	12060
914.453	11767
914.566	11927
914.68	11817
914.793	11745
914.906	11600
915.019	11570
915.132	11490
915.245	11615
915.358	11638
915.47	11611
915.583	11642
915.696	11520
915.809	11710
915.921	11676
916.034	11566
916.146	11486
916.259	11436
916.371	11581
916.483	11619
916.595	11543
916.708	11532
916.82	11505
916.932	11452
917.044	11334
917.156	11417
917.268	11349
917.38	11410
917.491	11303
917.603	11246
917.715	11444
917.826	11486
917.938	11368
918.049	11246
918.161	11349
918.272	11471
918.384	11406
918.495	11372
918.606	11220
918.717	11170
918.828	11124
918.939	11216
919.05	11147
919.161	11166
919.272	10927
919.383	11060
919.494	11208
919.604	11360
919.715	11265
919.826	11064
919.936	11166
920.047	11288
920.157	11246
920.267	11417
920.378	11227
920.488	11174
920.598	11330
920.708	11463
920.818	11383
920.928	11315
921.038	11528
921.148	11474
921.258	11246
921.368	11147
921.477	11045
921.587	11060
921.697	10900
921.806	10984
921.916	10896
922.025	10793
922.134	10694
922.244	10668
922.353	10790
922.462	10607
922.571	10516
922.68	10375
922.789	10402
922.898	10367
923.007	10310
923.116	10428
923.224	10379
923.333	10375
923.442	10325
923.55	10268
923.659	10253
923.767	10337
923.876	10246
923.984	10341
924.092	10124
924.201	10261
924.309	10242
924.417	10261
924.525	10188
924.633	10131
924.741	10976
924.849	10032
924.956	10150
925.064	9945
925.172	9869
925.279	9994
925.387	10036
925.494	9960
925.602	10162
925.709	10025
925.816	9869
925.924	9979
926.031	10040
926.138	9991
926.245	10013
926.352	9888
926.459	9987
926.566	10147
926.673	9941
926.779	9838
926.886	9854
926.993	9679
927.099	9682
927.206	9606
927.312	9625
927.419	9751
927.525	9698
927.631	9736
927.737	9618
927.843	9477
927.95	9454
928.056	9526
928.162	9549
928.267	9606
928.373	10063
928.479	9675
928.585	9466
928.69	9545
928.796	9614
928.901	9469
929.007	9332
929.112	9477
929.218	9424
929.323	9412
929.428	9351
929.533	9473
929.638	9336
929.743	9355
929.848	9325
929.953	9351
930.058	9237
930.163	9138
930.267	9188
930.372	9272
930.477	9089
930.581	9359
930.685	9142
930.79	9028
930.894	9100
930.998	9055
931.103	9173
931.207	8842
931.311	8826
931.415	8697
931.519	8438
931.623	8495
