Data from test_V78500241_3238.txt Node
Date: Fri Mar 25 14:56:15 CST 2022
User: usil
Spectrometer: V785-0024
Trigger mode: 0
Integration Time (sec): 4.000000E-1
Scans to average: 1
Nonlinearity correction enabled: false
Boxcar width: 0
Storing dark spectrum: false
XAxis mode: Wavelengths
Number of Pixels in Spectrum: 1024
>>>>>Begin Spectral Data<<<<<
801.071	21991
801.214	21922
801.356	21603
801.499	21561
801.641	21393
801.783	21397
801.926	21405
802.068	21298
802.211	21161
802.353	21131
802.496	21074
802.638	20769
802.78	20735
802.923	20689
803.065	20632
803.208	20530
803.35	20632
803.492	20720
803.635	20796
803.777	20727
803.919	20823
804.061	20952
804.204	20701
804.346	20632
804.488	20659
804.63	20644
804.773	20613
804.915	20587
805.057	20686
805.199	20541
805.341	20629
805.483	20651
805.626	20609
805.768	20484
805.91	20598
806.052	20560
806.194	20465
806.336	20689
806.478	20526
806.62	20484
806.762	20587
806.904	20785
807.046	20979
807.188	20849
807.33	20941
807.472	20929
807.614	20750
807.756	20815
807.898	20746
808.04	20621
808.182	20533
808.324	20739
808.465	20705
808.607	20887
808.749	20956
808.891	21043
809.033	21108
809.174	20990
809.316	20861
809.458	20990
809.6	20838
809.741	20979
809.883	21001
810.025	21074
810.166	21214
810.308	21077
810.45	21077
810.591	20899
810.733	20674
810.875	20746
811.016	20659
811.158	20720
811.299	20811
811.441	20716
811.582	20956
811.724	20697
811.865	20602
812.007	20807
812.148	20571
812.29	20708
812.431	20891
812.573	20979
812.714	21154
812.855	21310
812.997	21291
813.138	21389
813.279	21279
813.421	21252
813.562	21150
813.703	20975
813.845	20872
813.986	20518
814.127	20499
814.268	20240
814.41	20275
814.551	20313
814.692	20301
814.833	20119
814.974	20263
815.115	20309
815.256	20191
815.397	20077
815.539	20081
815.68	20054
815.821	19917
815.962	20001
816.103	20027
816.244	19753
816.385	19731
816.526	19784
816.666	19460
816.807	19316
816.948	19586
817.089	19491
817.23	19506
817.371	19377
817.512	19373
817.653	19403
817.793	19419
817.934	19377
818.075	19434
818.216	19377
818.356	19308
818.497	19202
818.638	19088
818.778	19057
818.919	19057
819.06	19129
819.2	19289
819.341	19270
819.481	19259
819.622	19426
819.762	19472
819.903	19495
820.043	19476
820.184	19491
820.324	19403
820.465	19422
820.605	19396
820.746	19335
820.886	19160
821.026	19339
821.167	19247
821.307	19438
821.447	19400
821.588	19148
821.728	19065
821.868	18897
822.008	18821
822.149	18791
822.289	18753
822.429	18547
822.569	18456
822.709	18509
822.849	18262
822.99	18315
823.13	18277
823.27	18235
823.41	18068
823.55	18015
823.69	18072
823.83	18171
823.97	18038
824.11	17870
824.25	17764
824.389	17821
824.529	17954
824.669	17889
824.809	17863
824.949	17882
825.089	17950
825.228	17771
825.368	17661
825.508	17661
825.648	17646
825.787	17691
825.927	17627
826.067	17497
826.206	17524
826.346	17783
826.485	17665
826.625	17615
826.765	17722
826.904	17707
827.044	17326
827.183	17421
827.323	17296
827.462	17376
827.601	17280
827.741	17261
827.88	17341
828.02	17246
828.159	17261
828.298	17334
828.437	17318
828.577	17250
828.716	17410
828.855	17189
828.994	17025
829.134	17105
829.273	17045
829.412	17117
829.551	16896
829.69	17037
829.829	17105
829.968	17113
830.107	17128
830.246	17200
830.385	17113
830.524	17060
830.663	16858
830.802	16809
830.941	16752
831.08	16664
831.219	16736
831.357	16759
831.496	16885
831.635	16672
831.774	16615
831.913	16542
832.051	16455
832.19	16432
832.329	16462
832.467	16451
832.606	16306
832.744	16242
832.883	16447
833.022	16360
833.16	16398
833.299	16421
833.437	16390
833.576	16348
833.714	16394
833.852	16478
833.991	16375
834.129	16451
834.267	16493
834.406	16424
834.544	16481
834.682	16360
834.821	16413
834.959	16611
835.097	16367
835.235	16561
835.373	16291
835.511	16440
835.65	16314
835.788	16402
835.926	16215
836.064	16196
836.202	16242
836.34	16333
836.478	16413
836.615	16234
836.753	16421
836.891	16516
837.029	16333
837.167	16284
837.305	16261
837.443	16295
837.58	16105
837.718	16299
837.856	16211
837.993	16158
838.131	16169
838.269	16204
838.406	16177
838.544	16112
838.681	15953
838.819	15937
838.956	15804
839.094	15732
839.231	15857
839.369	15888
839.506	16166
839.643	16006
839.781	15812
839.918	15732
840.055	15720
840.193	15850
840.33	15747
840.467	15720
840.604	15690
840.742	16006
840.879	15705
841.016	15564
841.153	15671
841.29	15945
841.427	15774
841.564	15827
841.701	15884
841.838	15690
841.975	15732
842.112	15679
842.249	15557
842.385	15561
842.522	15774
842.659	15557
842.796	15488
842.933	15618
843.069	15564
843.206	15458
843.343	15660
843.479	15572
843.616	15500
843.752	15321
843.889	15344
844.025	15389
844.162	15157
844.298	15424
844.435	15389
844.571	15287
844.708	15374
844.844	15428
844.98	15492
845.117	15428
845.253	15313
845.389	15195
845.525	15237
845.661	15291
845.798	15051
845.934	15211
846.07	15070
846.206	15226
846.342	15329
846.478	15283
846.614	14952
846.75	14891
846.886	14883
847.022	14963
847.158	15036
847.294	15005
847.429	14883
847.565	14796
847.701	15131
847.837	14640
847.972	14545
848.108	14720
848.244	14746
848.379	14492
848.515	14587
848.65	14446
848.786	14537
848.921	14530
849.057	14720
849.192	14537
849.328	14495
849.463	14503
849.598	14511
849.734	14374
849.869	14366
850.004	14351
850.14	14286
850.275	14263
850.41	14233
850.545	14176
850.68	14199
850.815	14332
850.95	14252
851.085	14438
851.22	14343
851.355	14370
851.49	14298
851.625	14332
851.76	14332
851.895	14157
852.03	14187
852.165	14271
852.299	14199
852.434	14347
852.569	14324
852.703	14339
852.838	14415
852.973	14415
853.107	14393
853.242	14195
853.376	14134
853.511	14065
853.645	14119
853.78	14267
853.914	14149
854.048	14107
854.183	14126
854.317	14107
854.451	14244
854.585	14164
854.72	14153
854.854	14221
854.988	14092
855.122	14054
855.256	14035
855.39	14107
855.524	14221
855.658	14206
855.792	14084
855.926	14183
856.06	14168
856.194	14248
856.327	14142
856.461	14039
856.595	14092
856.729	14100
856.862	14290
856.996	14138
857.13	14240
857.263	14263
857.397	14233
857.53	14069
857.664	14134
857.797	14195
857.931	14248
858.064	14218
858.197	14240
858.331	14138
858.464	14088
858.597	14138
858.731	14164
858.864	14073
858.997	14202
859.13	14237
859.263	14161
859.396	14248
859.529	14180
859.662	14107
859.795	14134
859.928	14248
860.061	14275
860.194	14298
860.327	14210
860.46	14145
860.592	14214
860.725	14317
860.858	14168
860.99	14172
861.123	14058
861.256	14168
861.388	14164
861.521	14887
861.653	14100
861.786	14020
861.918	14138
862.05	14103
862.183	14115
862.315	14229
862.447	14233
862.58	14183
862.712	14062
862.844	13970
862.976	14069
863.108	14005
863.24	14545
863.372	13902
863.504	14035
863.636	13940
863.768	13963
863.9	13955
864.032	13875
864.164	14008
864.296	13913
864.428	14164
864.559	14046
864.691	14153
864.823	14008
864.954	14054
865.086	13959
865.217	14024
865.349	13959
865.48	13982
865.612	13967
865.743	14134
865.875	13951
866.006	13959
866.137	13947
866.269	13974
866.4	13963
866.531	14005
866.662	13883
866.793	13868
866.924	14005
867.055	13974
867.186	13906
867.317	13868
867.448	13921
867.579	13875
867.71	13837
867.841	13883
867.972	13898
868.103	14062
868.233	13974
868.364	13940
868.495	14050
868.625	14157
868.756	14339
868.886	14107
869.017	14145
869.147	14385
869.278	14237
869.408	14267
869.539	14115
869.669	14298
869.799	14275
869.929	14351
870.06	14370
870.19	14564
870.32	14484
870.45	14579
870.58	14788
870.71	14788
870.84	14743
870.97	14640
871.1	14556
871.23	14811
871.36	14781
871.489	14617
871.619	14731
871.749	14830
871.879	14845
872.008	14921
872.138	14819
872.267	14785
872.397	14705
872.526	14693
872.656	14674
872.785	14663
872.915	14887
873.044	14838
873.173	14777
873.303	14929
873.432	14823
873.561	14948
873.69	14921
873.819	14880
873.948	14948
874.077	14815
874.206	14921
874.335	14845
874.464	15081
874.593	15192
874.722	15028
874.851	15207
874.979	15195
875.108	15188
875.237	15214
875.365	15100
875.494	15093
875.623	15302
875.751	15233
875.88	15188
876.008	15386
876.136	15428
876.265	15629
876.393	15717
876.521	15698
876.65	15629
876.778	15709
876.906	15648
877.034	15568
877.162	15526
877.29	15462
877.418	15618
877.546	15682
877.674	15572
877.802	15580
877.93	15542
878.058	15641
878.185	15492
878.313	15519
878.441	15523
878.568	15450
878.696	15564
878.824	15500
878.951	15606
879.079	15797
879.206	15895
879.333	15724
879.461	15644
879.588	15679
879.715	15854
879.842	15797
879.97	15648
880.097	15401
880.224	15454
880.351	15401
880.478	15466
880.605	15386
880.732	15401
880.859	15610
880.986	15447
881.112	15462
881.239	15329
881.366	15226
881.493	15085
881.619	15009
881.746	15093
881.872	15146
881.999	15039
882.125	15001
882.252	15165
882.378	15161
882.505	15146
882.631	15051
882.757	14960
882.883	15005
883.01	14842
883.136	14944
883.262	14876
883.388	14796
883.514	14891
883.64	14918
883.766	14937
883.892	14746
884.018	14834
884.143	14979
884.269	14990
884.395	14587
884.52	14610
884.646	14754
884.772	14583
884.897	14625
885.023	14674
885.148	14735
885.274	14762
885.399	14731
885.524	14644
885.65	14716
885.775	14625
885.9	14541
886.025	14800
886.15	14670
886.275	14670
886.4	14541
886.525	14678
886.65	14560
886.775	14507
886.9	14682
887.025	14895
887.149	14659
887.274	14484
887.399	14499
887.523	14434
887.648	14313
887.773	14358
887.897	14568
888.021	14511
888.146	14415
888.27	14640
888.395	14590
888.519	14476
888.643	14511
888.767	14541
888.891	14404
889.015	14259
889.139	14400
889.263	14343
889.387	14545
889.511	14484
889.635	14438
889.759	14244
889.883	14225
890.006	14320
890.13	14389
890.254	14229
890.377	14263
890.501	14008
890.624	14134
890.748	14199
890.871	14065
890.995	13944
891.118	14005
891.241	14035
891.364	13978
891.488	14161
891.611	14016
891.734	14050
891.857	14126
891.98	14069
892.103	14084
892.226	14062
892.349	14024
892.471	13940
892.594	13970
892.717	14103
892.839	13993
892.962	14050
893.085	14088
893.207	14008
893.33	13978
893.452	13978
893.575	14130
893.697	13993
893.819	14111
893.941	14187
894.064	14229
894.186	13993
894.308	14001
894.43	14168
894.552	14256
894.674	14168
894.796	13963
894.918	14077
895.04	14043
895.161	14244
895.283	14115
895.405	14054
895.526	14126
895.648	14180
895.769	14100
895.891	14138
896.012	14313
896.134	14210
896.255	14168
896.376	14195
896.498	14134
896.619	14172
896.74	14176
896.861	14259
896.982	14457
897.103	14636
897.224	14522
897.345	14488
897.466	14393
897.587	14476
897.708	14613
897.828	14495
897.949	14400
898.07	14313
898.19	14404
898.311	14629
898.431	14530
898.552	14541
898.672	14667
898.792	14640
898.913	14682
899.033	14484
899.153	14385
899.273	14332
899.393	14374
899.513	14328
899.633	14355
899.753	14400
899.873	14332
899.993	14503
900.113	14450
900.232	14476
900.352	14370
900.472	14347
900.591	14252
900.711	14263
900.83	14256
900.95	14332
901.069	14431
901.189	14142
901.308	14069
901.427	13936
901.546	14016
901.665	13917
901.784	14062
901.904	13883
902.023	13772
902.141	13594
902.26	13559
902.379	13594
902.498	13476
902.617	13445
902.735	13556
902.854	13495
902.973	13449
903.091	13282
903.21	13221
903.328	13221
903.446	13198
903.565	13183
903.683	13095
903.801	12920
903.919	13027
904.038	12996
904.156	12939
904.274	13046
904.392	12798
904.51	12840
904.627	12916
904.745	13004
904.863	12962
904.981	12711
905.098	12578
905.216	12642
905.334	12631
905.451	12585
905.569	12563
905.686	12639
905.803	12623
905.921	12399
906.038	12517
906.155	12471
906.272	12296
906.389	12437
906.506	12087
906.623	12125
906.74	12235
906.857	12053
906.974	12045
907.091	12152
907.208	12334
907.324	12224
907.441	12140
907.557	11965
907.674	11958
907.79	11813
907.907	11935
908.023	11977
908.139	11931
908.256	11863
908.372	11809
908.488	11843
908.604	11726
908.72	11722
908.836	11611
908.952	11634
909.068	11824
909.184	11809
909.3	11600
909.415	11752
909.531	11733
909.647	11463
909.762	11398
909.878	11398
909.993	11505
910.108	11459
910.224	11368
910.339	11497
910.454	11387
910.57	11250
910.685	11227
910.8	11463
910.915	11452
911.03	11322
911.145	11193
911.259	11105
911.374	11136
911.489	11064
911.604	11037
911.718	10942
911.833	10862
911.947	10786
912.062	10767
912.176	10911
912.291	10930
912.405	10968
912.519	11083
912.633	11041
912.748	10999
912.862	10900
912.976	10843
913.09	10790
913.204	10675
913.318	10816
913.431	10930
913.545	10805
913.659	10934
913.772	10782
913.886	10725
914	10691
914.113	10717
914.226	10824
914.34	10653
914.453	10558
914.566	10828
914.68	10660
914.793	10535
914.906	10428
915.019	10417
915.132	10352
915.245	10363
915.358	10421
915.47	10470
915.583	10375
915.696	10489
915.809	10725
915.921	10569
916.034	10424
916.146	10375
916.259	10352
916.371	10584
916.483	10421
916.595	10356
916.708	10360
916.82	10360
916.932	10386
917.044	10356
917.156	10329
917.268	10211
917.38	10249
917.491	10261
917.603	10329
917.715	10382
917.826	10367
917.938	10246
918.049	10097
918.161	10230
918.272	10447
918.384	10413
918.495	10325
918.606	10124
918.717	10169
918.828	10131
918.939	10135
919.05	10071
919.161	10131
919.272	9907
919.383	10032
919.494	10177
919.604	10303
919.715	10173
919.826	10059
919.936	10128
920.047	10253
920.157	10162
920.267	10348
920.378	10158
920.488	10211
920.598	10436
920.708	10523
920.818	10314
920.928	10348
921.038	10500
921.148	10462
921.258	10128
921.368	10097
921.477	10059
921.587	9991
921.697	9915
921.806	10082
921.916	9907
922.025	9827
922.134	9720
922.244	9572
922.353	9705
922.462	9629
922.571	9572
922.68	9416
922.789	9428
922.898	9420
923.007	9439
923.116	9431
923.224	9374
923.333	9416
923.442	9264
923.55	9207
923.659	9348
923.767	9408
923.876	9275
923.984	9336
924.092	9226
924.201	9329
924.309	9344
924.417	9291
924.525	9233
924.633	9245
924.741	10135
924.849	9100
924.956	9214
925.064	8994
925.172	8967
925.279	9009
925.387	9150
925.494	9001
925.602	9169
925.709	9104
925.816	9013
925.924	9066
926.031	9131
926.138	9081
926.245	9161
926.352	9001
926.459	9192
926.566	9116
926.673	9024
926.779	8937
926.886	8899
926.993	8746
927.099	8781
927.206	8712
927.312	8781
927.419	8845
927.525	8842
927.631	8872
927.737	8766
927.843	8735
927.95	8579
928.056	8663
928.162	8651
928.267	8788
928.373	9275
928.479	8777
928.585	8625
928.69	8739
928.796	8644
928.901	8636
929.007	8465
929.112	8682
929.218	8632
929.323	8530
929.428	8541
929.533	8632
929.638	8450
929.743	8495
929.848	8488
929.953	8537
930.058	8412
930.163	8305
930.267	8263
930.372	8495
930.477	8290
930.581	8518
930.685	8381
930.79	8206
930.894	8240
930.998	8252
931.103	8431
931.207	8077
931.311	8035
931.415	7909
931.519	7837
931.623	7772
