Data from test_V78500241_1317.txt Node
Date: Fri Mar 25 14:42:53 CST 2022
User: usil
Spectrometer: V785-0024
Trigger mode: 0
Integration Time (sec): 4.000000E-1
Scans to average: 1
Nonlinearity correction enabled: false
Boxcar width: 0
Storing dark spectrum: false
XAxis mode: Wavelengths
Number of Pixels in Spectrum: 1024
>>>>>Begin Spectral Data<<<<<
801.071	22390
801.214	22337
801.356	22017
801.499	21804
801.641	21797
801.783	21739
801.926	21785
802.068	21675
802.211	21622
802.353	21618
802.496	21424
802.638	21169
802.78	21272
802.923	21165
803.065	21047
803.208	21116
803.35	21108
803.492	21218
803.635	21138
803.777	21165
803.919	21116
804.061	21435
804.204	21199
804.346	21070
804.488	20929
804.63	21039
804.773	20880
804.915	21009
805.057	21074
805.199	21077
805.341	21013
805.483	21066
805.626	21138
805.768	20956
805.91	20948
806.052	21081
806.194	20963
806.336	21131
806.478	21089
806.62	20986
806.762	21245
806.904	21241
807.046	21473
807.188	21401
807.33	21412
807.472	21386
807.614	21321
807.756	21412
807.898	21218
808.04	21135
808.182	21161
808.324	21302
808.465	21287
808.607	21450
808.749	21625
808.891	21724
809.033	21846
809.174	21660
809.316	21515
809.458	21477
809.6	21542
809.741	21633
809.883	21450
810.025	21698
810.166	21542
810.308	21580
810.45	21564
810.591	21447
810.733	21473
810.875	21233
811.016	21154
811.158	21142
811.299	21169
811.441	21321
811.582	21351
811.724	21279
811.865	21245
812.007	21176
812.148	21123
812.29	21218
812.431	21405
812.573	21511
812.714	21534
812.855	21641
812.997	21770
813.138	21804
813.279	21755
813.421	21667
813.562	21545
813.703	21462
813.845	21344
813.986	21058
814.127	20982
814.268	20792
814.41	20735
814.551	20807
814.692	20705
814.833	20625
814.974	20712
815.115	20670
815.256	20541
815.397	20480
815.539	20686
815.68	20385
815.821	20484
815.962	20488
816.103	20419
816.244	20282
816.385	20187
816.526	20218
816.666	20119
816.807	19734
816.948	20035
817.089	20115
817.23	19978
817.371	19837
817.512	19879
817.653	19807
817.793	19925
817.934	19925
818.075	19890
818.216	19845
818.356	19845
818.497	19575
818.638	19552
818.778	19533
818.919	19662
819.06	19525
819.2	19795
819.341	19753
819.481	19803
819.622	19864
819.762	20107
819.903	20005
820.043	19974
820.184	19807
820.324	19818
820.465	19944
820.605	19970
820.746	19822
820.886	19677
821.026	19856
821.167	19818
821.307	19997
821.447	19830
821.588	19594
821.728	19529
821.868	19495
822.008	19312
822.149	19274
822.289	19194
822.429	19008
822.569	18928
822.709	19069
822.849	18863
822.99	18837
823.13	18791
823.27	18669
823.41	18452
823.55	18464
823.69	18597
823.83	18661
823.97	18517
824.11	18361
824.25	18384
824.389	18372
824.529	18410
824.669	18410
824.809	18471
824.949	18517
825.089	18365
825.228	18369
825.368	18140
825.508	18136
825.648	18281
825.787	18296
825.927	18232
826.067	18030
826.206	18079
826.346	18190
826.485	18197
826.625	18228
826.765	18338
826.904	18140
827.044	17939
827.183	17851
827.323	17733
827.462	18034
827.601	17855
827.741	17767
827.88	17847
828.02	17710
828.159	17802
828.298	17904
828.437	17927
828.577	17828
828.716	17992
828.855	17809
828.994	17589
829.134	17482
829.273	17592
829.412	17585
829.551	17592
829.69	17627
829.829	17600
829.968	17661
830.107	17547
830.246	17532
830.385	17604
830.524	17528
830.663	17379
830.802	17220
830.941	17109
831.08	17181
831.219	17318
831.357	17204
831.496	17334
831.635	17239
831.774	17140
831.913	17140
832.051	16984
832.19	16923
832.329	17067
832.467	17010
832.606	16797
832.744	16828
832.883	16858
833.022	16847
833.16	16847
833.299	16915
833.437	16999
833.576	16957
833.714	16961
833.852	17041
833.991	16942
834.129	17083
834.267	17079
834.406	16961
834.544	16915
834.682	16987
834.821	16908
834.959	17041
835.097	16999
835.235	16972
835.373	16873
835.511	16957
835.65	16908
835.788	16839
835.926	16721
836.064	16649
836.202	16778
836.34	16869
836.478	16892
836.615	16877
836.753	16801
836.891	16949
837.029	16972
837.167	16778
837.305	16816
837.443	16862
837.58	16721
837.718	16786
837.856	16778
837.993	16653
838.131	16778
838.269	16740
838.406	16725
838.544	16554
838.681	16363
838.819	16405
838.956	16272
839.094	16230
839.231	16257
839.369	16314
839.506	16683
839.643	16565
839.781	16322
839.918	16265
840.055	16360
840.193	16215
840.33	16173
840.467	16226
840.604	16291
840.742	16580
840.879	16116
841.016	16291
841.153	16200
841.29	16443
841.427	16276
841.564	16337
841.701	16344
841.838	16314
841.975	16135
842.112	16139
842.249	16150
842.385	15979
842.522	16230
842.659	16120
842.796	15972
842.933	16036
843.069	16082
843.206	15979
843.343	16150
843.479	16071
843.616	16086
843.752	15850
843.889	15842
844.025	15945
844.162	15827
844.298	15930
844.435	15766
844.571	15812
844.708	15926
844.844	15880
844.98	16097
845.117	15991
845.253	15819
845.389	15774
845.525	15831
845.661	15797
845.798	15895
845.934	15838
846.07	15800
846.206	15869
846.342	15915
846.478	15778
846.614	15439
846.75	15519
846.886	15416
847.022	15469
847.158	15367
847.294	15416
847.429	15435
847.565	15348
847.701	15618
847.837	15097
847.972	15085
848.108	15287
848.244	15150
848.379	15108
848.515	15017
848.65	14994
848.786	15047
848.921	15051
849.057	15081
849.192	15074
849.328	15047
849.463	15047
849.598	15039
849.734	15005
849.869	14857
850.004	14804
850.14	14834
850.275	14682
850.41	14750
850.545	14743
850.68	14674
850.815	14727
850.95	14693
851.085	14902
851.22	14849
851.355	14762
851.49	14682
851.625	14796
851.76	14800
851.895	14800
852.03	14712
852.165	14689
852.299	14663
852.434	14872
852.569	14765
852.703	14891
852.838	14834
852.973	14876
853.107	14948
853.242	14697
853.376	14610
853.511	14583
853.645	14602
853.78	14788
853.914	14674
854.048	14610
854.183	14674
854.317	14571
854.451	14819
854.585	14590
854.72	14659
854.854	14762
854.988	14537
855.122	14651
855.256	14457
855.39	14617
855.524	14754
855.658	14667
855.792	14560
855.926	14674
856.06	14750
856.194	14765
856.327	14670
856.461	14560
856.595	14663
856.729	14575
856.862	14746
856.996	14689
857.13	14697
857.263	14758
857.397	14762
857.53	14617
857.664	14594
857.797	14724
857.931	14773
858.064	14606
858.197	14686
858.331	14610
858.464	14537
858.597	14549
858.731	14613
858.864	14617
858.997	14632
859.13	14693
859.263	14632
859.396	14731
859.529	14659
859.662	14632
859.795	14503
859.928	14667
860.061	14765
860.194	14853
860.327	14800
860.46	14613
860.592	14762
860.725	14746
860.858	14720
860.99	14640
861.123	14518
861.256	14621
861.388	14625
861.521	15344
861.653	14545
861.786	14552
861.918	14590
862.05	14587
862.183	14659
862.315	14659
862.447	14636
862.58	14629
862.712	14457
862.844	14370
862.976	14533
863.108	14389
863.24	15001
863.372	14412
863.504	14374
863.636	14366
863.768	14408
863.9	14427
864.032	14305
864.164	14271
864.296	14412
864.428	14461
864.559	14613
864.691	14530
864.823	14454
864.954	14419
865.086	14370
865.217	14351
865.349	14434
865.48	14374
865.612	14385
865.743	14450
865.875	14480
866.006	14324
866.137	14351
866.269	14427
866.4	14370
866.531	14324
866.662	14339
866.793	14244
866.924	14412
867.055	14431
867.186	14469
867.317	14351
867.448	14317
867.579	14267
867.71	14351
867.841	14278
867.972	14370
868.103	14446
868.233	14396
868.364	14400
868.495	14438
868.625	14632
868.756	14724
868.886	14533
869.017	14564
869.147	14758
869.278	14727
869.408	14705
869.539	14617
869.669	14739
869.799	14651
869.929	14781
870.06	14701
870.19	14899
870.32	14868
870.45	15005
870.58	15085
870.71	15188
870.84	15055
870.97	14956
871.1	15039
871.23	15252
871.36	15199
871.489	15119
871.619	15188
871.749	15150
871.879	15279
872.008	15310
872.138	15184
872.267	15131
872.397	15093
872.526	15047
872.656	15055
872.785	15074
872.915	15230
873.044	15408
873.173	15260
873.303	15298
873.432	15351
873.561	15332
873.69	15291
873.819	15268
873.948	15386
874.077	15310
874.206	15317
874.335	15317
874.464	15435
874.593	15511
874.722	15542
874.851	15572
874.979	15511
875.108	15675
875.237	15561
875.365	15561
875.494	15549
875.623	15633
875.751	15610
875.88	15633
876.008	15774
876.136	15838
876.265	15979
876.393	16093
876.521	16074
876.65	16078
876.778	15922
876.906	16010
877.034	15975
877.162	15907
877.29	15930
877.418	15937
877.546	16063
877.674	15922
877.802	16078
877.93	15861
878.058	15846
878.185	15941
878.313	16044
878.441	16010
878.568	15804
878.696	16040
878.824	15991
878.951	16105
879.079	16272
879.206	16356
879.333	16318
879.461	16204
879.588	16242
879.715	16268
879.842	16322
879.97	16120
880.097	15975
880.224	15953
880.351	15915
880.478	15831
880.605	15770
880.732	15888
880.859	16143
880.986	15979
881.112	16006
881.239	15842
881.366	15644
881.493	15584
881.619	15496
881.746	15564
881.872	15462
881.999	15515
882.125	15564
882.252	15686
882.378	15591
882.505	15629
882.631	15530
882.757	15313
882.883	15355
883.01	15397
883.136	15230
883.262	15207
883.388	15165
883.514	15378
883.64	15401
883.766	15329
883.892	15062
884.018	15138
884.143	15370
884.269	15363
884.395	15032
884.52	15108
884.646	15100
884.772	14994
884.897	14933
885.023	15081
885.148	15112
885.274	15093
885.399	15161
885.524	15051
885.65	15077
885.775	15081
885.9	15036
886.025	15131
886.15	15039
886.275	14925
886.4	14910
886.525	15089
886.65	15028
886.775	14895
886.9	15146
887.025	15283
887.149	15039
887.274	14910
887.399	14853
887.523	14864
887.648	14701
887.773	14769
887.897	14899
888.021	14937
888.146	14765
888.27	15001
888.395	14994
888.519	14960
888.643	14895
888.767	14967
888.891	14716
889.015	14708
889.139	14739
889.263	14659
889.387	14830
889.511	14929
889.635	14845
889.759	14686
889.883	14750
890.006	14807
890.13	14891
890.254	14731
890.377	14693
890.501	14537
890.624	14461
890.748	14530
890.871	14492
890.995	14381
891.118	14282
891.241	14427
891.364	14415
891.488	14518
891.611	14339
891.734	14450
891.857	14461
891.98	14552
892.103	14549
892.226	14480
892.349	14419
892.471	14149
892.594	14446
892.717	14446
892.839	14400
892.962	14438
893.085	14537
893.207	14385
893.33	14347
893.452	14248
893.575	14495
893.697	14377
893.819	14602
893.941	14663
894.064	14583
894.186	14267
894.308	14320
894.43	14556
894.552	14583
894.674	14499
894.796	14396
894.918	14381
895.04	14412
895.161	14617
895.283	14560
895.405	14450
895.526	14514
895.648	14488
895.769	14537
895.891	14465
896.012	14507
896.134	14674
896.255	14484
896.376	14511
896.498	14564
896.619	14644
896.74	14568
896.861	14674
896.982	14899
897.103	15085
897.224	14773
897.345	14830
897.466	14781
897.587	14876
897.708	15051
897.828	14845
897.949	14834
898.07	14746
898.19	14731
898.311	14944
898.431	14788
898.552	14864
898.672	14933
898.792	14971
898.913	14956
899.033	14868
899.153	14708
899.273	14674
899.393	14724
899.513	14834
899.633	14834
899.753	14765
899.873	14705
899.993	14819
900.113	14708
900.232	14697
900.352	14739
900.472	14667
900.591	14617
900.711	14663
900.83	14651
900.95	14758
901.069	14708
901.189	14602
901.308	14396
901.427	14225
901.546	14294
901.665	14328
901.784	14275
901.904	14240
902.023	14119
902.141	13921
902.26	13837
902.379	13967
902.498	13837
902.617	13822
902.735	13841
902.854	13833
902.973	13807
903.091	13487
903.21	13575
903.328	13575
903.446	13483
903.565	13339
903.683	13502
903.801	13350
903.919	13487
904.038	13346
904.156	13225
904.274	13346
904.392	13149
904.51	13194
904.627	13312
904.745	13282
904.863	13365
904.981	13114
905.098	12909
905.216	12863
905.334	12875
905.451	12913
905.569	12924
905.686	12928
905.803	12817
905.921	12658
906.038	12787
906.155	12760
906.272	12669
906.389	12650
906.506	12532
906.623	12582
906.74	12517
906.857	12357
906.974	12506
907.091	12536
907.208	12642
907.324	12620
907.441	12350
907.557	12197
907.674	12258
907.79	12216
907.907	12243
908.023	12311
908.139	12228
908.256	12216
908.372	12159
908.488	12159
908.604	11996
908.72	12003
908.836	12022
908.952	11973
909.068	11939
909.184	12159
909.3	11973
909.415	12022
909.531	11996
909.647	11874
909.762	11756
909.878	11703
909.993	11760
910.108	11756
910.224	11737
910.339	11817
910.454	11592
910.57	11608
910.685	11532
910.8	11779
910.915	11794
911.03	11634
911.145	11467
911.259	11440
911.374	11543
911.489	11376
911.604	11311
911.718	11261
911.833	11265
911.947	11162
912.062	10987
912.176	11159
912.291	11288
912.405	11254
912.519	11455
912.633	11356
912.748	11185
912.862	11124
912.976	11109
913.09	11010
913.204	11018
913.318	11170
913.431	11204
913.545	11208
913.659	11254
913.772	11086
913.886	10991
914	10953
914.113	11071
914.226	11143
914.34	11067
914.453	10953
914.566	11060
914.68	10892
914.793	10930
914.906	10767
915.019	10710
915.132	10645
915.245	10717
915.358	10698
915.47	10752
915.583	10778
915.696	10740
915.809	10809
915.921	10812
916.034	10714
916.146	10679
916.259	10641
916.371	10809
916.483	10740
916.595	10687
916.708	10653
916.82	10656
916.932	10694
917.044	10603
917.156	10622
917.268	10535
917.38	10558
917.491	10470
917.603	10596
917.715	10630
917.826	10675
917.938	10512
918.049	10462
918.161	10538
918.272	10653
918.384	10611
918.495	10550
918.606	10371
918.717	10413
918.828	10451
918.939	10474
919.05	10291
919.161	10394
919.272	10169
919.383	10295
919.494	10440
919.604	10592
919.715	10409
919.826	10329
919.936	10478
920.047	10417
920.157	10470
920.267	10592
920.378	10489
920.488	10428
920.598	10603
920.708	10786
920.818	10588
920.928	10569
921.038	10790
921.148	10714
921.258	10535
921.368	10333
921.477	10341
921.587	10207
921.697	10128
921.806	10291
921.916	10143
922.025	10013
922.134	9915
922.244	9934
922.353	9953
922.462	9953
922.571	9762
922.68	9667
922.789	9633
922.898	9698
923.007	9599
923.116	9637
923.224	9717
923.333	9671
923.442	9519
923.55	9500
923.659	9633
923.767	9641
923.876	9477
923.984	9580
924.092	9504
924.201	9538
924.309	9481
924.417	9481
924.525	9412
924.633	9492
924.741	10371
924.849	9260
924.956	9469
925.064	9302
925.172	9222
925.279	9214
925.387	9317
925.494	9332
925.602	9420
925.709	9374
925.816	9214
925.924	9272
926.031	9386
926.138	9317
926.245	9378
926.352	9241
926.459	9275
926.566	9420
926.673	9222
926.779	9222
926.886	9169
926.993	9135
927.099	9009
927.206	8979
927.312	8986
927.419	9089
927.525	9062
927.631	9005
927.737	8876
927.843	8948
927.95	8792
928.056	8899
928.162	8887
928.267	8963
928.373	9534
928.479	8956
928.585	8758
928.69	8883
928.796	8963
928.901	8823
929.007	8750
929.112	8800
929.218	8731
929.323	8727
929.428	8727
929.533	8883
929.638	8705
929.743	8716
929.848	8792
929.953	8743
930.058	8617
930.163	8434
930.267	8488
930.372	8621
930.477	8461
930.581	8758
930.685	8484
930.79	8423
930.894	8450
930.998	8423
931.103	8590
931.207	8309
931.311	8210
931.415	8088
931.519	7883
931.623	7974
