Data from test_V78500241_1111.txt Node
Date: Fri Mar 25 14:41:27 CST 2022
User: usil
Spectrometer: V785-0024
Trigger mode: 0
Integration Time (sec): 4.000000E-1
Scans to average: 1
Nonlinearity correction enabled: false
Boxcar width: 0
Storing dark spectrum: false
XAxis mode: Wavelengths
Number of Pixels in Spectrum: 1024
>>>>>Begin Spectral Data<<<<<
801.071	22618
801.214	22447
801.356	22318
801.499	22204
801.641	21949
801.783	21930
801.926	21991
802.068	21930
802.211	21705
802.353	21671
802.496	21530
802.638	21538
802.78	21500
802.923	21420
803.065	21306
803.208	21264
803.35	21344
803.492	21416
803.635	21545
803.777	21291
803.919	21450
804.061	21793
804.204	21447
804.346	21230
804.488	21192
804.63	21245
804.773	21135
804.915	21367
805.057	21306
805.199	21241
805.341	21374
805.483	21416
805.626	21294
805.768	21233
805.91	21283
806.052	21287
806.194	21218
806.336	21462
806.478	21340
806.62	21287
806.762	21321
806.904	21492
807.046	21701
807.188	21660
807.33	21625
807.472	21713
807.614	21603
807.756	21660
807.898	21637
808.04	21450
808.182	21557
808.324	21542
808.465	21644
808.607	21850
808.749	22029
808.891	22105
809.033	22185
809.174	22002
809.316	21861
809.458	21903
809.6	21823
809.741	21956
809.883	21831
810.025	21979
810.166	22070
810.308	21915
810.45	21854
810.591	21751
810.733	21568
810.875	21511
811.016	21401
811.158	21557
811.299	21515
811.441	21663
811.582	21534
811.724	21485
811.865	21519
812.007	21454
812.148	21370
812.29	21587
812.431	21682
812.573	21823
812.714	21854
812.855	22036
812.997	22059
813.138	22200
813.279	22101
813.421	21998
813.562	21964
813.703	21603
813.845	21728
813.986	21142
814.127	21313
814.268	21123
814.41	21104
814.551	20971
814.692	21036
814.833	20895
814.974	20982
815.115	20967
815.256	20868
815.397	20891
815.539	20861
815.68	20796
815.821	20739
815.962	20876
816.103	20773
816.244	20606
816.385	20503
816.526	20412
816.666	20427
816.807	20210
816.948	20256
817.089	20206
817.23	20153
817.371	20130
817.512	20153
817.653	20126
817.793	20069
817.934	20130
818.075	20214
818.216	20084
818.356	20191
818.497	19944
818.638	19868
818.778	19841
818.919	19780
819.06	19944
819.2	19909
819.341	20050
819.481	20001
819.622	20084
819.762	20336
819.903	20336
820.043	20191
820.184	20142
820.324	20145
820.465	20183
820.605	20157
820.746	20046
820.886	20069
821.026	20142
821.167	20081
821.307	20145
821.447	20012
821.588	19963
821.728	19887
821.868	19666
822.008	19559
822.149	19491
822.289	19514
822.429	19297
822.569	19228
822.709	19244
822.849	18977
822.99	18985
823.13	19061
823.27	18985
823.41	18951
823.55	18890
823.69	18939
823.83	18916
823.97	18738
824.11	18616
824.25	18570
824.389	18673
824.529	18570
824.669	18719
824.809	18749
824.949	18772
825.089	18639
825.228	18612
825.368	18441
825.508	18521
825.648	18426
825.787	18452
825.927	18502
826.067	18407
826.206	18384
826.346	18422
826.485	18506
826.625	18441
826.765	18414
826.904	18445
827.044	18254
827.183	18186
827.323	18076
827.462	18201
827.601	18098
827.741	18095
827.88	18019
828.02	17958
828.159	18022
828.298	18117
828.437	18148
828.577	18091
828.716	18197
828.855	18038
828.994	17904
829.134	17847
829.273	17901
829.412	17851
829.551	17897
829.69	17748
829.829	17802
829.968	17901
830.107	17958
830.246	17889
830.385	17691
830.524	17764
830.663	17687
830.802	17623
830.941	17501
831.08	17452
831.219	17547
831.357	17570
831.496	17638
831.635	17566
831.774	17368
831.913	17410
832.051	17288
832.19	17307
832.329	17311
832.467	17231
832.606	17269
832.744	17181
832.883	17185
833.022	17071
833.16	17258
833.299	17155
833.437	17090
833.576	17162
833.714	17185
833.852	17258
833.991	17174
834.129	17311
834.267	17372
834.406	17204
834.544	17296
834.682	17303
834.821	17223
834.959	17410
835.097	17151
835.235	17326
835.373	17170
835.511	17200
835.65	17166
835.788	17109
835.926	16984
836.064	16961
836.202	16942
836.34	17162
836.478	17105
836.615	17235
836.753	17132
836.891	17155
837.029	17193
837.167	17086
837.305	17086
837.443	17025
837.58	16896
837.718	17140
837.856	17029
837.993	17006
838.131	16934
838.269	16938
838.406	17022
838.544	16908
838.681	16660
838.819	16653
838.956	16474
839.094	16519
839.231	16599
839.369	16782
839.506	17010
839.643	16752
839.781	16626
839.918	16558
840.055	16512
840.193	16519
840.33	16516
840.467	16436
840.604	16493
840.742	16793
840.879	16375
841.016	16402
841.153	16405
841.29	16645
841.427	16519
841.564	16599
841.701	16459
841.838	16489
841.975	16390
842.112	16565
842.249	16348
842.385	16329
842.522	16440
842.659	16371
842.796	16295
842.933	16325
843.069	16284
843.206	16128
843.343	16405
843.479	16402
843.616	16398
843.752	16055
843.889	16078
844.025	16272
844.162	16082
844.298	16226
844.435	16044
844.571	16032
844.708	16166
844.844	16219
844.98	16230
845.117	16192
845.253	16101
845.389	16112
845.525	16276
845.661	16200
845.798	16139
845.934	16352
846.07	16322
846.206	16363
846.342	16249
846.478	16162
846.614	15854
846.75	15545
846.886	15686
847.022	15861
847.158	15846
847.294	15644
847.429	15720
847.565	15530
847.701	15903
847.837	15386
847.972	15348
848.108	15477
848.244	15412
848.379	15245
848.515	15180
848.65	15165
848.786	15287
848.921	15165
849.057	15222
849.192	15412
849.328	15287
849.463	15287
849.598	15176
849.734	15131
849.869	15085
850.004	15013
850.14	15077
850.275	14929
850.41	14914
850.545	14994
850.68	15104
850.815	14990
850.95	15032
851.085	15173
851.22	15089
851.355	14994
851.49	14948
851.625	14990
851.76	14963
851.895	14929
852.03	14906
852.165	14902
852.299	15157
852.434	15074
852.569	15017
852.703	15013
852.838	15089
852.973	15135
853.107	15104
853.242	14982
853.376	14963
853.511	14743
853.645	14906
853.78	15055
853.914	14941
854.048	14902
854.183	14906
854.317	14872
854.451	15028
854.585	14990
854.72	14891
854.854	14868
854.988	14925
855.122	14834
855.256	14670
855.39	14910
855.524	15009
855.658	15005
855.792	14956
855.926	14941
856.06	14921
856.194	15051
856.327	14815
856.461	14857
856.595	14925
856.729	14861
856.862	15020
856.996	14910
857.13	14994
857.263	14971
857.397	15001
857.53	14853
857.664	14967
857.797	14948
857.931	14979
858.064	14956
858.197	14937
858.331	14918
858.464	14830
858.597	14815
858.731	14853
858.864	14792
858.997	14868
859.13	14944
859.263	14952
859.396	14830
859.529	14838
859.662	14800
859.795	14785
859.928	14891
860.061	15108
860.194	14986
860.327	14914
860.46	14887
860.592	14975
860.725	15055
860.858	15005
860.99	14868
861.123	14792
861.256	14842
861.388	14933
861.521	15576
861.653	14682
861.786	14727
861.918	14785
862.05	14845
862.183	14785
862.315	14845
862.447	14990
862.58	14811
862.712	14636
862.844	14663
862.976	14705
863.108	14648
863.24	15146
863.372	14556
863.504	14530
863.636	14636
863.768	14739
863.9	14632
864.032	14590
864.164	14644
864.296	14667
864.428	14804
864.559	14826
864.691	14830
864.823	14750
864.954	14731
865.086	14689
865.217	14724
865.349	14552
865.48	14648
865.612	14655
865.743	14826
865.875	14686
866.006	14644
866.137	14644
866.269	14701
866.4	14663
866.531	14644
866.662	14629
866.793	14598
866.924	14571
867.055	14648
867.186	14598
867.317	14648
867.448	14617
867.579	14682
867.71	14564
867.841	14621
867.972	14712
868.103	14556
868.233	14651
868.364	14632
868.495	14739
868.625	14895
868.756	14971
868.886	14720
869.017	14887
869.147	15051
869.278	15047
869.408	14914
869.539	14929
869.669	15024
869.799	14891
869.929	15013
870.06	15089
870.19	15249
870.32	15233
870.45	15344
870.58	15325
870.71	15332
870.84	15306
870.97	15401
871.1	15313
871.23	15428
871.36	15458
871.489	15321
871.619	15393
871.749	15466
871.879	15481
872.008	15523
872.138	15523
872.267	15492
872.397	15420
872.526	15264
872.656	15317
872.785	15431
872.915	15504
873.044	15496
873.173	15492
873.303	15603
873.432	15561
873.561	15686
873.69	15519
873.819	15515
873.948	15671
874.077	15610
874.206	15428
874.335	15656
874.464	15751
874.593	15838
874.722	15686
874.851	15945
874.979	15865
875.108	15880
875.237	15850
875.365	15793
875.494	15804
875.623	15934
875.751	15797
875.88	15854
876.008	15953
876.136	16071
876.265	16337
876.393	16322
876.521	16363
876.65	16402
876.778	16329
876.906	16207
877.034	16105
877.162	16249
877.29	16204
877.418	16188
877.546	16188
877.674	16265
877.802	16215
877.93	16291
878.058	16230
878.185	16162
878.313	16234
878.441	16272
878.568	16162
878.696	16162
878.824	16394
878.951	16481
879.079	16451
879.206	16683
879.333	16664
879.461	16569
879.588	16561
879.715	16634
879.842	16675
879.97	16519
880.097	16299
880.224	16120
880.351	16242
880.478	16238
880.605	16173
880.732	16211
880.859	16436
880.986	16147
881.112	16215
881.239	16086
881.366	15926
881.493	15934
881.619	15857
881.746	15930
881.872	15838
881.999	15751
882.125	15827
882.252	15937
882.378	15850
882.505	15918
882.631	15789
882.757	15553
882.883	15656
883.01	15641
883.136	15553
883.262	15557
883.388	15530
883.514	15576
883.64	15717
883.766	15572
883.892	15428
884.018	15473
884.143	15633
884.269	15610
884.395	15386
884.52	15378
884.646	15329
884.772	15329
884.897	15211
885.023	15351
885.148	15348
885.274	15564
885.399	15424
885.524	15408
885.65	15405
885.775	15306
885.9	15241
886.025	15351
886.15	15408
886.275	15233
886.4	15291
886.525	15256
886.65	15203
886.775	15336
886.9	15416
887.025	15443
887.149	15302
887.274	15074
887.399	15184
887.523	15123
887.648	14994
887.773	15097
887.897	15207
888.021	15123
888.146	15150
888.27	15138
888.395	15325
888.519	15275
888.643	15138
888.767	15211
888.891	15142
889.015	15024
889.139	15047
889.263	15028
889.387	15047
889.511	15195
889.635	15036
889.759	14948
889.883	14948
890.006	15013
890.13	15039
890.254	15009
890.377	14868
890.501	14739
890.624	14807
890.748	14925
890.871	14773
890.995	14610
891.118	14560
891.241	14602
891.364	14640
891.488	14739
891.611	14617
891.734	14682
891.857	14765
891.98	14583
892.103	14708
892.226	14720
892.349	14617
892.471	14404
892.594	14560
892.717	14552
892.839	14575
892.962	14598
893.085	14701
893.207	14701
893.33	14526
893.452	14537
893.575	14773
893.697	14568
893.819	14811
893.941	14788
894.064	14815
894.186	14518
894.308	14632
894.43	14708
894.552	14876
894.674	14777
894.796	14606
894.918	14708
895.04	14629
895.161	14758
895.283	14758
895.405	14613
895.526	14727
895.648	14773
895.769	14686
895.891	14906
896.012	14910
896.134	14921
896.255	14674
896.376	14842
896.498	14716
896.619	14864
896.74	14731
896.861	14807
896.982	15100
897.103	15237
897.224	15116
897.345	15024
897.466	14925
897.587	15043
897.708	15214
897.828	15192
897.949	15081
898.07	14963
898.19	15017
898.311	15165
898.431	15081
898.552	15100
898.672	15119
898.792	15218
898.913	15119
899.033	15036
899.153	15001
899.273	14849
899.393	14887
899.513	14990
899.633	14876
899.753	15070
899.873	14899
899.993	15070
900.113	14929
900.232	15009
900.352	14960
900.472	14849
900.591	14826
900.711	14838
900.83	14727
900.95	14921
901.069	15043
901.189	14746
901.308	14507
901.427	14393
901.546	14492
901.665	14518
901.784	14545
901.904	14404
902.023	14324
902.141	14161
902.26	14065
902.379	14115
902.498	14062
902.617	14027
902.735	14157
902.854	14103
902.973	13978
903.091	13856
903.21	13784
903.328	13784
903.446	13708
903.565	13624
903.683	13647
903.801	13559
903.919	13548
904.038	13556
904.156	13407
904.274	13453
904.392	13350
904.51	13308
904.627	13362
904.745	13430
904.863	13411
904.981	13247
905.098	13187
905.216	13118
905.334	13206
905.451	13137
905.569	13072
905.686	13110
905.803	13149
905.921	12897
906.038	13019
906.155	12989
906.272	12886
906.389	12829
906.506	12772
906.623	12658
906.74	12738
906.857	12555
906.974	12620
907.091	12760
907.208	12817
907.324	12627
907.441	12612
907.557	12490
907.674	12483
907.79	12372
907.907	12395
908.023	12525
908.139	12437
908.256	12342
908.372	12365
908.488	12380
908.604	12232
908.72	12171
908.836	12213
908.952	12254
909.068	12216
909.184	12300
909.3	12220
909.415	12213
909.531	12266
909.647	12003
909.762	11992
909.878	11958
909.993	11999
910.108	11977
910.224	11988
910.339	11999
910.454	11897
910.57	11771
910.685	11741
910.8	12072
910.915	12049
911.03	11813
911.145	11676
911.259	11615
911.374	11748
911.489	11474
911.604	11558
911.718	11353
911.833	11368
911.947	11288
912.062	11223
912.176	11376
912.291	11315
912.405	11410
912.519	11573
912.633	11562
912.748	11520
912.862	11448
912.976	11315
913.09	11117
913.204	11227
913.318	11299
913.431	11368
913.545	11493
913.659	11349
913.772	11277
913.886	11121
914	11140
914.113	11307
914.226	11292
914.34	11273
914.453	11094
914.566	11208
914.68	11159
914.793	11067
914.906	10965
915.019	10824
915.132	10843
915.245	10816
915.358	10923
915.47	10873
915.583	10869
915.696	10919
915.809	10999
915.921	11048
916.034	10885
916.146	10790
916.259	10801
916.371	10972
916.483	10812
916.595	10793
916.708	10854
916.82	10809
916.932	10771
917.044	10675
917.156	10801
917.268	10626
917.38	10706
917.491	10660
917.603	10679
917.715	10793
917.826	10824
917.938	10706
918.049	10637
918.161	10626
918.272	10824
918.384	10889
918.495	10797
918.606	10603
918.717	10508
918.828	10592
918.939	10641
919.05	10424
919.161	10573
919.272	10402
919.383	10451
919.494	10656
919.604	10828
919.715	10603
919.826	10497
919.936	10546
920.047	10615
920.157	10630
920.267	10820
920.378	10607
920.488	10573
920.598	10801
920.708	10968
920.818	10835
920.928	10771
921.038	10987
921.148	10831
921.258	10660
921.368	10440
921.477	10432
921.587	10478
921.697	10325
921.806	10424
921.916	10265
922.025	10249
922.134	10074
922.244	10131
922.353	10139
922.462	10036
922.571	10021
922.68	9835
922.789	9819
922.898	9865
923.007	9759
923.116	9831
923.224	9808
923.333	9819
923.442	9656
923.55	9656
923.659	9682
923.767	9865
923.876	9705
923.984	9694
924.092	9641
924.201	9766
924.309	9732
924.417	9701
924.525	9576
924.633	9660
924.741	10367
924.849	9439
924.956	9618
925.064	9420
925.172	9408
925.279	9435
925.387	9443
925.494	9435
925.602	9538
925.709	9485
925.816	9408
925.924	9439
926.031	9519
926.138	9504
926.245	9496
926.352	9374
926.459	9523
926.566	9523
926.673	9443
926.779	9298
926.886	9249
926.993	9180
927.099	9169
927.206	9150
927.312	9089
927.419	9207
927.525	9104
927.631	9176
927.737	9058
927.843	9017
927.95	8895
928.056	8982
928.162	9024
928.267	9047
928.373	9747
928.479	9081
928.585	8910
928.69	9062
928.796	9077
928.901	8899
929.007	8727
929.112	8948
929.218	8899
929.323	8868
929.428	8830
929.533	8956
929.638	8785
929.743	8693
929.848	8883
929.953	8853
930.058	8746
930.163	8564
930.267	8655
930.372	8777
930.477	8667
930.581	8876
930.685	8735
930.79	8564
930.894	8571
930.998	8575
931.103	8682
931.207	8358
931.311	8267
931.415	8252
931.519	8126
931.623	8077
