Data from test_V78500241_2244.txt Node
Date: Fri Mar 25 14:49:20 CST 2022
User: usil
Spectrometer: V785-0024
Trigger mode: 0
Integration Time (sec): 4.000000E-1
Scans to average: 1
Nonlinearity correction enabled: false
Boxcar width: 0
Storing dark spectrum: false
XAxis mode: Wavelengths
Number of Pixels in Spectrum: 1024
>>>>>Begin Spectral Data<<<<<
801.071	22147
801.214	22070
801.356	21785
801.499	21686
801.641	21538
801.783	21523
801.926	21580
802.068	21435
802.211	21401
802.353	21374
802.496	21252
802.638	20990
802.78	21020
802.923	20971
803.065	20933
803.208	20785
803.35	20971
803.492	20998
803.635	21032
803.777	20781
803.919	20895
804.061	21154
804.204	21001
804.346	20838
804.488	20815
804.63	20910
804.773	20819
804.915	20777
805.057	20811
805.199	20731
805.341	20857
805.483	20902
805.626	20910
805.768	20880
805.91	20857
806.052	20880
806.194	20670
806.336	20975
806.478	20838
806.62	20769
806.762	20834
806.904	20994
807.046	21119
807.188	21070
807.33	21135
807.472	21199
807.614	21066
807.756	21024
807.898	20842
808.04	20731
808.182	20849
808.324	20785
808.465	20998
808.607	21123
808.749	21245
808.891	21241
809.033	21291
809.174	21264
809.316	21081
809.458	21058
809.6	21055
809.741	21161
809.883	21306
810.025	21291
810.166	21310
810.308	21294
810.45	21222
810.591	21180
810.733	21100
810.875	20925
811.016	20891
811.158	20823
811.299	20864
811.441	20971
811.582	21161
811.724	20998
811.865	20861
812.007	20845
812.148	20925
812.29	20948
812.431	21154
812.573	21214
812.714	21302
812.855	21458
812.997	21500
813.138	21717
813.279	21492
813.421	21526
813.562	21382
813.703	21195
813.845	21009
813.986	20792
814.127	20625
814.268	20476
814.41	20530
814.551	20423
814.692	20564
814.833	20457
814.974	20427
815.115	20461
815.256	20431
815.397	20248
815.539	20423
815.68	20267
815.821	20229
815.962	20267
816.103	20202
816.244	20096
816.385	20031
816.526	19947
816.666	19845
816.807	19708
816.948	19628
817.089	19803
817.23	19757
817.371	19601
817.512	19616
817.653	19578
817.793	19647
817.934	19632
818.075	19704
818.216	19510
818.356	19582
818.497	19403
818.638	19354
818.778	19373
818.919	19251
819.06	19339
819.2	19430
819.341	19529
819.481	19499
819.622	19658
819.762	19811
819.903	19704
820.043	19723
820.184	19590
820.324	19738
820.465	19750
820.605	19605
820.746	19457
820.886	19510
821.026	19540
821.167	19590
821.307	19700
821.447	19506
821.588	19343
821.728	19274
821.868	19145
822.008	19069
822.149	19008
822.289	19008
822.429	18825
822.569	18722
822.709	18692
822.849	18486
822.99	18517
823.13	18441
823.27	18429
823.41	18281
823.55	18311
823.69	18311
823.83	18395
823.97	18258
824.11	18072
824.25	18144
824.389	18182
824.529	18026
824.669	18007
824.809	18167
824.949	18159
825.089	18171
825.228	18068
825.368	17935
825.508	17920
825.648	18049
825.787	17897
825.927	17920
826.067	17821
826.206	17817
826.346	17889
826.485	17840
826.625	17847
826.765	18079
826.904	17874
827.044	17691
827.183	17551
827.323	17589
827.462	17748
827.601	17520
827.741	17600
827.88	17608
828.02	17452
828.159	17566
828.298	17627
828.437	17642
828.577	17391
828.716	17680
828.855	17478
828.994	17334
829.134	17311
829.273	17341
829.412	17349
829.551	17242
829.69	17296
829.829	17296
829.968	17493
830.107	17299
830.246	17444
830.385	17337
830.524	17307
830.663	17052
830.802	16991
830.941	16930
831.08	16892
831.219	17003
831.357	17022
831.496	17143
831.635	16968
831.774	16847
831.913	16691
832.051	16816
832.19	16649
832.329	16622
832.467	16645
832.606	16649
832.744	16516
832.883	16603
833.022	16474
833.16	16599
833.299	16653
833.437	16607
833.576	16634
833.714	16531
833.852	16618
833.991	16622
834.129	16744
834.267	16713
834.406	16694
834.544	16706
834.682	16634
834.821	16668
834.959	16835
835.097	16516
835.235	16679
835.373	16721
835.511	16740
835.65	16508
835.788	16634
835.926	16390
836.064	16329
836.202	16390
836.34	16580
836.478	16645
836.615	16531
836.753	16527
836.891	16622
837.029	16573
837.167	16474
837.305	16493
837.443	16451
837.58	16405
837.718	16443
837.856	16341
837.993	16322
838.131	16451
838.269	16371
838.406	16242
838.544	16272
838.681	16200
838.819	16074
838.956	15983
839.094	15998
839.231	16071
839.369	16181
839.506	16318
839.643	16162
839.781	16040
839.918	16013
840.055	15918
840.193	15998
840.33	15983
840.467	15956
840.604	15994
840.742	16272
840.879	15922
841.016	15934
841.153	15816
841.29	16059
841.427	15991
841.564	15945
841.701	15949
841.838	15930
841.975	15869
842.112	15911
842.249	15728
842.385	15743
842.522	15972
842.659	15793
842.796	15739
842.933	15656
843.069	15705
843.206	15720
843.343	15876
843.479	15785
843.616	15755
843.752	15526
843.889	15523
844.025	15675
844.162	15504
844.298	15614
844.435	15595
844.571	15507
844.708	15511
844.844	15644
844.98	15755
845.117	15625
845.253	15504
845.389	15329
845.525	15469
845.661	15431
845.798	15359
845.934	15393
846.07	15344
846.206	15412
846.342	15466
846.478	15294
846.614	15119
846.75	15005
846.886	15100
847.022	15264
847.158	15093
847.294	15222
847.429	15043
847.565	15108
847.701	15294
847.837	14868
847.972	14792
848.108	15005
848.244	14883
848.379	14785
848.515	14697
848.65	14716
848.786	14689
848.921	14678
849.057	14758
849.192	14861
849.328	14743
849.463	14765
849.598	14621
849.734	14556
849.869	14613
850.004	14457
850.14	14533
850.275	14434
850.41	14419
850.545	14434
850.68	14450
850.815	14408
850.95	14499
851.085	14579
851.22	14610
851.355	14465
851.49	14461
851.625	14381
851.76	14351
851.895	14294
852.03	14434
852.165	14431
852.299	14495
852.434	14518
852.569	14446
852.703	14415
852.838	14571
852.973	14682
853.107	14655
853.242	14446
853.376	14415
853.511	14282
853.645	14294
853.78	14492
853.914	14377
854.048	14244
854.183	14328
854.317	14347
854.451	14556
854.585	14294
854.72	14282
854.854	14370
854.988	14225
855.122	14282
855.256	14191
855.39	14305
855.524	14305
855.658	14343
855.792	14374
855.926	14381
856.06	14415
856.194	14408
856.327	14332
856.461	14237
856.595	14286
856.729	14259
856.862	14423
856.996	14374
857.13	14480
857.263	14454
857.397	14526
857.53	14275
857.664	14290
857.797	14415
857.931	14423
858.064	14339
858.197	14400
858.331	14336
858.464	14286
858.597	14267
858.731	14244
858.864	14252
858.997	14339
859.13	14393
859.263	14301
859.396	14457
859.529	14332
859.662	14317
859.795	14332
859.928	14343
860.061	14328
860.194	14457
860.327	14336
860.46	14385
860.592	14423
860.725	14450
860.858	14431
860.99	14225
861.123	14278
861.256	14256
861.388	14237
861.521	15074
861.653	14237
861.786	14126
861.918	14263
862.05	14278
862.183	14199
862.315	14294
862.447	14305
862.58	14240
862.712	14062
862.844	14031
862.976	14191
863.108	14176
863.24	14442
863.372	13997
863.504	14107
863.636	14119
863.768	14050
863.9	14088
864.032	14058
864.164	14145
864.296	14142
864.428	14237
864.559	14115
864.691	14191
864.823	14157
864.954	14123
865.086	14126
865.217	14100
865.349	14065
865.48	14024
865.612	14119
865.743	14256
865.875	14149
866.006	14062
866.137	14073
866.269	13959
866.4	14065
866.531	13982
866.662	14012
866.793	14035
866.924	14058
867.055	14172
867.186	13974
867.317	14020
867.448	13940
867.579	14020
867.71	13978
867.841	13959
867.972	14027
868.103	14092
868.233	13974
868.364	14100
868.495	14134
868.625	14278
868.756	14385
868.886	14237
869.017	14298
869.147	14484
869.278	14484
869.408	14339
869.539	14343
869.669	14438
869.799	14385
869.929	14412
870.06	14358
870.19	14598
870.32	14606
870.45	14667
870.58	14777
870.71	14796
870.84	14834
870.97	14686
871.1	14724
871.23	14906
871.36	14963
871.489	14887
871.619	14868
871.749	14921
871.879	14979
872.008	14990
872.138	15039
872.267	14815
872.397	14765
872.526	14670
872.656	14693
872.785	14758
872.915	14990
873.044	14967
873.173	14853
873.303	14998
873.432	15001
873.561	15028
873.69	14914
873.819	14914
873.948	15043
874.077	14975
874.206	14960
874.335	15108
874.464	15119
874.593	15237
874.722	15142
874.851	15302
874.979	15283
875.108	15329
875.237	15256
875.365	15214
875.494	15123
875.623	15340
875.751	15218
875.88	15317
876.008	15477
876.136	15549
876.265	15603
876.393	15816
876.521	15854
876.65	15846
876.778	15682
876.906	15751
877.034	15679
877.162	15675
877.29	15603
877.418	15633
877.546	15717
877.674	15724
877.802	15660
877.93	15728
878.058	15698
878.185	15610
878.313	15823
878.441	15637
878.568	15511
878.696	15572
878.824	15698
878.951	15656
879.079	15846
879.206	15968
879.333	15804
879.461	15694
879.588	15793
879.715	15865
879.842	15998
879.97	15781
880.097	15564
880.224	15496
880.351	15648
880.478	15587
880.605	15561
880.732	15519
880.859	15804
880.986	15622
881.112	15618
881.239	15454
881.366	15287
881.493	15188
881.619	15192
881.746	15146
881.872	15188
881.999	15100
882.125	15249
882.252	15306
882.378	15272
882.505	15340
882.631	15150
882.757	15077
882.883	15024
883.01	14986
883.136	15005
883.262	14944
883.388	14872
883.514	15074
883.64	15081
883.766	14963
883.892	14883
884.018	14864
884.143	15039
884.269	15157
884.395	14712
884.52	14712
884.646	14731
884.772	14701
884.897	14579
885.023	14621
885.148	14754
885.274	14887
885.399	14773
885.524	14750
885.65	14674
885.775	14887
885.9	14731
886.025	14834
886.15	14834
886.275	14648
886.4	14537
886.525	14670
886.65	14629
886.775	14693
886.9	14918
887.025	14971
887.149	14735
887.274	14549
887.399	14484
887.523	14400
887.648	14404
887.773	14465
887.897	14549
888.021	14484
888.146	14511
888.27	14610
888.395	14598
888.519	14670
888.643	14590
888.767	14701
888.891	14503
889.015	14415
889.139	14503
889.263	14389
889.387	14503
889.511	14693
889.635	14473
889.759	14370
889.883	14495
890.006	14499
890.13	14537
890.254	14271
890.377	14438
890.501	14256
890.624	14233
890.748	14252
890.871	14103
890.995	14073
891.118	13974
891.241	14134
891.364	14199
891.488	14229
891.611	14077
891.734	14119
891.857	14180
891.98	14119
892.103	14168
892.226	14233
892.349	14126
892.471	14031
892.594	14050
892.717	14046
892.839	14107
892.962	14142
893.085	14199
893.207	14088
893.33	13955
893.452	14069
893.575	14195
893.697	14157
893.819	14244
893.941	14358
894.064	14298
894.186	14092
894.308	14058
894.43	14301
894.552	14229
894.674	14301
894.796	14153
894.918	14199
895.04	14214
895.161	14218
895.283	14218
895.405	14149
895.526	14161
895.648	14244
895.769	14180
895.891	14324
896.012	14290
896.134	14320
896.255	14195
896.376	14332
896.498	14199
896.619	14328
896.74	14320
896.861	14271
896.982	14636
897.103	14682
897.224	14602
897.345	14518
897.466	14476
897.587	14530
897.708	14610
897.828	14636
897.949	14556
898.07	14442
898.19	14488
898.311	14792
898.431	14613
898.552	14594
898.672	14682
898.792	14765
898.913	14682
899.033	14644
899.153	14514
899.273	14400
899.393	14446
899.513	14552
899.633	14488
899.753	14473
899.873	14484
899.993	14625
900.113	14533
900.232	14575
900.352	14419
900.472	14362
900.591	14252
900.711	14454
900.83	14317
900.95	14427
901.069	14465
901.189	14294
901.308	14130
901.427	14062
901.546	14031
901.665	14035
901.784	14043
901.904	13894
902.023	13818
902.141	13719
902.26	13616
902.379	13700
902.498	13567
902.617	13548
902.735	13636
902.854	13677
902.973	13575
903.091	13362
903.21	13282
903.328	13426
903.446	13225
903.565	13183
903.683	13263
903.801	13088
903.919	13209
904.038	13126
904.156	12916
904.274	12996
904.392	12905
904.51	12890
904.627	12970
904.745	13038
904.863	13019
904.981	12791
905.098	12650
905.216	12677
905.334	12696
905.451	12726
905.569	12665
905.686	12650
905.803	12722
905.921	12456
906.038	12551
906.155	12490
906.272	12445
906.389	12437
906.506	12262
906.623	12254
906.74	12304
906.857	12110
906.974	12148
907.091	12319
907.208	12365
907.324	12258
907.441	12209
907.557	11980
907.674	12076
907.79	11977
907.907	11969
908.023	12007
908.139	12041
908.256	11999
908.372	11999
908.488	11821
908.604	11843
908.72	11737
908.836	11748
908.952	11726
909.068	11821
909.184	11828
909.3	11756
909.415	11775
909.531	11729
909.647	11577
909.762	11558
909.878	11490
909.993	11539
910.108	11463
910.224	11482
910.339	11509
910.454	11608
910.57	11330
910.685	11299
910.8	11691
910.915	11532
911.03	11376
911.145	11216
911.259	11231
911.374	11254
911.489	11212
911.604	11109
911.718	10961
911.833	10995
911.947	10987
912.062	10843
912.176	10934
912.291	10961
912.405	11006
912.519	11208
912.633	11220
912.748	11128
912.862	10999
912.976	10839
913.09	10710
913.204	10740
913.318	10930
913.431	11010
913.545	10942
913.659	11003
913.772	10854
913.886	10733
914	10660
914.113	10961
914.226	10923
914.34	10828
914.453	10687
914.566	10896
914.68	10698
914.793	10691
914.906	10561
915.019	10398
915.132	10489
915.245	10436
915.358	10500
915.47	10466
915.583	10542
915.696	10596
915.809	10611
915.921	10615
916.034	10443
916.146	10436
916.259	10337
916.371	10519
916.483	10523
916.595	10432
916.708	10443
916.82	10455
916.932	10352
917.044	10421
917.156	10417
917.268	10276
917.38	10375
917.491	10314
917.603	10440
917.715	10352
917.826	10398
917.938	10329
918.049	10188
918.161	10379
918.272	10470
918.384	10390
918.495	10280
918.606	10230
918.717	10128
918.828	10238
918.939	10268
919.05	10055
919.161	10200
919.272	10021
919.383	10090
919.494	10287
919.604	10481
919.715	10207
919.826	10147
919.936	10169
920.047	10291
920.157	10204
920.267	10405
920.378	10318
920.488	10249
920.598	10394
920.708	10660
920.818	10432
920.928	10424
921.038	10592
921.148	10531
921.258	10211
921.368	10166
921.477	10147
921.587	10048
921.697	9979
921.806	10078
921.916	10017
922.025	9732
922.134	9759
922.244	9747
922.353	9804
922.462	9637
922.571	9610
922.68	9496
922.789	9447
922.898	9488
923.007	9447
923.116	9477
923.224	9439
923.333	9416
923.442	9336
923.55	9340
923.659	9447
923.767	9477
923.876	9321
923.984	9408
924.092	9249
924.201	9378
924.309	9302
924.417	9279
924.525	9275
924.633	9306
924.741	10249
924.849	9165
924.956	9329
925.064	9097
925.172	9131
925.279	9062
925.387	9104
925.494	9161
925.602	9237
925.709	9245
925.816	9119
925.924	9066
926.031	9226
926.138	9085
926.245	9169
926.352	9123
926.459	9157
926.566	9173
926.673	9055
926.779	8956
926.886	9005
926.993	8883
927.099	8785
927.206	8785
927.312	8743
927.419	8929
927.525	8868
927.631	8864
927.737	8807
927.843	8735
927.95	8644
928.056	8705
928.162	8750
928.267	8766
928.373	9389
928.479	8849
928.585	8602
928.69	8727
928.796	8705
928.901	8678
929.007	8549
929.112	8705
929.218	8667
929.323	8602
929.428	8579
929.533	8727
929.638	8469
929.743	8514
929.848	8640
929.953	8526
930.058	8442
930.163	8275
930.267	8328
930.372	8415
930.477	8271
930.581	8579
930.685	8454
930.79	8317
930.894	8282
930.998	8309
931.103	8434
931.207	8077
931.311	8088
931.415	7913
931.519	7799
931.623	7811
