Data from test_V78500241_655.txt Node
Date: Fri Mar 25 14:38:16 CST 2022
User: usil
Spectrometer: V785-0024
Trigger mode: 0
Integration Time (sec): 4.000000E-1
Scans to average: 1
Nonlinearity correction enabled: false
Boxcar width: 0
Storing dark spectrum: false
XAxis mode: Wavelengths
Number of Pixels in Spectrum: 1024
>>>>>Begin Spectral Data<<<<<
801.071	28158
801.214	27873
801.356	27751
801.499	27561
801.641	27466
801.783	27473
801.926	27477
802.068	27340
802.211	27237
802.353	27218
802.496	27017
802.638	26944
802.78	26933
802.923	26902
803.065	26880
803.208	26887
803.35	26910
803.492	27043
803.635	27089
803.777	26975
803.919	27036
804.061	27275
804.204	27150
804.346	27055
804.488	27074
804.63	27211
804.773	27237
804.915	27306
805.057	27412
805.199	27367
805.341	27450
805.483	27648
805.626	27618
805.768	27663
805.91	27663
806.052	27816
806.194	27922
806.336	28310
806.478	28272
806.62	28344
806.762	28858
806.904	29220
807.046	29638
807.188	29817
807.33	30277
807.472	30840
807.614	31396
807.756	32286
807.898	33150
808.04	34508
808.182	36441
808.324	38754
808.465	41592
808.607	44507
808.749	47155
808.891	48745
809.033	49145
809.174	47471
809.316	44781
809.458	41771
809.6	38480
809.741	36152
809.883	34230
810.025	32769
810.166	31609
810.308	31023
810.45	30460
810.591	30011
810.733	29482
810.875	29121
811.016	28790
811.158	28634
811.299	28588
811.441	28443
811.582	28310
811.724	28112
811.865	27835
812.007	27827
812.148	27842
812.29	27819
812.431	27892
812.573	28029
812.714	27930
812.855	28051
812.997	28048
813.138	28306
813.279	28139
813.421	28086
813.562	27808
813.703	27728
813.845	27500
813.986	27180
814.127	26902
814.268	26712
814.41	26705
814.551	26811
814.692	26655
814.833	26545
814.974	26511
815.115	26564
815.256	26594
815.397	26377
815.539	26427
815.68	26298
815.821	26248
815.962	26256
816.103	26183
816.244	26138
816.385	26050
816.526	25993
816.666	25719
816.807	25567
816.948	25643
817.089	25651
817.23	25689
817.371	25643
817.512	25624
817.653	25556
817.793	25392
817.934	25578
818.075	25499
818.216	25396
818.356	25403
818.497	25419
818.638	25183
818.778	25084
818.919	25244
819.06	25202
819.2	25194
819.341	25479
819.481	25285
819.622	25362
819.762	25696
819.903	25559
820.043	25540
820.184	25419
820.324	25369
820.465	25430
820.605	25331
820.746	25312
820.886	25129
821.026	25236
821.167	25335
821.307	25202
821.447	25061
821.588	25084
821.728	24928
821.868	24760
822.008	24639
822.149	24646
822.289	24494
822.429	24311
822.569	24148
822.709	24258
822.849	24228
822.99	24064
823.13	24003
823.27	23912
823.41	23897
823.55	23646
823.69	23863
823.83	23817
823.97	23699
824.11	23699
824.25	23581
824.389	23596
824.529	23634
824.669	23566
824.809	23676
824.949	23611
825.089	23661
825.228	23710
825.368	23482
825.508	23364
825.648	23341
825.787	23387
825.927	23448
826.067	23242
826.206	23315
826.346	23372
826.485	23383
826.625	23406
826.765	23414
826.904	23402
827.044	23265
827.183	23109
827.323	23018
827.462	23155
827.601	23109
827.741	23029
827.88	23098
828.02	22843
828.159	22900
828.298	22927
828.437	23067
828.577	22896
828.716	23147
828.855	22919
828.994	22691
829.134	22850
829.273	22717
829.412	22656
829.551	22512
829.69	22702
829.829	22649
829.968	22615
830.107	22653
830.246	22729
830.385	22672
830.524	22527
830.663	22402
830.802	22500
830.941	22226
831.08	22257
831.219	22291
831.357	22409
831.496	22527
831.635	22261
831.774	22082
831.913	22135
832.051	22070
832.19	22147
832.329	22207
832.467	22204
832.606	22051
832.744	22169
832.883	22139
833.022	22226
833.16	22451
833.299	22352
833.437	22557
833.576	22702
833.714	22831
833.852	22957
833.991	23025
834.129	23231
834.267	23174
834.406	23048
834.544	23044
834.682	22858
834.821	22694
834.959	22858
835.097	22580
835.235	22470
835.373	22443
835.511	22272
835.65	22200
835.788	22036
835.926	21884
836.064	21720
836.202	21728
836.34	21949
836.478	21949
836.615	21854
836.753	21915
836.891	22082
837.029	21865
837.167	21701
837.305	21709
837.443	21728
837.58	21599
837.718	21682
837.856	21618
837.993	21469
838.131	21568
838.269	21367
838.406	21553
838.544	21306
838.681	21173
838.819	21233
838.956	21074
839.094	21066
839.231	21119
839.369	21180
839.506	21287
839.643	21363
839.781	21058
839.918	20807
840.055	21001
840.193	20921
840.33	20956
840.467	20971
840.604	20948
840.742	21218
840.879	20853
841.016	20807
841.153	20986
841.29	21074
841.427	20910
841.564	21074
841.701	21013
841.838	20944
841.975	20830
842.112	20864
842.249	20743
842.385	20785
842.522	20929
842.659	20868
842.796	20883
842.933	20731
843.069	20727
843.206	20678
843.343	20960
843.479	20792
843.616	20937
843.752	20712
843.889	20743
844.025	20929
844.162	20788
844.298	21119
844.435	21169
844.571	21359
844.708	21568
844.844	21922
844.98	22382
845.117	22881
845.253	23752
845.389	25468
845.525	28725
845.661	33964
845.798	40207
845.934	45062
846.07	46828
846.206	45382
846.342	41277
846.478	34942
846.614	29581
846.75	25932
846.886	23988
847.022	22596
847.158	21861
847.294	21332
847.429	20998
847.565	20861
847.701	20876
847.837	20275
847.972	20142
848.108	20195
848.244	20119
848.379	19841
848.515	19795
848.65	19807
848.786	19647
848.921	19696
849.057	19830
849.192	19784
849.328	19685
849.463	19601
849.598	19563
849.734	19476
849.869	19548
850.004	19369
850.14	19346
850.275	19472
850.41	19259
850.545	19270
850.68	19301
850.815	19331
850.95	19396
851.085	19411
851.22	19434
851.355	19297
851.49	19244
851.625	19244
851.76	19206
851.895	19259
852.03	19225
852.165	19274
852.299	19362
852.434	19464
852.569	19392
852.703	19304
852.838	19563
852.973	19514
853.107	19651
853.242	19502
853.376	19381
853.511	19244
853.645	19327
853.78	19548
853.914	19540
854.048	19510
854.183	19445
854.317	19559
854.451	19670
854.585	19537
854.72	19495
854.854	19495
854.988	19335
855.122	19358
855.256	19350
855.39	19362
855.524	19384
855.658	19358
855.792	19266
855.926	19247
856.06	19365
856.194	19297
856.327	19228
856.461	19160
856.595	19107
856.729	19141
856.862	19232
856.996	19293
857.13	19206
857.263	19164
857.397	19148
857.53	19019
857.664	19145
857.797	19122
857.931	19190
858.064	19244
858.197	19072
858.331	19065
858.464	18897
858.597	18977
858.731	18996
858.864	19031
858.997	19000
859.13	19038
859.263	19019
859.396	19088
859.529	18993
859.662	18935
859.795	18913
859.928	19023
860.061	19080
860.194	19225
860.327	18996
860.46	18928
860.592	19114
860.725	19042
860.858	19190
860.99	18890
861.123	18863
861.256	18916
861.388	18993
861.521	19609
861.653	18852
861.786	18745
861.918	18867
862.05	18776
862.183	18989
862.315	19034
862.447	18977
862.58	18848
862.712	18779
862.844	18639
862.976	18703
863.108	18787
863.24	18943
863.372	18677
863.504	18692
863.636	18620
863.768	18661
863.9	18627
864.032	18589
864.164	18494
864.296	18616
864.428	18738
864.559	18642
864.691	18707
864.823	18665
864.954	18608
865.086	18589
865.217	18620
865.349	18490
865.48	18563
865.612	18597
865.743	18684
865.875	18566
866.006	18627
866.137	18502
866.269	18597
866.4	18475
866.531	18547
866.662	18486
866.793	18563
866.924	18540
867.055	18509
867.186	18673
867.317	18467
867.448	18452
867.579	18441
867.71	18418
867.841	18384
867.972	18574
868.103	18456
868.233	18528
868.364	18509
868.495	18589
868.625	18700
868.756	18859
868.886	18753
869.017	18833
869.147	18894
869.278	18928
869.408	18814
869.539	18783
869.669	18901
869.799	18871
869.929	18776
870.06	18970
870.19	19179
870.32	19156
870.45	19145
870.58	19301
870.71	19369
870.84	19304
870.97	19244
871.1	19304
871.23	19384
871.36	19354
871.489	19327
871.619	19400
871.749	19403
871.879	19480
872.008	19582
872.138	19556
872.267	19438
872.397	19422
872.526	19308
872.656	19179
872.785	19426
872.915	19662
873.044	19613
873.173	19734
873.303	19731
873.432	19795
873.561	19689
873.69	19689
873.819	19765
873.948	19871
874.077	19757
874.206	19822
874.335	19807
874.464	20027
874.593	20103
874.722	20084
874.851	20256
874.979	20282
875.108	20427
875.237	20347
875.365	20107
875.494	20393
875.623	20469
875.751	20408
875.88	20461
876.008	20678
876.136	20735
876.265	20998
876.393	21116
876.521	21146
876.65	21230
876.778	21119
876.906	21310
877.034	21321
877.162	21393
877.29	21389
877.418	21416
877.546	21568
877.674	21698
877.802	21682
877.93	21884
878.058	22093
878.185	22223
878.313	22386
878.441	22759
878.568	23044
878.696	23543
878.824	24429
878.951	25407
879.079	26864
879.206	28694
879.333	30574
879.461	32062
879.588	33039
879.715	33165
879.842	32514
879.97	30642
880.097	28748
880.224	27074
880.351	25974
880.478	25346
880.605	24757
880.732	24536
880.859	24361
880.986	24068
881.112	23889
881.239	23748
881.366	23638
881.493	23452
881.619	23478
881.746	23425
881.872	23531
881.999	23520
882.125	23589
882.252	23745
882.378	23558
882.505	23836
882.631	23642
882.757	23535
882.883	23695
883.01	23547
883.136	23402
883.262	23391
883.388	23337
883.514	23539
883.64	23387
883.766	23315
883.892	23284
884.018	23185
884.143	23353
884.269	23562
884.395	23216
884.52	23204
884.646	23292
884.772	23136
884.897	23200
885.023	23147
885.148	23269
885.274	23197
885.399	23132
885.524	23006
885.65	22835
885.775	22786
885.9	22557
886.025	22531
886.15	22485
886.275	22204
886.4	21968
886.525	21998
886.65	21846
886.775	21762
886.9	21671
887.025	21713
887.149	21363
887.274	21207
887.399	21180
887.523	20986
887.648	20815
887.773	20659
887.897	20921
888.021	20777
888.146	20663
888.27	20667
888.395	20659
888.519	20503
888.643	20469
888.767	20533
888.891	20355
889.015	20199
889.139	20214
889.263	20199
889.387	20317
889.511	20206
889.635	20237
889.759	20073
889.883	20058
890.006	19963
890.13	19940
890.254	19780
890.377	19708
890.501	19677
890.624	19525
890.748	19540
890.871	19502
890.995	19403
891.118	19240
891.241	19377
891.364	19255
891.488	19472
891.611	19160
891.734	19175
891.857	19095
891.98	19221
892.103	19114
892.226	19122
892.349	19129
892.471	18848
892.594	18981
892.717	18878
892.839	18890
892.962	18745
893.085	18947
893.207	18791
893.33	18692
893.452	18722
893.575	18886
893.697	18692
893.819	18909
893.941	18962
894.064	18848
894.186	18589
894.308	18532
894.43	18738
894.552	18703
894.674	18623
894.796	18506
894.918	18578
895.04	18483
895.161	18669
895.283	18551
895.405	18384
895.526	18448
895.648	18399
895.769	18486
895.891	18578
896.012	18490
896.134	18536
896.255	18521
896.376	18399
896.498	18532
896.619	18566
896.74	18384
896.861	18464
896.982	18696
897.103	18939
897.224	18688
897.345	18669
897.466	18578
897.587	18627
897.708	18738
897.828	18597
897.949	18601
898.07	18422
898.19	18623
898.311	18631
898.431	18532
898.552	18665
898.672	18654
898.792	18604
898.913	18570
899.033	18528
899.153	18414
899.273	18311
899.393	18296
899.513	18388
899.633	18407
899.753	18353
899.873	18296
899.993	18338
900.113	18235
900.232	18262
900.352	18262
900.472	18273
900.591	18148
900.711	18251
900.83	18144
900.95	18334
901.069	18197
901.189	18072
901.308	17779
901.427	17760
901.546	17821
901.665	17775
901.784	17748
901.904	17642
902.023	17417
902.141	17322
902.26	17246
902.379	17398
902.498	17223
902.617	17113
902.735	17113
902.854	17067
902.973	17121
903.091	16771
903.21	16809
903.328	16847
903.446	16615
903.565	16611
903.683	16622
903.801	16569
903.919	16592
904.038	16531
904.156	16367
904.274	16394
904.392	16363
904.51	16272
904.627	16299
904.745	16295
904.863	16325
904.981	16112
905.098	15956
905.216	15956
905.334	16044
905.451	15991
905.569	15854
905.686	16048
905.803	15972
905.921	15800
906.038	15865
906.155	15732
906.272	15656
906.389	15584
906.506	15469
906.623	15644
906.74	15511
906.857	15412
906.974	15462
907.091	15534
907.208	15580
907.324	15462
907.441	15473
907.557	15176
907.674	15188
907.79	15043
907.907	15104
908.023	15192
908.139	15203
908.256	15097
908.372	15127
908.488	14971
908.604	14982
908.72	14796
908.836	14925
908.952	14902
909.068	14990
909.184	14979
909.3	14883
909.415	15017
909.531	14849
909.647	14724
909.762	14640
909.878	14625
909.993	14678
910.108	14655
910.224	14625
910.339	14564
910.454	14507
910.57	14427
910.685	14381
910.8	14762
910.915	14594
911.03	14522
911.145	14218
911.259	14142
911.374	14408
911.489	14111
911.604	14286
911.718	13970
911.833	14001
911.947	13879
912.062	13765
912.176	13932
912.291	13917
912.405	14012
912.519	14164
912.633	14210
912.748	14027
912.862	13970
912.976	13818
913.09	13750
913.204	13772
913.318	13856
913.431	13940
913.545	13913
913.659	13849
913.772	13814
913.886	13636
914	13670
914.113	13837
914.226	13791
914.34	13776
914.453	13544
914.566	13769
914.68	13605
914.793	13472
914.906	13422
915.019	13339
915.132	13285
915.245	13384
915.358	13263
915.47	13358
915.583	13419
915.696	13350
915.809	13495
915.921	13537
916.034	13396
916.146	13327
916.259	13312
916.371	13419
916.483	13381
916.595	13270
916.708	13346
916.82	13171
916.932	13259
917.044	13270
917.156	13244
917.268	13137
917.38	13099
917.491	13072
917.603	13053
917.715	13179
917.826	13194
917.938	13080
918.049	12913
918.161	13107
918.272	13171
918.384	13091
918.495	13129
918.606	12970
918.717	12795
918.828	12924
918.939	12886
919.05	12802
919.161	12814
919.272	12601
919.383	12623
919.494	12890
919.604	13034
919.715	12798
919.826	12711
919.936	12715
920.047	12859
920.157	12939
920.267	12966
920.378	12825
920.488	12787
920.598	12951
920.708	13057
920.818	12989
920.928	12985
921.038	13076
921.148	13015
921.258	12814
921.368	12669
921.477	12662
921.587	12620
921.697	12456
921.806	12540
921.916	12380
922.025	12353
922.134	12251
922.244	12114
922.353	12194
922.462	12068
922.571	12083
922.68	11908
922.789	11946
922.898	11897
923.007	11878
923.116	11969
923.224	11855
923.333	11874
923.442	11745
923.55	11775
923.659	11748
923.767	11783
923.876	11707
923.984	11756
924.092	11642
924.201	11665
924.309	11729
924.417	11653
924.525	11573
924.633	11558
924.741	12441
924.849	11512
924.956	11672
925.064	11478
925.172	11307
925.279	11360
925.387	11379
925.494	11448
925.602	11524
925.709	11429
925.816	11303
925.924	11318
926.031	11368
926.138	11307
926.245	11474
926.352	11277
926.459	11448
926.566	11459
926.673	11288
926.779	11242
926.886	11121
926.993	11041
927.099	10984
927.206	10972
927.312	10980
927.419	11037
927.525	10984
927.631	10972
927.737	10877
927.843	10889
927.95	10778
928.056	10877
928.162	10915
928.267	10904
928.373	11493
928.479	10915
928.585	10736
928.69	10847
928.796	10824
928.901	10759
929.007	10603
929.112	10698
929.218	10706
929.323	10641
929.428	10641
929.533	10774
929.638	10702
929.743	10592
929.848	10607
929.953	10611
930.058	10508
930.163	10417
930.267	10382
930.372	10443
930.477	10257
930.581	10497
930.685	10443
930.79	10215
930.894	10318
930.998	10265
931.103	10428
931.207	9899
931.311	9903
931.415	9888
931.519	9766
931.623	9663
