Data from test_V78500241_2312.txt Node
Date: Fri Mar 25 14:49:48 CST 2022
User: usil
Spectrometer: V785-0024
Trigger mode: 0
Integration Time (sec): 4.000000E-1
Scans to average: 1
Nonlinearity correction enabled: false
Boxcar width: 0
Storing dark spectrum: false
XAxis mode: Wavelengths
Number of Pixels in Spectrum: 1024
>>>>>Begin Spectral Data<<<<<
801.071	22200
801.214	21968
801.356	21800
801.499	21667
801.641	21660
801.783	21542
801.926	21561
802.068	21439
802.211	21348
802.353	21336
802.496	21173
802.638	20967
802.78	20990
802.923	20941
803.065	20872
803.208	20823
803.35	20792
803.492	20952
803.635	20956
803.777	20845
803.919	21017
804.061	21176
804.204	20849
804.346	20880
804.488	20823
804.63	20800
804.773	20689
804.915	21001
805.057	20918
805.199	20864
805.341	20807
805.483	20956
805.626	20807
805.768	20777
805.91	20815
806.052	20735
806.194	20705
806.336	20834
806.478	20754
806.62	20754
806.762	20830
806.904	21070
807.046	21211
807.188	21146
807.33	21146
807.472	21100
807.614	21108
807.756	20883
807.898	20910
808.04	20857
808.182	20811
808.324	20895
808.465	20891
808.607	21184
808.749	21317
808.891	21317
809.033	21363
809.174	21348
809.316	21066
809.458	21188
809.6	21131
809.741	21176
809.883	21192
810.025	21488
810.166	21374
810.308	21340
810.45	21207
810.591	21077
810.733	21127
810.875	20914
811.016	20887
811.158	20918
811.299	20975
811.441	21047
811.582	21123
811.724	21081
811.865	20910
812.007	20902
812.148	20906
812.29	21020
812.431	21085
812.573	21188
812.714	21389
812.855	21412
812.997	21587
813.138	21671
813.279	21561
813.421	21462
813.562	21511
813.703	21180
813.845	21096
813.986	20914
814.127	20667
814.268	20693
814.41	20549
814.551	20473
814.692	20648
814.833	20446
814.974	20438
815.115	20556
815.256	20237
815.397	20461
815.539	20400
815.68	20271
815.821	20252
815.962	20278
816.103	20317
816.244	20020
816.385	20020
816.526	19890
816.666	19795
816.807	19556
816.948	19898
817.089	19795
817.23	19712
817.371	19533
817.512	19613
817.653	19666
817.793	19464
817.934	19635
818.075	19871
818.216	19597
818.356	19480
818.497	19533
818.638	19312
818.778	19316
818.919	19285
819.06	19251
819.2	19304
819.341	19499
819.481	19559
819.622	19575
819.762	19822
819.903	19795
820.043	19677
820.184	19594
820.324	19639
820.465	19575
820.605	19662
820.746	19597
820.886	19480
821.026	19521
821.167	19537
821.307	19723
821.447	19510
821.588	19476
821.728	19255
821.868	19209
822.008	18989
822.149	19133
822.289	19057
822.429	18798
822.569	18760
822.709	18779
822.849	18532
822.99	18502
823.13	18604
823.27	18323
823.41	18361
823.55	18281
823.69	18304
823.83	18414
823.97	18216
824.11	18148
824.25	18026
824.389	18030
824.529	18121
824.669	18068
824.809	18178
824.949	18254
825.089	18079
825.228	18076
825.368	17805
825.508	17878
825.648	17790
825.787	17923
825.927	17942
826.067	17824
826.206	17878
826.346	17805
826.485	17840
826.625	17767
826.765	17878
826.904	17874
827.044	17657
827.183	17592
827.323	17520
827.462	17562
827.601	17429
827.741	17490
827.88	17493
828.02	17474
828.159	17562
828.298	17520
828.437	17554
828.577	17547
828.716	17638
828.855	17516
828.994	17337
829.134	17292
829.273	17159
829.412	17239
829.551	17231
829.69	17212
829.829	17395
829.968	17417
830.107	17318
830.246	17212
830.385	17181
830.524	17162
830.663	17143
830.802	17018
830.941	16812
831.08	16942
831.219	16987
831.357	17083
831.496	17181
831.635	16828
831.774	16801
831.913	16736
832.051	16664
832.19	16626
832.329	16691
832.467	16592
832.606	16424
832.744	16577
832.883	16577
833.022	16592
833.16	16599
833.299	16607
833.437	16546
833.576	16599
833.714	16607
833.852	16634
833.991	16664
834.129	16656
834.267	16607
834.406	16577
834.544	16618
834.682	16558
834.821	16596
834.959	16809
835.097	16645
835.235	16710
835.373	16588
835.511	16618
835.65	16523
835.788	16527
835.926	16325
836.064	16325
836.202	16386
836.34	16622
836.478	16630
836.615	16538
836.753	16577
836.891	16611
837.029	16630
837.167	16402
837.305	16493
837.443	16436
837.58	16295
837.718	16405
837.856	16440
837.993	16329
838.131	16291
838.269	16295
838.406	16303
838.544	16261
838.681	16139
838.819	16120
838.956	15915
839.094	15884
839.231	15922
839.369	16067
839.506	16409
839.643	16246
839.781	15949
839.918	15888
840.055	15987
840.193	15895
840.33	15800
840.467	16013
840.604	15941
840.742	16105
840.879	15808
841.016	15865
841.153	15850
841.29	16074
841.427	15991
841.564	15945
841.701	15934
841.838	15930
841.975	15705
842.112	15850
842.249	15789
842.385	15663
842.522	15861
842.659	15781
842.796	15660
842.933	15690
843.069	15720
843.206	15679
843.343	15762
843.479	15595
843.616	15698
843.752	15519
843.889	15595
844.025	15644
844.162	15408
844.298	15580
844.435	15553
844.571	15382
844.708	15595
844.844	15606
844.98	15572
845.117	15538
845.253	15420
845.389	15294
845.525	15447
845.661	15378
845.798	15135
845.934	15382
846.07	15222
846.206	15298
846.342	15336
846.478	15348
846.614	15226
846.75	14910
846.886	14963
847.022	15024
847.158	15131
847.294	15047
847.429	15116
847.565	15036
847.701	15298
847.837	14686
847.972	14746
848.108	14864
848.244	14914
848.379	14682
848.515	14655
848.65	14674
848.786	14670
848.921	14659
849.057	14701
849.192	14785
849.328	14693
849.463	14743
849.598	14693
849.734	14545
849.869	14564
850.004	14473
850.14	14568
850.275	14427
850.41	14320
850.545	14385
850.68	14317
850.815	14427
850.95	14339
851.085	14583
851.22	14484
851.355	14415
851.49	14442
851.625	14320
851.76	14389
851.895	14256
852.03	14282
852.165	14412
852.299	14423
852.434	14412
852.569	14347
852.703	14396
852.838	14377
852.973	14579
853.107	14541
853.242	14385
853.376	14370
853.511	14202
853.645	14202
853.78	14434
853.914	14301
854.048	14309
854.183	14157
854.317	14351
854.451	14385
854.585	14187
854.72	14248
854.854	14355
854.988	14142
855.122	14195
855.256	14103
855.39	14199
855.524	14305
855.658	14278
855.792	14305
855.926	14355
856.06	14282
856.194	14343
856.327	14305
856.461	14157
856.595	14309
856.729	14233
856.862	14396
856.996	14267
857.13	14404
857.263	14381
857.397	14324
857.53	14263
857.664	14305
857.797	14404
857.931	14396
858.064	14313
858.197	14393
858.331	14240
858.464	14218
858.597	14100
858.731	14267
858.864	14252
858.997	14400
859.13	14267
859.263	14240
859.396	14476
859.529	14248
859.662	14267
859.795	14237
859.928	14343
860.061	14457
860.194	14434
860.327	14199
860.46	14298
860.592	14419
860.725	14366
860.858	14404
860.99	14317
861.123	14278
861.256	14263
861.388	14240
861.521	14845
861.653	14073
861.786	14103
861.918	14119
862.05	14206
862.183	14256
862.315	14221
862.447	14320
862.58	14320
862.712	14027
862.844	13986
862.976	14134
863.108	14081
863.24	14419
863.372	13974
863.504	14043
863.636	14084
863.768	14126
863.9	13978
864.032	13849
864.164	14043
864.296	14134
864.428	14210
864.559	14119
864.691	14229
864.823	14145
864.954	14065
865.086	14088
865.217	14016
865.349	13978
865.48	13989
865.612	14065
865.743	14100
865.875	14054
866.006	13906
866.137	13970
866.269	14031
866.4	13967
866.531	13955
866.662	13917
866.793	14016
866.924	14039
867.055	13951
867.186	13951
867.317	14016
867.448	13970
867.579	13871
867.71	13947
867.841	13967
867.972	14005
868.103	14024
868.233	13993
868.364	13997
868.495	14130
868.625	14218
868.756	14358
868.886	14180
869.017	14278
869.147	14358
869.278	14389
869.408	14252
869.539	14278
869.669	14355
869.799	14294
869.929	14351
870.06	14381
870.19	14598
870.32	14590
870.45	14701
870.58	14686
870.71	14754
870.84	14853
870.97	14640
871.1	14659
871.23	14823
871.36	14880
871.489	14773
871.619	14762
871.749	14963
871.879	14937
872.008	14956
872.138	14933
872.267	14842
872.397	14674
872.526	14701
872.656	14655
872.785	14849
872.915	14857
873.044	15024
873.173	14842
873.303	15028
873.432	14994
873.561	15055
873.69	14956
873.819	14960
873.948	14952
874.077	14979
874.206	14857
874.335	15055
874.464	15085
874.593	15184
874.722	15176
874.851	15214
874.979	15332
875.108	15214
875.237	15226
875.365	15100
875.494	15211
875.623	15291
875.751	15203
875.88	15306
876.008	15397
876.136	15473
876.265	15603
876.393	15846
876.521	15713
876.65	15766
876.778	15675
876.906	15625
877.034	15660
877.162	15694
877.29	15625
877.418	15633
877.546	15599
877.674	15698
877.802	15686
877.93	15728
878.058	15629
878.185	15618
878.313	15637
878.441	15614
878.568	15435
878.696	15488
878.824	15759
878.951	15698
879.079	15831
879.206	16017
879.333	15846
879.461	15724
879.588	15728
879.715	15895
879.842	15876
879.97	15747
880.097	15481
880.224	15481
880.351	15641
880.478	15584
880.605	15416
880.732	15500
880.859	15701
880.986	15428
881.112	15523
881.239	15260
881.366	15344
881.493	15199
881.619	15150
881.746	15256
881.872	15180
881.999	15161
882.125	15203
882.252	15188
882.378	15146
882.505	15374
882.631	15043
882.757	15005
882.883	15036
883.01	14963
883.136	15043
883.262	14895
883.388	14758
883.514	15005
883.64	15001
883.766	14902
883.892	14777
884.018	14883
884.143	14891
884.269	15032
884.395	14743
884.52	14727
884.646	14659
884.772	14617
884.897	14655
885.023	14750
885.148	14754
885.274	14788
885.399	14857
885.524	14610
885.65	14659
885.775	14804
885.9	14667
886.025	14743
886.15	14720
886.275	14655
886.4	14613
886.525	14613
886.65	14632
886.775	14629
886.9	14899
887.025	14838
887.149	14678
887.274	14530
887.399	14495
887.523	14503
887.648	14408
887.773	14396
887.897	14415
888.021	14484
888.146	14469
888.27	14571
888.395	14697
888.519	14522
888.643	14617
888.767	14522
888.891	14423
889.015	14328
889.139	14480
889.263	14370
889.387	14511
889.511	14598
889.635	14461
889.759	14336
889.883	14313
890.006	14457
890.13	14522
890.254	14328
890.377	14317
890.501	14107
890.624	14191
890.748	14221
890.871	14100
890.995	14043
891.118	13978
891.241	14035
891.364	14149
891.488	14176
891.611	14054
891.734	14077
891.857	14195
891.98	14073
892.103	14172
892.226	14107
892.349	14046
892.471	13879
892.594	14065
892.717	14088
892.839	14077
892.962	14088
893.085	14248
893.207	14092
893.33	14001
893.452	14039
893.575	14229
893.697	14020
893.819	14263
893.941	14317
894.064	14164
894.186	13989
894.308	14096
894.43	14199
894.552	14259
894.674	14259
894.796	14054
894.918	14180
895.04	14153
895.161	14305
895.283	14233
895.405	14103
895.526	14180
895.648	14172
895.769	14172
895.891	14332
896.012	14343
896.134	14339
896.255	14305
896.376	14225
896.498	14256
896.619	14271
896.74	14199
896.861	14229
896.982	14606
897.103	14796
897.224	14636
897.345	14434
897.466	14461
897.587	14518
897.708	14617
897.828	14640
897.949	14438
898.07	14324
898.19	14431
898.311	14708
898.431	14533
898.552	14598
898.672	14663
898.792	14689
898.913	14594
899.033	14583
899.153	14431
899.273	14355
899.393	14385
899.513	14488
899.633	14457
899.753	14533
899.873	14396
899.993	14571
900.113	14476
900.232	14457
900.352	14492
900.472	14419
900.591	14389
900.711	14351
900.83	14271
900.95	14381
901.069	14377
901.189	14282
901.308	14058
901.427	14062
901.546	13913
901.665	13970
901.784	14024
901.904	13940
902.023	13811
902.141	13670
902.26	13578
902.379	13677
902.498	13491
902.617	13506
902.735	13548
902.854	13586
902.973	13445
903.091	13320
903.21	13251
903.328	13304
903.446	13247
903.565	13107
903.683	13171
903.801	13122
903.919	13149
904.038	13129
904.156	12924
904.274	13065
904.392	12954
904.51	12947
904.627	12962
904.745	13008
904.863	13034
904.981	12753
905.098	12753
905.216	12631
905.334	12700
905.451	12601
905.569	12673
905.686	12646
905.803	12654
905.921	12426
906.038	12589
906.155	12475
906.272	12353
906.389	12388
906.506	12270
906.623	12277
906.74	12254
906.857	12110
906.974	12209
907.091	12334
907.208	12350
907.324	12266
907.441	12186
907.557	12072
907.674	11931
907.79	11942
907.907	11965
908.023	12057
908.139	11950
908.256	11885
908.372	11901
908.488	11920
908.604	11783
908.72	11733
908.836	11703
908.952	11699
909.068	11790
909.184	11786
909.3	11688
909.415	11756
909.531	11821
909.647	11512
909.762	11486
909.878	11448
909.993	11528
910.108	11497
910.224	11421
910.339	11497
910.454	11535
910.57	11364
910.685	11311
910.8	11596
910.915	11398
911.03	11265
911.145	11299
911.259	11178
911.374	11216
911.489	11124
911.604	10968
911.718	10999
911.833	10949
911.947	10930
912.062	10733
912.176	11037
912.291	10972
912.405	10984
912.519	11151
912.633	11185
912.748	11052
912.862	11029
912.976	10839
913.09	10736
913.204	10755
913.318	10919
913.431	10946
913.545	10934
913.659	10953
913.772	10877
913.886	10740
914	10736
914.113	10759
914.226	10820
914.34	10816
914.453	10546
914.566	10797
914.68	10641
914.793	10710
914.906	10440
915.019	10329
915.132	10363
915.245	10455
915.358	10474
915.47	10447
915.583	10413
915.696	10569
915.809	10538
915.921	10630
916.034	10413
916.146	10466
916.259	10405
916.371	10519
916.483	10493
916.595	10375
916.708	10432
916.82	10428
916.932	10379
917.044	10375
917.156	10371
917.268	10318
917.38	10287
917.491	10295
917.603	10333
917.715	10363
917.826	10371
917.938	10329
918.049	10143
918.161	10310
918.272	10421
918.384	10485
918.495	10440
918.606	10200
918.717	10150
918.828	10261
918.939	10185
919.05	10128
919.161	10173
919.272	10032
919.383	10048
919.494	10306
919.604	10417
919.715	10139
919.826	10097
919.936	10257
920.047	10322
920.157	10261
920.267	10417
920.378	10268
920.488	10207
920.598	10428
920.708	10569
920.818	10413
920.928	10432
921.038	10569
921.148	10455
921.258	10344
921.368	10219
921.477	10017
921.587	10029
921.697	9960
921.806	10063
921.916	9895
922.025	9835
922.134	9823
922.244	9762
922.353	9835
922.462	9755
922.571	9637
922.68	9431
922.789	9507
922.898	9443
923.007	9420
923.116	9504
923.224	9469
923.333	9443
923.442	9466
923.55	9378
923.659	9359
923.767	9348
923.876	9325
923.984	9393
924.092	9310
924.201	9226
924.309	9283
924.417	9268
924.525	9298
924.633	9348
924.741	10185
924.849	9089
924.956	9218
925.064	9043
925.172	9047
925.279	9055
925.387	9135
925.494	9116
925.602	9256
925.709	9207
925.816	9024
925.924	9222
926.031	9260
926.138	9017
926.245	9180
926.352	9039
926.459	9154
926.566	9192
926.673	9043
926.779	8963
926.886	8941
926.993	8868
927.099	8891
927.206	8800
927.312	8754
927.419	8811
927.525	8826
927.631	8952
927.737	8716
927.843	8773
927.95	8720
928.056	8697
928.162	8735
928.267	8762
928.373	9401
928.479	8853
928.585	8583
928.69	8716
928.796	8678
928.901	8655
929.007	8571
929.112	8712
929.218	8602
929.323	8552
929.428	8541
929.533	8678
929.638	8454
929.743	8594
929.848	8549
929.953	8549
930.058	8434
930.163	8294
930.267	8393
930.372	8533
930.477	8290
930.581	8537
930.685	8385
930.79	8252
930.894	8324
930.998	8244
931.103	8431
931.207	8126
931.311	8043
931.415	7959
931.519	7814
931.623	7776
