Data from test_V78500241_2027.txt Node
Date: Fri Mar 25 14:47:49 CST 2022
User: usil
Spectrometer: V785-0024
Trigger mode: 0
Integration Time (sec): 4.000000E-1
Scans to average: 1
Nonlinearity correction enabled: false
Boxcar width: 0
Storing dark spectrum: false
XAxis mode: Wavelengths
Number of Pixels in Spectrum: 1024
>>>>>Begin Spectral Data<<<<<
801.071	22139
801.214	22059
801.356	21656
801.499	21591
801.641	21557
801.783	21485
801.926	21542
802.068	21355
802.211	21336
802.353	21336
802.496	21047
802.638	21009
802.78	20986
802.923	20838
803.065	20777
803.208	20765
803.35	20830
803.492	20887
803.635	20910
803.777	20815
803.919	20967
804.061	21150
804.204	20895
804.346	20807
804.488	20693
804.63	20830
804.773	20678
804.915	20754
805.057	20895
805.199	20693
805.341	20838
805.483	20925
805.626	20788
805.768	20708
805.91	20811
806.052	20819
806.194	20689
806.336	20902
806.478	20739
806.62	20785
806.762	20887
806.904	20948
807.046	21157
807.188	21020
807.33	21093
807.472	21077
807.614	20815
807.756	21017
807.898	20849
808.04	20773
808.182	20804
808.324	20853
808.465	20750
808.607	21005
808.749	20994
808.891	21298
809.033	21325
809.174	21207
809.316	21081
809.458	21043
809.6	21142
809.741	21135
809.883	21207
810.025	21279
810.166	21336
810.308	21214
810.45	21146
810.591	21066
810.733	20994
810.875	20838
811.016	20716
811.158	20769
811.299	20929
811.441	21005
811.582	21058
811.724	20792
811.865	20944
812.007	20849
812.148	20891
812.29	20906
812.431	21039
812.573	21077
812.714	21287
812.855	21355
812.997	21355
813.138	21614
813.279	21538
813.421	21397
813.562	21348
813.703	21192
813.845	21017
813.986	20754
814.127	20556
814.268	20511
814.41	20427
814.551	20492
814.692	20526
814.833	20347
814.974	20237
815.115	20408
815.256	20259
815.397	20202
815.539	20309
815.68	20161
815.821	20092
815.962	20195
816.103	20218
816.244	20069
816.385	19959
816.526	19845
816.666	19769
816.807	19537
816.948	19578
817.089	19902
817.23	19556
817.371	19491
817.512	19552
817.653	19529
817.793	19533
817.934	19552
818.075	19605
818.216	19594
818.356	19434
818.497	19396
818.638	19312
818.778	19206
818.919	19240
819.06	19232
819.2	19460
819.341	19308
819.481	19521
819.622	19540
819.762	19746
819.903	19567
820.043	19563
820.184	19533
820.324	19506
820.465	19567
820.605	19487
820.746	19571
820.886	19392
821.026	19609
821.167	19548
821.307	19559
821.447	19407
821.588	19316
821.728	19255
821.868	19209
822.008	18943
822.149	19034
822.289	18863
822.429	18658
822.569	18715
822.709	18639
822.849	18486
822.99	18441
823.13	18372
823.27	18334
823.41	18289
823.55	18205
823.69	18232
823.83	18270
823.97	18155
824.11	17969
824.25	18053
824.389	17950
824.529	18049
824.669	17984
824.809	18129
824.949	18098
825.089	17999
825.228	17939
825.368	17939
825.508	17802
825.648	17882
825.787	17866
825.927	17893
826.067	17745
826.206	17703
826.346	17836
826.485	17813
826.625	17760
826.765	17874
826.904	17828
827.044	17573
827.183	17646
827.323	17414
827.462	17585
827.601	17482
827.741	17528
827.88	17486
828.02	17387
828.159	17448
828.298	17505
828.437	17581
828.577	17406
828.716	17554
828.855	17509
828.994	17372
829.134	17231
829.273	17265
829.412	17299
829.551	17143
829.69	17159
829.829	17296
829.968	17444
830.107	17296
830.246	17170
830.385	17223
830.524	17136
830.663	17090
830.802	16972
830.941	16805
831.08	16904
831.219	16949
831.357	17025
831.496	17113
831.635	16869
831.774	16793
831.913	16691
832.051	16622
832.19	16664
832.329	16691
832.467	16523
832.606	16542
832.744	16402
832.883	16611
833.022	16489
833.16	16558
833.299	16588
833.437	16599
833.576	16542
833.714	16580
833.852	16679
833.991	16622
834.129	16656
834.267	16675
834.406	16512
834.544	16607
834.682	16500
834.821	16603
834.959	16744
835.097	16573
835.235	16713
835.373	16580
835.511	16675
835.65	16542
835.788	16523
835.926	16306
836.064	16280
836.202	16421
836.34	16554
836.478	16573
836.615	16462
836.753	16542
836.891	16523
837.029	16550
837.167	16451
837.305	16394
837.443	16474
837.58	16386
837.718	16512
837.856	16569
837.993	16405
838.131	16405
838.269	16299
838.406	16306
838.544	16261
838.681	16071
838.819	15991
838.956	15884
839.094	15945
839.231	15949
839.369	16090
839.506	16333
839.643	16200
839.781	16059
839.918	15888
840.055	15941
840.193	15922
840.33	15926
840.467	15835
840.604	16032
840.742	16192
840.879	15823
841.016	15800
841.153	15793
841.29	16097
841.427	15956
841.564	15979
841.701	16021
841.838	15937
841.975	15960
842.112	15812
842.249	15831
842.385	15720
842.522	15892
842.659	15869
842.796	15766
842.933	15690
843.069	15751
843.206	15622
843.343	15842
843.479	15770
843.616	15625
843.752	15500
843.889	15549
844.025	15671
844.162	15549
844.298	15599
844.435	15523
844.571	15511
844.708	15542
844.844	15728
844.98	15572
845.117	15648
845.253	15511
845.389	15340
845.525	15389
845.661	15416
845.798	15332
845.934	15294
846.07	15313
846.206	15313
846.342	15587
846.478	15233
846.614	15138
846.75	15055
846.886	15097
847.022	15123
847.158	15119
847.294	15127
847.429	15180
847.565	15157
847.701	15279
847.837	14887
847.972	14781
848.108	14811
848.244	14933
848.379	14746
848.515	14625
848.65	14556
848.786	14708
848.921	14746
849.057	14830
849.192	14788
849.328	14746
849.463	14705
849.598	14659
849.734	14632
849.869	14590
850.004	14469
850.14	14514
850.275	14465
850.41	14339
850.545	14404
850.68	14431
850.815	14427
850.95	14381
851.085	14651
851.22	14533
851.355	14473
851.49	14396
851.625	14389
851.76	14419
851.895	14343
852.03	14370
852.165	14377
852.299	14499
852.434	14564
852.569	14442
852.703	14514
852.838	14484
852.973	14552
853.107	14667
853.242	14400
853.376	14400
853.511	14050
853.645	14290
853.78	14476
853.914	14396
854.048	14248
854.183	14313
854.317	14294
854.451	14526
854.585	14248
854.72	14358
854.854	14434
854.988	14309
855.122	14343
855.256	14107
855.39	14400
855.524	14278
855.658	14324
855.792	14320
855.926	14465
856.06	14358
856.194	14415
856.327	14294
856.461	14275
856.595	14267
856.729	14339
856.862	14476
856.996	14286
857.13	14370
857.263	14377
857.397	14476
857.53	14298
857.664	14366
857.797	14381
857.931	14396
858.064	14336
858.197	14488
858.331	14393
858.464	14355
858.597	14309
858.731	14278
858.864	14233
858.997	14221
859.13	14362
859.263	14294
859.396	14461
859.529	14339
859.662	14351
859.795	14324
859.928	14328
860.061	14480
860.194	14488
860.327	14328
860.46	14298
860.592	14427
860.725	14454
860.858	14438
860.99	14267
861.123	14259
861.256	14237
861.388	14237
861.521	14963
861.653	14237
861.786	14218
861.918	14176
862.05	14221
862.183	14267
862.315	14328
862.447	14271
862.58	14225
862.712	14119
862.844	14088
862.976	14256
863.108	14134
863.24	14457
863.372	14065
863.504	14012
863.636	14065
863.768	14054
863.9	14065
864.032	14046
864.164	14119
864.296	14081
864.428	14172
864.559	14176
864.691	14221
864.823	14183
864.954	14138
865.086	14115
865.217	14073
865.349	14020
865.48	14096
865.612	14107
865.743	14229
865.875	14035
866.006	14046
866.137	14134
866.269	14180
866.4	14016
866.531	14077
866.662	14123
866.793	14035
866.924	14035
867.055	14065
867.186	13997
867.317	13993
867.448	14069
867.579	14005
867.71	13936
867.841	14001
867.972	14092
868.103	14088
868.233	14187
868.364	14111
868.495	14149
868.625	14244
868.756	14412
868.886	14305
869.017	14381
869.147	14324
869.278	14423
869.408	14286
869.539	14263
869.669	14412
869.799	14301
869.929	14492
870.06	14469
870.19	14731
870.32	14636
870.45	14674
870.58	14720
870.71	14849
870.84	14941
870.97	14712
871.1	14613
871.23	14906
871.36	14937
871.489	14838
871.619	14933
871.749	14895
871.879	15047
872.008	15077
872.138	14910
872.267	14994
872.397	14674
872.526	14807
872.656	14743
872.785	14777
872.915	14994
873.044	15039
873.173	14952
873.303	14986
873.432	14952
873.561	15100
873.69	14986
873.819	15017
873.948	14971
874.077	14986
874.206	14975
874.335	15001
874.464	15062
874.593	15252
874.722	15226
874.851	15351
874.979	15336
875.108	15386
875.237	15131
875.365	15218
875.494	15294
875.623	15332
875.751	15203
875.88	15389
876.008	15412
876.136	15595
876.265	15747
876.393	15915
876.521	15850
876.65	15808
876.778	15831
876.906	15625
877.034	15625
877.162	15720
877.29	15622
877.418	15686
877.546	15690
877.674	15679
877.802	15739
877.93	15686
878.058	15732
878.185	15568
878.313	15701
878.441	15644
878.568	15557
878.696	15622
878.824	15804
878.951	15831
879.079	15869
879.206	16040
879.333	15945
879.461	15755
879.588	15804
879.715	15850
879.842	15991
879.97	15743
880.097	15519
880.224	15507
880.351	15545
880.478	15618
880.605	15408
880.732	15545
880.859	15770
880.986	15644
881.112	15606
881.239	15477
881.366	15374
881.493	15256
881.619	15211
881.746	15222
881.872	15226
881.999	15180
882.125	15146
882.252	15252
882.378	15230
882.505	15317
882.631	15199
882.757	15077
882.883	15135
883.01	15032
883.136	14963
883.262	14868
883.388	14731
883.514	15005
883.64	15074
883.766	14952
883.892	14826
884.018	14906
884.143	14979
884.269	15108
884.395	14762
884.52	14670
884.646	14750
884.772	14651
884.897	14682
885.023	14735
885.148	14845
885.274	14933
885.399	14838
885.524	14739
885.65	14693
885.775	14769
885.9	14697
886.025	14887
886.15	14769
886.275	14792
886.4	14651
886.525	14705
886.65	14712
886.775	14674
886.9	14891
887.025	15123
887.149	14667
887.274	14670
887.399	14484
887.523	14526
887.648	14530
887.773	14473
887.897	14549
888.021	14610
888.146	14541
888.27	14617
888.395	14735
888.519	14606
888.643	14583
888.767	14621
888.891	14442
889.015	14408
889.139	14488
889.263	14419
889.387	14575
889.511	14682
889.635	14556
889.759	14389
889.883	14374
890.006	14400
890.13	14511
890.254	14457
890.377	14301
890.501	14218
890.624	14263
890.748	14320
890.871	14176
890.995	14088
891.118	14020
891.241	14107
891.364	14111
891.488	14225
891.611	14164
891.734	14119
891.857	14149
891.98	14130
892.103	14218
892.226	14229
892.349	14134
892.471	14020
892.594	14084
892.717	14153
892.839	14115
892.962	14054
893.085	14115
893.207	14176
893.33	13959
893.452	14088
893.575	14195
893.697	14043
893.819	14313
893.941	14370
894.064	14278
894.186	14153
894.308	14073
894.43	14248
894.552	14404
894.674	14259
894.796	14145
894.918	14161
895.04	14168
895.161	14320
895.283	14309
895.405	14187
895.526	14267
895.648	14199
895.769	14244
895.891	14290
896.012	14366
896.134	14271
896.255	14332
896.376	14233
896.498	14252
896.619	14275
896.74	14362
896.861	14396
896.982	14682
897.103	14826
897.224	14526
897.345	14648
897.466	14473
897.587	14442
897.708	14716
897.828	14621
897.949	14552
898.07	14469
898.19	14556
898.311	14762
898.431	14583
898.552	14610
898.672	14701
898.792	14716
898.913	14625
899.033	14621
899.153	14552
899.273	14514
899.393	14423
899.513	14476
899.633	14549
899.753	14514
899.873	14488
899.993	14454
900.113	14511
900.232	14530
900.352	14518
900.472	14362
900.591	14385
900.711	14419
900.83	14454
900.95	14450
901.069	14469
901.189	14389
901.308	14088
901.427	13959
901.546	14016
901.665	14161
901.784	14054
901.904	13902
902.023	13791
902.141	13670
902.26	13639
902.379	13685
902.498	13613
902.617	13464
902.735	13594
902.854	13548
902.973	13445
903.091	13324
903.21	13316
903.328	13373
903.446	13289
903.565	13107
903.683	13160
903.801	13149
903.919	13141
904.038	13206
904.156	13000
904.274	13053
904.392	12935
904.51	12939
904.627	13046
904.745	13050
904.863	13034
904.981	12692
905.098	12696
905.216	12707
905.334	12738
905.451	12692
905.569	12612
905.686	12665
905.803	12635
905.921	12479
906.038	12627
906.155	12513
906.272	12350
906.389	12407
906.506	12266
906.623	12292
906.74	12292
906.857	12152
906.974	12197
907.091	12342
907.208	12448
907.324	12311
907.441	12213
907.557	12064
907.674	12060
907.79	11969
907.907	11958
908.023	12083
908.139	12102
908.256	12060
908.372	11969
908.488	11893
908.604	11760
908.72	11752
908.836	11840
908.952	11813
909.068	11775
909.184	11897
909.3	11832
909.415	11904
909.531	11729
909.647	11581
909.762	11539
909.878	11497
909.993	11478
910.108	11547
910.224	11421
910.339	11554
910.454	11349
910.57	11429
910.685	11349
910.8	11665
910.915	11493
911.03	11440
911.145	11254
911.259	11223
911.374	11269
911.489	11140
911.604	11094
911.718	11037
911.833	10934
911.947	10854
912.062	10824
912.176	10877
912.291	11075
912.405	11041
912.519	11067
912.633	11185
912.748	10999
912.862	11079
912.976	10854
913.09	10786
913.204	10793
913.318	10919
913.431	10987
913.545	11018
913.659	10946
913.772	10923
913.886	10752
914	10797
914.113	10847
914.226	10786
914.34	10812
914.453	10664
914.566	10771
914.68	10691
914.793	10649
914.906	10618
915.019	10417
915.132	10470
915.245	10470
915.358	10523
915.47	10580
915.583	10489
915.696	10554
915.809	10645
915.921	10645
916.034	10508
916.146	10474
916.259	10459
916.371	10561
916.483	10519
916.595	10405
916.708	10436
916.82	10481
916.932	10459
917.044	10459
917.156	10455
917.268	10280
917.38	10325
917.491	10303
917.603	10440
917.715	10489
917.826	10440
917.938	10287
918.049	10234
918.161	10390
918.272	10523
918.384	10432
918.495	10375
918.606	10325
918.717	10234
918.828	10261
918.939	10268
919.05	10249
919.161	10314
919.272	10063
919.383	10185
919.494	10360
919.604	10500
919.715	10230
919.826	10188
919.936	10227
920.047	10333
920.157	10238
920.267	10531
920.378	10341
920.488	10234
920.598	10394
920.708	10675
920.818	10481
920.928	10428
921.038	10706
921.148	10615
921.258	10299
921.368	10287
921.477	10112
921.587	10116
921.697	10010
921.806	10147
921.916	9968
922.025	9937
922.134	9827
922.244	9724
922.353	9892
922.462	9717
922.571	9644
922.68	9542
922.789	9496
922.898	9504
923.007	9523
923.116	9504
923.224	9534
923.333	9561
923.442	9424
923.55	9370
923.659	9378
923.767	9435
923.876	9431
923.984	9443
924.092	9302
924.201	9389
924.309	9408
924.417	9420
924.525	9355
924.633	9336
924.741	10242
924.849	9173
924.956	9306
925.064	9192
925.172	9085
925.279	9077
925.387	9264
925.494	9123
925.602	9279
925.709	9313
925.816	9070
925.924	9173
926.031	9332
926.138	9192
926.245	9226
926.352	9157
926.459	9291
926.566	9260
926.673	9157
926.779	9013
926.886	9062
926.993	8883
927.099	8944
927.206	8857
927.312	8868
927.419	8929
927.525	8887
927.631	8998
927.737	8853
927.843	8758
927.95	8610
928.056	8746
928.162	8811
928.267	8872
928.373	9454
928.479	8853
928.585	8629
928.69	8766
928.796	8838
928.901	8746
929.007	8564
929.112	8682
929.218	8716
929.323	8610
929.428	8629
929.533	8686
929.638	8606
929.743	8514
929.848	8613
929.953	8598
930.058	8507
930.163	8393
930.267	8431
930.372	8583
930.477	8347
930.581	8560
930.685	8450
930.79	8256
930.894	8343
930.998	8248
931.103	8434
931.207	8069
931.311	8058
931.415	8031
931.519	7822
931.623	7860
