Data from test_V78500241_3587.txt Node
Date: Fri Mar 25 14:58:41 CST 2022
User: usil
Spectrometer: V785-0024
Trigger mode: 0
Integration Time (sec): 4.000000E-1
Scans to average: 1
Nonlinearity correction enabled: false
Boxcar width: 0
Storing dark spectrum: false
XAxis mode: Wavelengths
Number of Pixels in Spectrum: 1024
>>>>>Begin Spectral Data<<<<<
801.071	21789
801.214	21671
801.356	21439
801.499	21351
801.641	21275
801.783	21203
801.926	21260
802.068	21188
802.211	21241
802.353	21051
802.496	20845
802.638	20705
802.78	20587
802.923	20663
803.065	20431
803.208	20526
803.35	20648
803.492	20697
803.635	20758
803.777	20442
803.919	20682
804.061	20906
804.204	20693
804.346	20457
804.488	20438
804.63	20457
804.773	20473
804.915	20530
805.057	20594
805.199	20442
805.341	20454
805.483	20587
805.626	20625
805.768	20446
805.91	20648
806.052	20438
806.194	20278
806.336	20533
806.478	20499
806.62	20419
806.762	20514
806.904	20594
807.046	20849
807.188	20796
807.33	20689
807.472	20807
807.614	20762
807.756	20906
807.898	20644
808.04	20530
808.182	20545
808.324	20609
808.465	20587
808.607	20720
808.749	20773
808.891	20929
809.033	21020
809.174	20785
809.316	20807
809.458	20868
809.6	20743
809.741	20929
809.883	20807
810.025	21039
810.166	20918
810.308	20887
810.45	20963
810.591	20731
810.733	20739
810.875	20712
811.016	20465
811.158	20484
811.299	20617
811.441	20758
811.582	20724
811.724	20598
811.865	20442
812.007	20598
812.148	20549
812.29	20609
812.431	20804
812.573	20864
812.714	20868
812.855	21112
812.997	21249
813.138	21336
813.279	21161
813.421	21074
813.562	21051
813.703	20773
813.845	20777
813.986	20431
814.127	20339
814.268	20149
814.41	20282
814.551	20073
814.692	20240
814.833	20130
814.974	20031
815.115	20058
815.256	19883
815.397	19944
815.539	19921
815.68	19837
815.821	19826
815.962	19951
816.103	19803
816.244	19769
816.385	19586
816.526	19597
816.666	19388
816.807	19331
816.948	19457
817.089	19419
817.23	19369
817.371	19343
817.512	19148
817.653	19263
817.793	19179
817.934	19244
818.075	19221
818.216	19263
818.356	19118
818.497	19088
818.638	18848
818.778	18989
818.919	18867
819.06	18897
819.2	19107
819.341	19137
819.481	19126
819.622	19213
819.762	19487
819.903	19445
820.043	19247
820.184	19213
820.324	19194
820.465	19335
820.605	19175
820.746	19213
820.886	19072
821.026	19259
821.167	19103
821.307	19145
821.447	19206
821.588	18981
821.728	18954
821.868	18745
822.008	18738
822.149	18700
822.289	18574
822.429	18452
822.569	18376
822.709	18388
822.849	18117
822.99	18228
823.13	18125
823.27	18190
823.41	17958
823.55	17832
823.69	17992
823.83	17939
823.97	17950
824.11	17786
824.25	17634
824.389	17802
824.529	17786
824.669	17805
824.809	17821
824.949	17878
825.089	17764
825.228	17623
825.368	17589
825.508	17433
825.648	17520
825.787	17474
825.927	17657
826.067	17471
826.206	17520
826.346	17524
826.485	17497
826.625	17532
826.765	17566
826.904	17554
827.044	17315
827.183	17242
827.323	17200
827.462	17277
827.601	17174
827.741	17170
827.88	17216
828.02	17121
828.159	17185
828.298	17250
828.437	17299
828.577	17136
828.716	17311
828.855	17124
828.994	17037
829.134	16976
829.273	16991
829.412	16885
829.551	16904
829.69	17022
829.829	16957
829.968	16984
830.107	17086
830.246	16980
830.385	16831
830.524	16862
830.663	16824
830.802	16653
830.941	16569
831.08	16550
831.219	16596
831.357	16656
831.496	16771
831.635	16573
831.774	16386
831.913	16508
832.051	16432
832.19	16436
832.329	16440
832.467	16341
832.606	16207
832.744	16200
832.883	16166
833.022	16314
833.16	16223
833.299	16390
833.437	16322
833.576	16436
833.714	16291
833.852	16371
833.991	16375
834.129	16470
834.267	16363
834.406	16421
834.544	16360
834.682	16348
834.821	16360
834.959	16504
835.097	16329
835.235	16497
835.373	16440
835.511	16348
835.65	16181
835.788	16207
835.926	16036
836.064	16124
836.202	16101
836.34	16299
836.478	16329
836.615	16188
836.753	16314
836.891	16257
837.029	16261
837.167	16166
837.305	16200
837.443	16147
837.58	16078
837.718	16238
837.856	16139
837.993	16143
838.131	16093
838.269	16109
838.406	16036
838.544	16002
838.681	15922
838.819	15865
838.956	15739
839.094	15663
839.231	15698
839.369	15861
839.506	16112
839.643	15930
839.781	15633
839.918	15679
840.055	15705
840.193	15827
840.33	15690
840.467	15660
840.604	15690
840.742	15949
840.879	15572
841.016	15686
841.153	15561
841.29	15766
841.427	15751
841.564	15743
841.701	15682
841.838	15682
841.975	15564
842.112	15739
842.249	15561
842.385	15389
842.522	15717
842.659	15572
842.796	15405
842.933	15504
843.069	15420
843.206	15401
843.343	15587
843.479	15439
843.616	15542
843.752	15313
843.889	15249
844.025	15332
844.162	15291
844.298	15367
844.435	15424
844.571	15157
844.708	15329
844.844	15408
844.98	15401
845.117	15321
845.253	15184
845.389	15157
845.525	15184
845.661	15119
845.798	15055
845.934	15100
846.07	15013
846.206	15070
846.342	15188
846.478	15058
846.614	14857
846.75	14815
846.886	14777
847.022	14982
847.158	14899
847.294	14891
847.429	14857
847.565	14773
847.701	15066
847.837	14564
847.972	14503
848.108	14697
848.244	14602
848.379	14537
848.515	14412
848.65	14457
848.786	14473
848.921	14385
849.057	14518
849.192	14587
849.328	14488
849.463	14492
849.598	14389
849.734	14412
849.869	14263
850.004	14294
850.14	14294
850.275	14240
850.41	14164
850.545	14161
850.68	14111
850.815	14328
850.95	14221
851.085	14412
851.22	14377
851.355	14202
851.49	14195
851.625	14149
851.76	14073
851.895	14168
852.03	14134
852.165	14176
852.299	14229
852.434	14183
852.569	14233
852.703	14248
852.838	14328
852.973	14457
853.107	14336
853.242	14180
853.376	14096
853.511	14016
853.645	13967
853.78	14145
853.914	14027
854.048	14050
854.183	14081
854.317	14088
854.451	14309
854.585	14016
854.72	14008
854.854	14111
854.988	14077
855.122	14138
855.256	13932
855.39	14008
855.524	14145
855.658	14138
855.792	14073
855.926	14088
856.06	14195
856.194	14210
856.327	14073
856.461	13978
856.595	14027
856.729	14039
856.862	14149
856.996	14119
857.13	14149
857.263	14248
857.397	14202
857.53	13974
857.664	14168
857.797	14298
857.931	14214
858.064	14016
858.197	14119
858.331	14035
858.464	14016
858.597	13925
858.731	14035
858.864	14092
858.997	14126
859.13	14100
859.263	14092
859.396	14157
859.529	13982
859.662	14073
859.795	14050
859.928	14073
860.061	14225
860.194	14149
860.327	14168
860.46	14073
860.592	14145
860.725	14229
860.858	14195
860.99	14084
861.123	13967
861.256	13959
861.388	14069
861.521	14887
861.653	14084
861.786	13951
861.918	13936
862.05	13967
862.183	14119
862.315	14164
862.447	14092
862.58	14103
862.712	13791
862.844	13788
862.976	13917
863.108	13913
863.24	14195
863.372	13795
863.504	13879
863.636	13833
863.768	13906
863.9	13906
864.032	13750
864.164	13822
864.296	13887
864.428	13967
864.559	14001
864.691	14020
864.823	13932
864.954	13932
865.086	13875
865.217	13913
865.349	13772
865.48	13909
865.612	13871
865.743	14039
865.875	13978
866.006	13814
866.137	13852
866.269	13894
866.4	13795
866.531	13852
866.662	13830
866.793	13826
866.924	13879
867.055	13826
867.186	13917
867.317	13818
867.448	13708
867.579	13734
867.71	13833
867.841	13841
867.972	13845
868.103	13799
868.233	13902
868.364	13849
868.495	13906
868.625	14096
868.756	14248
868.886	13986
869.017	14031
869.147	14199
869.278	14237
869.408	14183
869.539	13963
869.669	14195
869.799	14218
869.929	14252
870.06	14275
870.19	14503
870.32	14419
870.45	14457
870.58	14518
870.71	14644
870.84	14632
870.97	14503
871.1	14473
871.23	14571
871.36	14636
871.489	14625
871.619	14739
871.749	14777
871.879	14743
872.008	14807
872.138	14758
872.267	14693
872.397	14549
872.526	14537
872.656	14530
872.785	14629
872.915	14754
873.044	14838
873.173	14754
873.303	14845
873.432	14762
873.561	14918
873.69	14739
873.819	14750
873.948	14834
874.077	14765
874.206	14693
874.335	14785
874.464	14895
874.593	15108
874.722	15013
874.851	15138
874.979	15135
875.108	15199
875.237	15119
875.365	14975
875.494	14979
875.623	15222
875.751	14990
875.88	15218
876.008	15264
876.136	15233
876.265	15462
876.393	15720
876.521	15599
876.65	15644
876.778	15561
876.906	15542
877.034	15485
877.162	15534
877.29	15389
877.418	15458
877.546	15485
877.674	15454
877.802	15538
877.93	15526
878.058	15412
878.185	15313
878.313	15408
878.441	15500
878.568	15336
878.696	15496
878.824	15576
878.951	15526
879.079	15686
879.206	15816
879.333	15728
879.461	15473
879.588	15618
879.715	15663
879.842	15778
879.97	15557
880.097	15450
880.224	15393
880.351	15389
880.478	15325
880.605	15367
880.732	15348
880.859	15542
880.986	15291
881.112	15359
881.239	15306
881.366	15131
881.493	15127
881.619	14956
881.746	15024
881.872	15135
881.999	14960
882.125	14910
882.252	15131
882.378	15001
882.505	15093
882.631	14994
882.757	14792
882.883	14937
883.01	14834
883.136	14883
883.262	14731
883.388	14621
883.514	14830
883.64	14864
883.766	14838
883.892	14613
884.018	14648
884.143	14811
884.269	14960
884.395	14518
884.52	14590
884.646	14541
884.772	14473
884.897	14434
885.023	14556
885.148	14625
885.274	14667
885.399	14594
885.524	14514
885.65	14507
885.775	14617
885.9	14526
886.025	14644
886.15	14552
886.275	14526
886.4	14427
886.525	14457
886.65	14400
886.775	14461
886.9	14617
887.025	14773
887.149	14632
887.274	14309
887.399	14351
887.523	14347
887.648	14332
887.773	14263
887.897	14454
888.021	14347
888.146	14339
888.27	14454
888.395	14438
888.519	14473
888.643	14454
888.767	14454
888.891	14286
889.015	14130
889.139	14290
889.263	14191
889.387	14343
889.511	14396
889.635	14415
889.759	14187
889.883	14218
890.006	14267
890.13	14389
890.254	14229
890.377	14221
890.501	14119
890.624	13982
890.748	14107
890.871	13951
890.995	13917
891.118	13826
891.241	13856
891.364	14035
891.488	14077
891.611	13909
891.734	13894
891.857	14039
891.98	13963
892.103	14024
892.226	13932
892.349	13940
892.471	13830
892.594	13989
892.717	13921
892.839	13845
892.962	13925
893.085	13955
893.207	13868
893.33	13784
893.452	13868
893.575	14031
893.697	13936
893.819	14130
893.941	14157
894.064	14058
894.186	13856
894.308	13849
894.43	14111
894.552	14092
894.674	14035
894.796	13936
894.918	14050
895.04	13970
895.161	14039
895.283	14039
895.405	13921
895.526	13963
895.648	14073
895.769	14027
895.891	13989
896.012	14172
896.134	14096
896.255	14058
896.376	14069
896.498	14214
896.619	14275
896.74	14103
896.861	14161
896.982	14465
897.103	14560
897.224	14377
897.345	14423
897.466	14305
897.587	14313
897.708	14526
897.828	14415
897.949	14275
898.07	14347
898.19	14393
898.311	14465
898.431	14366
898.552	14400
898.672	14530
898.792	14575
898.913	14434
899.033	14377
899.153	14351
899.273	14324
899.393	14271
899.513	14317
899.633	14301
899.753	14347
899.873	14263
899.993	14336
900.113	14336
900.232	14313
900.352	14393
900.472	14225
900.591	14161
900.711	14225
900.83	14218
900.95	14294
901.069	14313
901.189	14077
901.308	13906
901.427	13894
901.546	13887
901.665	13852
901.784	13841
901.904	13765
902.023	13727
902.141	13396
902.26	13407
902.379	13510
902.498	13369
902.617	13331
902.735	13464
902.854	13400
902.973	13354
903.091	13194
903.21	13164
903.328	13137
903.446	13099
903.565	12989
903.683	13000
903.801	12837
903.919	12973
904.038	12989
904.156	12791
904.274	12924
904.392	12848
904.51	12844
904.627	12909
904.745	12886
904.863	12840
904.981	12700
905.098	12525
905.216	12528
905.334	12525
905.451	12536
905.569	12483
905.686	12506
905.803	12532
905.921	12418
906.038	12429
906.155	12403
906.272	12304
906.389	12251
906.506	12110
906.623	12136
906.74	12144
906.857	11999
906.974	12041
907.091	12197
907.208	12243
907.324	12064
907.441	12110
907.557	11779
907.674	11813
907.79	11817
907.907	11809
908.023	11882
908.139	11901
908.256	11836
908.372	11802
908.488	11794
908.604	11657
908.72	11535
908.836	11688
908.952	11566
909.068	11630
909.184	11798
909.3	11737
909.415	11718
909.531	11676
909.647	11440
909.762	11406
909.878	11356
909.993	11448
910.108	11417
910.224	11341
910.339	11421
910.454	11280
910.57	11265
910.685	11242
910.8	11414
910.915	11425
911.03	11155
911.145	11075
911.259	11090
911.374	11105
911.489	11067
911.604	11060
911.718	10790
911.833	10892
911.947	10759
912.062	10664
912.176	10911
912.291	10812
912.405	10847
912.519	11098
912.633	11018
912.748	10942
912.862	10831
912.976	10778
913.09	10649
913.204	10725
913.318	10691
913.431	10778
913.545	10736
913.659	10862
913.772	10831
913.886	10679
914	10592
914.113	10733
914.226	10725
914.34	10729
914.453	10497
914.566	10710
914.68	10649
914.793	10554
914.906	10360
915.019	10272
915.132	10318
915.245	10276
915.358	10382
915.47	10314
915.583	10466
915.696	10386
915.809	10519
915.921	10497
916.034	10318
916.146	10249
916.259	10280
916.371	10428
916.483	10363
916.595	10276
916.708	10249
916.82	10379
916.932	10287
917.044	10322
917.156	10295
917.268	10154
917.38	10181
917.491	10249
917.603	10257
917.715	10299
917.826	10299
917.938	10150
918.049	10158
918.161	10177
918.272	10398
918.384	10333
918.495	10211
918.606	10120
918.717	10021
918.828	10082
918.939	10135
919.05	9956
919.161	10067
919.272	9941
919.383	9884
919.494	10082
919.604	10284
919.715	10128
919.826	10040
919.936	10086
920.047	10207
920.157	10139
920.267	10356
920.378	10173
920.488	10147
920.598	10280
920.708	10443
920.818	10322
920.928	10318
921.038	10497
921.148	10470
921.258	10135
921.368	10055
921.477	10013
921.587	9998
921.697	9873
921.806	9983
921.916	9922
922.025	9774
922.134	9781
922.244	9652
922.353	9827
922.462	9564
922.571	9553
922.68	9420
922.789	9428
922.898	9355
923.007	9359
923.116	9477
923.224	9420
923.333	9393
923.442	9302
923.55	9321
923.659	9393
923.767	9412
923.876	9245
923.984	9420
924.092	9218
924.201	9321
924.309	9226
924.417	9287
924.525	9173
924.633	9245
924.741	9968
924.849	9051
924.956	9211
925.064	9070
925.172	8963
925.279	9039
925.387	9070
925.494	9123
925.602	9199
925.709	9112
925.816	9104
925.924	9097
926.031	9150
926.138	9112
926.245	9085
926.352	8982
926.459	9169
926.566	9173
926.673	9070
926.779	8929
926.886	8914
926.993	8902
927.099	8804
927.206	8792
927.312	8792
927.419	8811
927.525	8701
927.631	8815
927.737	8743
927.843	8651
927.95	8587
928.056	8655
928.162	8727
928.267	8697
928.373	9275
928.479	8785
928.585	8564
928.69	8655
928.796	8659
928.901	8640
929.007	8442
929.112	8617
929.218	8568
929.323	8438
929.428	8549
929.533	8575
929.638	8404
929.743	8442
929.848	8488
929.953	8476
930.058	8461
930.163	8263
930.267	8298
930.372	8434
930.477	8225
930.581	8446
930.685	8366
930.79	8195
930.894	8225
930.998	8199
931.103	8393
931.207	8005
931.311	7978
931.415	7951
931.519	7715
931.623	7689
