Data from test_V78500241_1478.txt Node
Date: Fri Mar 25 14:44:00 CST 2022
User: usil
Spectrometer: V785-0024
Trigger mode: 0
Integration Time (sec): 4.000000E-1
Scans to average: 1
Nonlinearity correction enabled: false
Boxcar width: 0
Storing dark spectrum: false
XAxis mode: Wavelengths
Number of Pixels in Spectrum: 1024
>>>>>Begin Spectral Data<<<<<
801.071	22500
801.214	22356
801.356	22124
801.499	22070
801.641	21789
801.783	21789
801.926	21850
802.068	21732
802.211	21652
802.353	21641
802.496	21317
802.638	21329
802.78	21123
802.923	21138
803.065	21009
803.208	21017
803.35	21001
803.492	21252
803.635	21298
803.777	21222
803.919	21173
804.061	21458
804.204	21165
804.346	21009
804.488	21024
804.63	21077
804.773	20982
804.915	20998
805.057	21104
805.199	21081
805.341	21157
805.483	21112
805.626	21146
805.768	20921
805.91	21058
806.052	21017
806.194	20967
806.336	21096
806.478	20986
806.62	20994
806.762	21081
806.904	21195
807.046	21500
807.188	21367
807.33	21568
807.472	21458
807.614	21329
807.756	21386
807.898	21245
808.04	21226
808.182	21233
808.324	21272
808.465	21336
808.607	21591
808.749	21644
808.891	21690
809.033	21838
809.174	21739
809.316	21542
809.458	21572
809.6	21473
809.741	21500
809.883	21553
810.025	21618
810.166	21580
810.308	21610
810.45	21595
810.591	21481
810.733	21359
810.875	21374
811.016	21195
811.158	21085
811.299	21275
811.441	21386
811.582	21382
811.724	21169
811.865	21237
812.007	21275
812.148	21226
812.29	21302
812.431	21481
812.573	21553
812.714	21595
812.855	21701
812.997	21713
813.138	22067
813.279	21774
813.421	21755
813.562	21629
813.703	21428
813.845	21397
813.986	21222
814.127	20941
814.268	20921
814.41	20807
814.551	20773
814.692	20864
814.833	20731
814.974	20693
815.115	20701
815.256	20636
815.397	20667
815.539	20613
815.68	20564
815.821	20465
815.962	20511
816.103	20408
816.244	20252
816.385	20343
816.526	20180
816.666	20008
816.807	19894
816.948	20081
817.089	20012
817.23	19997
817.371	19856
817.512	19833
817.653	19788
817.793	19909
817.934	19951
818.075	19947
818.216	19849
818.356	19852
818.497	19696
818.638	19544
818.778	19681
818.919	19712
819.06	19731
819.2	19849
819.341	19822
819.481	19860
819.622	19925
819.762	20126
819.903	20088
820.043	19989
820.184	19879
820.324	19944
820.465	19963
820.605	19982
820.746	19890
820.886	19860
821.026	19871
821.167	19776
821.307	19898
821.447	19791
821.588	19757
821.728	19597
821.868	19335
822.008	19183
822.149	19285
822.289	19293
822.429	19023
822.569	18890
822.709	18932
822.849	18753
822.99	18833
823.13	18772
823.27	18700
823.41	18627
823.55	18547
823.69	18639
823.83	18616
823.97	18498
824.11	18384
824.25	18353
824.389	18418
824.529	18456
824.669	18330
824.809	18437
824.949	18372
825.089	18429
825.228	18403
825.368	18289
825.508	18232
825.648	18258
825.787	18251
825.927	18129
826.067	18171
826.206	18155
826.346	18178
826.485	18152
826.625	18121
826.765	18300
826.904	18159
827.044	17973
827.183	17901
827.323	17832
827.462	17942
827.601	17855
827.741	17897
827.88	17798
828.02	17767
828.159	17828
828.298	17874
828.437	17946
828.577	17676
828.716	18041
828.855	17832
828.994	17619
829.134	17653
829.273	17649
829.412	17710
829.551	17532
829.69	17543
829.829	17611
829.968	17668
830.107	17592
830.246	17687
830.385	17543
830.524	17547
830.663	17516
830.802	17318
830.941	17212
831.08	17261
831.219	17185
831.357	17284
831.496	17463
831.635	17189
831.774	17208
831.913	17124
832.051	17060
832.19	17086
832.329	17064
832.467	16915
832.606	16816
832.744	16831
832.883	16831
833.022	16862
833.16	16847
833.299	16915
833.437	16976
833.576	16999
833.714	16889
833.852	17018
833.991	17022
834.129	17037
834.267	17147
834.406	16873
834.544	16965
834.682	17022
834.821	16946
834.959	17197
835.097	16938
835.235	17045
835.373	16968
835.511	17006
835.65	16881
835.788	16812
835.926	16759
836.064	16668
836.202	16599
836.34	16881
836.478	16839
836.615	16801
836.753	16862
836.891	16953
837.029	16824
837.167	16816
837.305	16854
837.443	16774
837.58	16717
837.718	16805
837.856	16771
837.993	16694
838.131	16752
838.269	16596
838.406	16516
838.544	16577
838.681	16405
838.819	16428
838.956	16314
839.094	16249
839.231	16341
839.369	16531
839.506	16687
839.643	16500
839.781	16242
839.918	16291
840.055	16276
840.193	16303
840.33	16253
840.467	16299
840.604	16295
840.742	16428
840.879	16238
841.016	16211
841.153	16158
841.29	16470
841.427	16280
841.564	16265
841.701	16318
841.838	16143
841.975	16154
842.112	16196
842.249	16040
842.385	15960
842.522	16147
842.659	16071
842.796	16036
842.933	16105
843.069	16013
843.206	16002
843.343	16143
843.479	16044
843.616	16063
843.752	15854
843.889	15808
844.025	16021
844.162	15785
844.298	15895
844.435	15869
844.571	15785
844.708	15903
844.844	15911
844.98	15987
845.117	15941
845.253	15827
845.389	15778
845.525	15789
845.661	15895
845.798	15892
845.934	15915
846.07	15941
846.206	15873
846.342	16067
846.478	15880
846.614	15625
846.75	15389
846.886	15367
847.022	15507
847.158	15306
847.294	15359
847.429	15416
847.565	15336
847.701	15580
847.837	15214
847.972	15131
848.108	15233
848.244	15245
848.379	14982
848.515	15009
848.65	15032
848.786	14925
848.921	15039
849.057	15047
849.192	15112
849.328	15005
849.463	15043
849.598	15005
849.734	14933
849.869	14906
850.004	14735
850.14	14773
850.275	14727
850.41	14804
850.545	14727
850.68	14819
850.815	14743
850.95	14800
851.085	14872
851.22	14906
851.355	14769
851.49	14735
851.625	14731
851.76	14606
851.895	14587
852.03	14495
852.165	14648
852.299	14708
852.434	14895
852.569	14796
852.703	14686
852.838	14811
852.973	14941
853.107	14785
853.242	14674
853.376	14583
853.511	14415
853.645	14499
853.78	14762
853.914	14640
854.048	14629
854.183	14484
854.317	14610
854.451	14826
854.585	14640
854.72	14689
854.854	14674
854.988	14469
855.122	14564
855.256	14434
855.39	14556
855.524	14750
855.658	14705
855.792	14610
855.926	14583
856.06	14606
856.194	14830
856.327	14663
856.461	14492
856.595	14556
856.729	14621
856.862	14663
856.996	14678
857.13	14663
857.263	14678
857.397	14727
857.53	14636
857.664	14727
857.797	14663
857.931	14651
858.064	14579
858.197	14693
858.331	14613
858.464	14590
858.597	14469
858.731	14571
858.864	14674
858.997	14621
859.13	14568
859.263	14644
859.396	14625
859.529	14514
859.662	14602
859.795	14590
859.928	14594
860.061	14727
860.194	14716
860.327	14598
860.46	14606
860.592	14678
860.725	14743
860.858	14686
860.99	14579
861.123	14545
861.256	14629
861.388	14594
861.521	15359
861.653	14446
861.786	14526
861.918	14457
862.05	14389
862.183	14511
862.315	14587
862.447	14693
862.58	14590
862.712	14381
862.844	14305
862.976	14454
863.108	14404
863.24	14895
863.372	14343
863.504	14374
863.636	14412
863.768	14408
863.9	14469
864.032	14294
864.164	14347
864.296	14549
864.428	14541
864.559	14469
864.691	14465
864.823	14461
864.954	14434
865.086	14366
865.217	14347
865.349	14233
865.48	14385
865.612	14374
865.743	14522
865.875	14473
866.006	14347
866.137	14282
866.269	14450
866.4	14343
866.531	14271
866.662	14244
866.793	14214
866.924	14336
867.055	14412
867.186	14267
867.317	14377
867.448	14161
867.579	14351
867.71	14317
867.841	14286
867.972	14423
868.103	14309
868.233	14400
868.364	14362
868.495	14511
868.625	14610
868.756	14655
868.886	14537
869.017	14533
869.147	14705
869.278	14598
869.408	14610
869.539	14549
869.669	14773
869.799	14667
869.929	14705
870.06	14762
870.19	14880
870.32	14929
870.45	14906
870.58	14975
870.71	15047
870.84	15138
870.97	14990
871.1	14990
871.23	15192
871.36	15230
871.489	15127
871.619	15169
871.749	15241
871.879	15272
872.008	15268
872.138	15272
872.267	15108
872.397	15077
872.526	15039
872.656	15036
872.785	15028
872.915	15169
873.044	15260
873.173	15165
873.303	15313
873.432	15260
873.561	15268
873.69	15249
873.819	15310
873.948	15325
874.077	15302
874.206	15192
874.335	15252
874.464	15504
874.593	15485
874.722	15488
874.851	15515
874.979	15564
875.108	15610
875.237	15610
875.365	15538
875.494	15568
875.623	15561
875.751	15538
875.88	15564
876.008	15713
876.136	15793
876.265	15949
876.393	16025
876.521	16029
876.65	16090
876.778	16055
876.906	15926
877.034	16032
877.162	15880
877.29	15880
877.418	15899
877.546	16021
877.674	15968
877.802	15934
877.93	15991
878.058	15895
878.185	15953
878.313	15972
878.441	15956
878.568	15823
878.696	16044
878.824	15979
878.951	16074
879.079	16192
879.206	16462
879.333	16185
879.461	16139
879.588	16154
879.715	16242
879.842	16382
879.97	16211
880.097	15945
880.224	15888
880.351	15949
880.478	15888
880.605	15861
880.732	15857
880.859	16124
880.986	15895
881.112	15903
881.239	15827
881.366	15561
881.493	15561
881.619	15538
881.746	15526
881.872	15469
881.999	15447
882.125	15545
882.252	15553
882.378	15526
882.505	15656
882.631	15526
882.757	15351
882.883	15329
883.01	15355
883.136	15310
883.262	15192
883.388	15241
883.514	15306
883.64	15443
883.766	15329
883.892	15131
884.018	15154
884.143	15317
884.269	15424
884.395	15058
884.52	14956
884.646	14994
884.772	14941
884.897	14899
885.023	15020
885.148	15104
885.274	15142
885.399	15150
885.524	14979
885.65	15062
885.775	15066
885.9	15043
886.025	15112
886.15	15119
886.275	14914
886.4	14906
886.525	15036
886.65	14899
886.775	14998
886.9	15119
887.025	15142
887.149	14990
887.274	14804
887.399	14781
887.523	14880
887.648	14883
887.773	14823
887.897	14914
888.021	14891
888.146	14731
888.27	14891
888.395	14914
888.519	14906
888.643	14906
888.767	14887
888.891	14663
889.015	14606
889.139	14727
889.263	14682
889.387	14807
889.511	14956
889.635	14842
889.759	14674
889.883	14670
890.006	14655
890.13	14750
890.254	14746
890.377	14659
890.501	14514
890.624	14389
890.748	14598
890.871	14442
890.995	14389
891.118	14267
891.241	14431
891.364	14351
891.488	14457
891.611	14290
891.734	14377
891.857	14431
891.98	14374
892.103	14396
892.226	14412
892.349	14347
892.471	14271
892.594	14336
892.717	14328
892.839	14343
892.962	14370
893.085	14423
893.207	14412
893.33	14290
893.452	14343
893.575	14328
893.697	14271
893.819	14594
893.941	14587
894.064	14480
894.186	14393
894.308	14355
894.43	14484
894.552	14552
894.674	14579
894.796	14202
894.918	14442
895.04	14423
895.161	14446
895.283	14507
895.405	14450
895.526	14415
895.648	14461
895.769	14427
895.891	14461
896.012	14632
896.134	14461
896.255	14568
896.376	14530
896.498	14575
896.619	14564
896.74	14431
896.861	14511
896.982	14864
897.103	14952
897.224	14826
897.345	14678
897.466	14788
897.587	14838
897.708	14868
897.828	14914
897.949	14788
898.07	14655
898.19	14796
898.311	14880
898.431	14883
898.552	14788
898.672	14994
898.792	14948
898.913	14952
899.033	14826
899.153	14746
899.273	14701
899.393	14670
899.513	14716
899.633	14667
899.753	14819
899.873	14739
899.993	14750
900.113	14613
900.232	14693
900.352	14804
900.472	14651
900.591	14476
900.711	14667
900.83	14484
900.95	14621
901.069	14792
901.189	14541
901.308	14355
901.427	14168
901.546	14290
901.665	14237
901.784	14442
901.904	14115
902.023	14088
902.141	13826
902.26	13856
902.379	13837
902.498	13928
902.617	13765
902.735	13845
902.854	13742
902.973	13822
903.091	13586
903.21	13571
903.328	13514
903.446	13502
903.565	13411
903.683	13407
903.801	13289
903.919	13434
904.038	13354
904.156	13179
904.274	13247
904.392	13206
904.51	13145
904.627	13240
904.745	13206
904.863	13255
904.981	13019
905.098	12848
905.216	12932
905.334	12947
905.451	12867
905.569	12791
905.686	12993
905.803	12928
905.921	12684
906.038	12779
906.155	12764
906.272	12585
906.389	12654
906.506	12452
906.623	12517
906.74	12441
906.857	12380
906.974	12361
907.091	12608
907.208	12681
907.324	12399
907.441	12517
907.557	12235
907.674	12171
907.79	12121
907.907	12209
908.023	12243
908.139	12216
908.256	12262
908.372	12133
908.488	12083
908.604	11935
908.72	11897
908.836	11999
908.952	11969
909.068	11870
909.184	12003
909.3	11942
909.415	12060
909.531	12057
909.647	11805
909.762	11707
909.878	11737
909.993	11767
910.108	11786
910.224	11718
910.339	11764
910.454	11665
910.57	11653
910.685	11497
910.8	11805
910.915	11828
911.03	11592
911.145	11455
911.259	11467
911.374	11368
911.489	11391
911.604	11360
911.718	11208
911.833	11246
911.947	11170
912.062	11010
912.176	11170
912.291	11227
912.405	11242
912.519	11417
912.633	11448
912.748	11296
912.862	11258
912.976	11155
913.09	10919
913.204	11079
913.318	11003
913.431	11105
913.545	11143
913.659	11105
913.772	11018
913.886	10995
914	10927
914.113	11067
914.226	11113
914.34	10972
914.453	10911
914.566	11067
914.68	10873
914.793	10866
914.906	10771
915.019	10733
915.132	10618
915.245	10622
915.358	10687
915.47	10607
915.583	10710
915.696	10824
915.809	10839
915.921	10847
916.034	10668
916.146	10653
916.259	10618
916.371	10752
916.483	10675
916.595	10519
916.708	10637
916.82	10630
916.932	10615
917.044	10588
917.156	10656
917.268	10504
917.38	10500
917.491	10402
917.603	10497
917.715	10611
917.826	10599
917.938	10512
918.049	10348
918.161	10436
918.272	10588
918.384	10721
918.495	10573
918.606	10371
918.717	10284
918.828	10417
918.939	10432
919.05	10242
919.161	10363
919.272	10150
919.383	10257
919.494	10417
919.604	10603
919.715	10409
919.826	10348
919.936	10310
920.047	10462
920.157	10379
920.267	10542
920.378	10428
920.488	10432
920.598	10592
920.708	10691
920.818	10618
920.928	10603
921.038	10698
921.148	10702
921.258	10474
921.368	10299
921.477	10242
921.587	10253
921.697	10067
921.806	10287
921.916	10147
922.025	9994
922.134	9945
922.244	9857
922.353	10021
922.462	9816
922.571	9804
922.68	9747
922.789	9629
922.898	9625
923.007	9584
923.116	9660
923.224	9591
923.333	9705
923.442	9568
923.55	9580
923.659	9595
923.767	9633
923.876	9473
923.984	9580
924.092	9458
924.201	9561
924.309	9496
924.417	9538
924.525	9420
924.633	9428
924.741	10386
924.849	9264
924.956	9393
925.064	9253
925.172	9192
925.279	9283
925.387	9313
925.494	9275
925.602	9488
925.709	9363
925.816	9241
925.924	9264
926.031	9340
926.138	9253
926.245	9241
926.352	9237
926.459	9367
926.566	9462
926.673	9249
926.779	9138
926.886	9169
926.993	9089
927.099	8975
927.206	8906
927.312	9001
927.419	9100
927.525	9009
927.631	9070
927.737	8887
927.843	8902
927.95	8807
928.056	8864
928.162	8861
928.267	8960
928.373	9545
928.479	8956
928.585	8773
928.69	8910
928.796	8868
928.901	8826
929.007	8670
929.112	8769
929.218	8777
929.323	8716
929.428	8651
929.533	8883
929.638	8617
929.743	8568
929.848	8712
929.953	8724
930.058	8629
930.163	8408
930.267	8488
930.372	8571
930.477	8476
930.581	8727
930.685	8575
930.79	8473
930.894	8454
930.998	8385
931.103	8492
931.207	8256
931.311	8214
931.415	8100
931.519	7898
931.623	7833
