Data from test_V78500241_482.txt Node
Date: Fri Mar 25 14:37:04 CST 2022
User: usil
Spectrometer: V785-0024
Trigger mode: 0
Integration Time (sec): 4.000000E-1
Scans to average: 1
Nonlinearity correction enabled: false
Boxcar width: 0
Storing dark spectrum: false
XAxis mode: Wavelengths
Number of Pixels in Spectrum: 1024
>>>>>Begin Spectral Data<<<<<
801.071	26568
801.214	26438
801.356	26229
801.499	26164
801.641	26016
801.783	25970
801.926	25997
802.068	25860
802.211	25776
802.353	25765
802.496	25616
802.638	25544
802.78	25647
802.923	25479
803.065	25453
803.208	25381
803.35	25487
803.492	25552
803.635	25559
803.777	25548
803.919	25597
804.061	25906
804.204	25552
804.346	25537
804.488	25445
804.63	25320
804.773	25339
804.915	25430
805.057	25548
805.199	25449
805.341	25491
805.483	25578
805.626	25613
805.768	25407
805.91	25635
806.052	25499
806.194	25396
806.336	25708
806.478	25514
806.62	25483
806.762	25594
806.904	25742
807.046	26024
807.188	25776
807.33	25761
807.472	25898
807.614	25708
807.756	25830
807.898	25784
808.04	25605
808.182	25765
808.324	25655
808.465	25746
808.607	25959
808.749	26058
808.891	26039
809.033	26240
809.174	26145
809.316	26134
809.458	26077
809.6	25856
809.741	26130
809.883	26161
810.025	26176
810.166	26317
810.308	26081
810.45	26176
810.591	26020
810.733	25955
810.875	25849
811.016	25951
811.158	25727
811.299	25989
811.441	25860
811.582	25921
811.724	25788
811.865	25750
812.007	25639
812.148	25780
812.29	25852
812.431	25947
812.573	26020
812.714	26214
812.855	26278
812.997	26336
813.138	26560
813.279	26343
813.421	26256
813.562	26252
813.703	26164
813.845	25989
813.986	25597
814.127	25556
814.268	25354
814.41	25453
814.551	25320
814.692	25396
814.833	25339
814.974	25263
815.115	25358
815.256	25160
815.397	25270
815.539	25015
815.68	25164
815.821	25084
815.962	25061
816.103	24981
816.244	24989
816.385	24825
816.526	24776
816.666	24658
816.807	24471
816.948	24502
817.089	24616
817.23	24456
817.371	24471
817.512	24494
817.653	24448
817.793	24460
817.934	24433
818.075	24448
818.216	24422
818.356	24441
818.497	24319
818.638	24098
818.778	24190
818.919	24102
819.06	24292
819.2	24384
819.341	24323
819.481	24384
819.622	24547
819.762	24616
819.903	24566
820.043	24547
820.184	24563
820.324	24544
820.465	24521
820.605	24456
820.746	24441
820.886	24372
821.026	24433
821.167	24388
821.307	24422
821.447	24410
821.588	24235
821.728	24186
821.868	23996
822.008	23851
822.149	23741
822.289	23741
822.429	23596
822.569	23497
822.709	23429
822.849	23178
822.99	23220
823.13	23159
823.27	23227
823.41	23128
823.55	22961
823.69	22995
823.83	23071
823.97	22965
824.11	22949
824.25	22656
824.389	22729
824.529	22885
824.669	22885
824.809	22938
824.949	23003
825.089	22885
825.228	22877
825.368	22649
825.508	22592
825.648	22630
825.787	22653
825.927	22660
826.067	22679
826.206	22538
826.346	22599
826.485	22577
826.625	22615
826.765	22725
826.904	22645
827.044	22314
827.183	22322
827.323	22238
827.462	22306
827.601	22291
827.741	22249
827.88	22261
828.02	22166
828.159	22303
828.298	22329
828.437	22344
828.577	22131
828.716	22276
828.855	22226
828.994	21975
829.134	21918
829.273	21987
829.412	22010
829.551	22013
829.69	21991
829.829	21934
829.968	22112
830.107	22074
830.246	21846
830.385	21880
830.524	21838
830.663	21850
830.802	21576
830.941	21519
831.08	21610
831.219	21679
831.357	21644
831.496	21797
831.635	21454
831.774	21523
831.913	21355
832.051	21424
832.19	21382
832.329	21294
832.467	21222
832.606	21287
832.744	21161
832.883	21218
833.022	21176
833.16	21222
833.299	21283
833.437	21154
833.576	21173
833.714	21161
833.852	21207
833.991	21275
834.129	21188
834.267	21386
834.406	21294
834.544	21310
834.682	21211
834.821	21256
834.959	21317
835.097	21218
835.235	21176
835.373	21154
835.511	21207
835.65	21066
835.788	21074
835.926	20986
836.064	20921
836.202	20933
836.34	21119
836.478	21032
836.615	21043
836.753	21017
836.891	21123
837.029	21058
837.167	21051
837.305	20933
837.443	20941
837.58	20933
837.718	21047
837.856	20971
837.993	20838
838.131	20918
838.269	20788
838.406	20914
838.544	20754
838.681	20514
838.819	20644
838.956	20526
839.094	20362
839.231	20396
839.369	20499
839.506	20788
839.643	20575
839.781	20366
839.918	20278
840.055	20317
840.193	20218
840.33	20286
840.467	20267
840.604	20324
840.742	20488
840.879	20206
841.016	20324
841.153	20237
841.29	20385
841.427	20320
841.564	20332
841.701	20214
841.838	20172
841.975	20069
842.112	20183
842.249	20020
842.385	19993
842.522	20176
842.659	20058
842.796	19913
842.933	20142
843.069	19951
843.206	20005
843.343	20115
843.479	20062
843.616	20012
843.752	19841
843.889	19818
844.025	19883
844.162	19852
844.298	19970
844.435	19841
844.571	19818
844.708	19833
844.844	19989
844.98	19967
845.117	19951
845.253	19738
845.389	19738
845.525	19708
845.661	19715
845.798	19742
845.934	19807
846.07	19658
846.206	19765
846.342	19791
846.478	19582
846.614	19441
846.75	19270
846.886	19282
847.022	19362
847.158	19244
847.294	19297
847.429	19396
847.565	19282
847.701	19445
847.837	19099
847.972	18977
848.108	19069
848.244	19069
848.379	18897
848.515	18856
848.65	18848
848.786	18772
848.921	18719
849.057	18875
849.192	18878
849.328	18806
849.463	18772
849.598	18715
849.734	18795
849.869	18722
850.004	18639
850.14	18620
850.275	18585
850.41	18551
850.545	18483
850.68	18627
850.815	18578
850.95	18627
851.085	18757
851.22	18597
851.355	18551
851.49	18490
851.625	18555
851.76	18620
851.895	18410
852.03	18369
852.165	18429
852.299	18502
852.434	18593
852.569	18642
852.703	18445
852.838	18696
852.973	18574
853.107	18650
853.242	18433
853.376	18388
853.511	18338
853.645	18254
853.78	18445
853.914	18296
854.048	18327
854.183	18353
854.317	18418
854.451	18517
854.585	18334
854.72	18277
854.854	18464
854.988	18281
855.122	18395
855.256	18178
855.39	18300
855.524	18490
855.658	18338
855.792	18445
855.926	18365
856.06	18376
856.194	18361
856.327	18380
856.461	18300
856.595	18296
856.729	18304
856.862	18479
856.996	18365
857.13	18350
857.263	18464
857.397	18380
857.53	18266
857.664	18418
857.797	18452
857.931	18456
858.064	18464
858.197	18448
858.331	18361
858.464	18277
858.597	18152
858.731	18300
858.864	18209
858.997	18319
859.13	18262
859.263	18334
859.396	18376
859.529	18308
859.662	18258
859.795	18239
859.928	18395
860.061	18350
860.194	18509
860.327	18334
860.46	18258
860.592	18361
860.725	18395
860.858	18407
860.99	18304
861.123	18194
861.256	18277
861.388	18281
861.521	18928
861.653	18155
861.786	18098
861.918	18220
862.05	18197
862.183	18323
862.315	18410
862.447	18277
862.58	18281
862.712	18098
862.844	18019
862.976	18098
863.108	18030
863.24	18342
863.372	17973
863.504	18045
863.636	17973
863.768	18087
863.9	17992
864.032	17927
864.164	18007
864.296	18140
864.428	18110
864.559	18087
864.691	18098
864.823	18087
864.954	17999
865.086	17999
865.217	18003
865.349	17851
865.48	18011
865.612	18041
865.743	18015
865.875	17878
866.006	17935
866.137	17946
866.269	17809
866.4	18060
866.531	17809
866.662	17961
866.793	17878
866.924	17904
867.055	17984
867.186	17927
867.317	17889
867.448	17767
867.579	17817
867.71	17893
867.841	17821
867.972	17904
868.103	18003
868.233	17863
868.364	17946
868.495	17965
868.625	18167
868.756	18205
868.886	18041
869.017	18201
869.147	18148
869.278	18304
869.408	18083
869.539	18136
869.669	18220
869.799	18247
869.929	18178
870.06	18194
870.19	18422
870.32	18422
870.45	18452
870.58	18414
870.71	18612
870.84	18547
870.97	18494
871.1	18563
871.23	18646
871.36	18738
871.489	18585
871.619	18639
871.749	18684
871.879	18772
872.008	18897
872.138	18700
872.267	18692
872.397	18639
872.526	18540
872.656	18532
872.785	18559
872.915	18848
873.044	18833
873.173	18669
873.303	18882
873.432	18779
873.561	18909
873.69	18749
873.819	18745
873.948	18924
874.077	18776
874.206	18665
874.335	18711
874.464	18753
874.593	19042
874.722	18890
874.851	18989
874.979	19091
875.108	19042
875.237	18973
875.365	18954
875.494	18977
875.623	19019
875.751	19118
875.88	19168
876.008	19225
876.136	19232
876.265	19411
876.393	19472
876.521	19487
876.65	19502
876.778	19483
876.906	19400
877.034	19369
877.162	19460
877.29	19304
877.418	19422
877.546	19377
877.674	19403
877.802	19407
877.93	19388
878.058	19453
878.185	19396
878.313	19377
878.441	19377
878.568	19343
878.696	19434
878.824	19502
878.951	19449
879.079	19693
879.206	19704
879.333	19647
879.461	19544
879.588	19544
879.715	19651
879.842	19791
879.97	19548
880.097	19304
880.224	19308
880.351	19278
880.478	19304
880.605	19145
880.732	19274
880.859	19597
880.986	19194
881.112	19392
881.239	19194
881.366	19084
881.493	18913
881.619	18920
881.746	19008
881.872	18871
881.999	18886
882.125	18859
882.252	18783
882.378	18787
882.505	18924
882.631	18787
882.757	18608
882.883	18654
883.01	18791
883.136	18597
883.262	18517
883.388	18464
883.514	18798
883.64	18757
883.766	18589
883.892	18395
884.018	18589
884.143	18623
884.269	18589
884.395	18380
884.52	18369
884.646	18262
884.772	18235
884.897	18258
885.023	18357
885.148	18380
885.274	18544
885.399	18384
885.524	18384
885.65	18232
885.775	18315
885.9	18369
886.025	18483
886.15	18353
886.275	18372
886.4	18098
886.525	18209
886.65	18220
886.775	18350
886.9	18372
887.025	18441
887.149	18365
887.274	18129
887.399	18110
887.523	17965
887.648	17965
887.773	17961
887.897	18220
888.021	18178
888.146	18079
888.27	18277
888.395	18239
888.519	18053
888.643	18167
888.767	18060
888.891	17988
889.015	17969
889.139	17965
889.263	17813
889.387	17980
889.511	18034
889.635	17984
889.759	17870
889.883	17847
890.006	17988
890.13	17969
890.254	17813
890.377	17798
890.501	17775
890.624	17668
890.748	17741
890.871	17512
890.995	17478
891.118	17482
891.241	17493
891.364	17573
891.488	17634
891.611	17493
891.734	17520
891.857	17493
891.98	17539
892.103	17562
892.226	17547
892.349	17341
892.471	17398
892.594	17368
892.717	17524
892.839	17474
892.962	17478
893.085	17501
893.207	17452
893.33	17296
893.452	17398
893.575	17558
893.697	17440
893.819	17554
893.941	17604
894.064	17577
894.186	17440
894.308	17349
894.43	17471
894.552	17638
894.674	17672
894.796	17292
894.918	17398
895.04	17474
895.161	17482
895.283	17535
895.405	17372
895.526	17455
895.648	17414
895.769	17524
895.891	17528
896.012	17619
896.134	17585
896.255	17516
896.376	17501
896.498	17497
896.619	17577
896.74	17467
896.861	17490
896.982	17893
897.103	18125
897.224	17760
897.345	17798
897.466	17726
897.587	17775
897.708	18026
897.828	17878
897.949	17703
898.07	17638
898.19	17623
898.311	17843
898.431	17733
898.552	17802
898.672	17912
898.792	17843
898.913	17901
899.033	17627
899.153	17615
899.273	17402
899.393	17551
899.513	17585
899.633	17592
899.753	17505
899.873	17566
899.993	17707
900.113	17414
900.232	17596
900.352	17509
900.472	17429
900.591	17372
900.711	17368
900.83	17341
900.95	17429
901.069	17638
901.189	17280
901.308	17128
901.427	17029
901.546	17064
901.665	16934
901.784	17052
901.904	16953
902.023	16831
902.141	16675
902.26	16519
902.379	16653
902.498	16603
902.617	16474
902.735	16615
902.854	16500
902.973	16481
903.091	16287
903.21	16306
903.328	16185
903.446	16105
903.565	15979
903.683	16093
903.801	16036
903.919	16143
904.038	16029
904.156	15907
904.274	16002
904.392	15755
904.51	15876
904.627	15819
904.745	15797
904.863	15888
904.981	15637
905.098	15515
905.216	15496
905.334	15534
905.451	15507
905.569	15492
905.686	15534
905.803	15523
905.921	15359
906.038	15450
906.155	15397
906.272	15135
906.389	15173
906.506	15089
906.623	15017
906.74	15051
906.857	14880
906.974	14933
907.091	15142
907.208	15233
907.324	15119
907.441	14921
907.557	14781
907.674	14765
907.79	14781
907.907	14640
908.023	14807
908.139	14686
908.256	14804
908.372	14720
908.488	14613
908.604	14587
908.72	14396
908.836	14530
908.952	14446
909.068	14492
909.184	14556
909.3	14461
909.415	14450
909.531	14522
909.647	14195
909.762	14225
909.878	14096
909.993	14176
910.108	14142
910.224	14176
910.339	14134
910.454	14096
910.57	14005
910.685	13982
910.8	14305
910.915	14153
911.03	13989
911.145	13932
911.259	13807
911.374	13830
911.489	13693
911.604	13761
911.718	13613
911.833	13590
911.947	13460
912.062	13369
912.176	13525
912.291	13624
912.405	13491
912.519	13719
912.633	13666
912.748	13556
912.862	13533
912.976	13449
913.09	13365
913.204	13419
913.318	13396
913.431	13480
913.545	13506
913.659	13434
913.772	13259
913.886	13122
914	13263
914.113	13407
914.226	13331
914.34	13304
914.453	13118
914.566	13339
914.68	13133
914.793	13149
914.906	12993
915.019	12932
915.132	12859
915.245	12875
915.358	12977
915.47	12970
915.583	12993
915.696	13012
915.809	13133
915.921	13046
916.034	12894
916.146	12840
916.259	12806
916.371	12825
916.483	12943
916.595	12863
916.708	12798
916.82	12772
916.932	12795
917.044	12795
917.156	12768
917.268	12646
917.38	12681
917.491	12623
917.603	12738
917.715	12783
917.826	12890
917.938	12627
918.049	12513
918.161	12620
918.272	12760
918.384	12779
918.495	12658
918.606	12437
918.717	12327
918.828	12502
918.939	12467
919.05	12429
919.161	12448
919.272	12178
919.383	12380
919.494	12563
919.604	12673
919.715	12376
919.826	12338
919.936	12342
920.047	12509
920.157	12422
920.267	12604
920.378	12464
920.488	12380
920.598	12597
920.708	12734
920.818	12631
920.928	12654
921.038	12677
921.148	12749
921.258	12418
921.368	12281
921.477	12182
921.587	12205
921.697	12057
921.806	12239
921.916	12041
922.025	11828
922.134	11893
922.244	11821
922.353	11843
922.462	11695
922.571	11668
922.68	11524
922.789	11490
922.898	11608
923.007	11501
923.116	11547
923.224	11562
923.333	11501
923.442	11292
923.55	11417
923.659	11417
923.767	11444
923.876	11265
923.984	11444
924.092	11296
924.201	11315
924.309	11334
924.417	11322
924.525	11292
924.633	11280
924.741	12125
924.849	11147
924.956	11292
925.064	11109
925.172	10957
925.279	10965
925.387	11025
925.494	11090
925.602	11208
925.709	11117
925.816	11003
925.924	11090
926.031	11094
926.138	11025
926.245	11071
926.352	10911
926.459	11014
926.566	11159
926.673	10946
926.779	10862
926.886	10793
926.993	10729
927.099	10710
927.206	10694
927.312	10660
927.419	10771
927.525	10626
927.631	10733
927.737	10645
927.843	10660
927.95	10413
928.056	10554
928.162	10607
928.267	10565
928.373	11102
928.479	10611
928.585	10390
928.69	10538
928.796	10542
928.901	10367
929.007	10287
929.112	10466
929.218	10394
929.323	10291
929.428	10314
929.533	10474
929.638	10158
929.743	10329
929.848	10348
929.953	10337
930.058	10074
930.163	10040
930.267	10063
930.372	10238
930.477	9941
930.581	10158
930.685	10036
930.79	9941
930.894	9922
930.998	9838
931.103	10036
931.207	9698
931.311	9652
931.415	9526
931.519	9336
931.623	9283
