Data from test_V78500241_2116.txt Node
Date: Fri Mar 25 14:48:26 CST 2022
User: usil
Spectrometer: V785-0024
Trigger mode: 0
Integration Time (sec): 4.000000E-1
Scans to average: 1
Nonlinearity correction enabled: false
Boxcar width: 0
Storing dark spectrum: false
XAxis mode: Wavelengths
Number of Pixels in Spectrum: 1024
>>>>>Begin Spectral Data<<<<<
801.071	22181
801.214	21945
801.356	21743
801.499	21648
801.641	21610
801.783	21519
801.926	21523
802.068	21473
802.211	21416
802.353	21245
802.496	21055
802.638	20929
802.78	21055
802.923	20887
803.065	20785
803.208	20762
803.35	20712
803.492	20883
803.635	20933
803.777	20902
803.919	20967
804.061	21081
804.204	20788
804.346	20750
804.488	20727
804.63	20952
804.773	20815
804.915	20777
805.057	20845
805.199	20655
805.341	20849
805.483	20960
805.626	20830
805.768	20765
805.91	20921
806.052	20845
806.194	20705
806.336	20982
806.478	20781
806.62	20785
806.762	20902
806.904	21146
807.046	21203
807.188	21157
807.33	21024
807.472	21116
807.614	20937
807.756	20975
807.898	20925
808.04	20834
808.182	20815
808.324	20941
808.465	20948
808.607	20899
808.749	21199
808.891	21317
809.033	21268
809.174	21165
809.316	21272
809.458	21230
809.6	21157
809.741	21268
809.883	21169
810.025	21378
810.166	21348
810.308	21268
810.45	21237
810.591	21214
810.733	21051
810.875	21039
811.016	20762
811.158	20830
811.299	20960
811.441	21112
811.582	21001
811.724	20845
811.865	20899
812.007	20853
812.148	20971
812.29	20887
812.431	21039
812.573	21233
812.714	21355
812.855	21374
812.997	21500
813.138	21717
813.279	21523
813.421	21466
813.562	21336
813.703	21287
813.845	20990
813.986	20830
814.127	20651
814.268	20560
814.41	20503
814.551	20484
814.692	20526
814.833	20400
814.974	20393
815.115	20450
815.256	20294
815.397	20396
815.539	20377
815.68	20172
815.821	20073
815.962	20290
816.103	20107
816.244	20043
816.385	19940
816.526	19982
816.666	19807
816.807	19651
816.948	19712
817.089	19651
817.23	19734
817.371	19746
817.512	19518
817.653	19635
817.793	19537
817.934	19643
818.075	19715
818.216	19540
818.356	19506
818.497	19422
818.638	19270
818.778	19411
818.919	19339
819.06	19339
819.2	19335
819.341	19514
819.481	19495
819.622	19559
819.762	19761
819.903	19712
820.043	19620
820.184	19666
820.324	19590
820.465	19605
820.605	19605
820.746	19571
820.886	19403
821.026	19445
821.167	19567
821.307	19563
821.447	19571
821.588	19472
821.728	19335
821.868	19217
822.008	19057
822.149	18985
822.289	18916
822.429	18787
822.569	18597
822.709	18658
822.849	18445
822.99	18506
823.13	18395
823.27	18429
823.41	18319
823.55	18262
823.69	18357
823.83	18338
823.97	18213
824.11	18019
824.25	18091
824.389	18060
824.529	18152
824.669	18117
824.809	18243
824.949	18129
825.089	18144
825.228	18015
825.368	17912
825.508	17965
825.648	17920
825.787	17946
825.927	17973
826.067	17741
826.206	17764
826.346	17866
826.485	17889
826.625	17889
826.765	18026
826.904	17901
827.044	17657
827.183	17653
827.323	17444
827.462	17566
827.601	17551
827.741	17558
827.88	17562
828.02	17463
828.159	17440
828.298	17535
828.437	17596
828.577	17391
828.716	17661
828.855	17414
828.994	17334
829.134	17288
829.273	17337
829.412	17254
829.551	17227
829.69	17296
829.829	17311
829.968	17345
830.107	17296
830.246	17387
830.385	17296
830.524	17193
830.663	17045
830.802	16976
830.941	16915
831.08	16915
831.219	17083
831.357	16991
831.496	17075
831.635	16873
831.774	16858
831.913	16713
832.051	16733
832.19	16683
832.329	16691
832.467	16645
832.606	16481
832.744	16516
832.883	16535
833.022	16584
833.16	16603
833.299	16698
833.437	16596
833.576	16717
833.714	16546
833.852	16656
833.991	16683
834.129	16641
834.267	16599
834.406	16550
834.544	16706
834.682	16683
834.821	16561
834.959	16771
835.097	16516
835.235	16679
835.373	16721
835.511	16634
835.65	16542
835.788	16470
835.926	16428
836.064	16382
836.202	16386
836.34	16626
836.478	16645
836.615	16577
836.753	16565
836.891	16596
837.029	16436
837.167	16527
837.305	16516
837.443	16367
837.58	16440
837.718	16455
837.856	16523
837.993	16325
838.131	16417
838.269	16367
838.406	16287
838.544	16344
838.681	16048
838.819	16135
838.956	15918
839.094	15937
839.231	15899
839.369	16112
839.506	16329
839.643	16238
839.781	15987
839.918	15975
840.055	15960
840.193	15907
840.33	15892
840.467	15941
840.604	15994
840.742	16173
840.879	15789
841.016	15838
841.153	15789
841.29	16029
841.427	15888
841.564	16021
841.701	15972
841.838	15949
841.975	15869
842.112	15911
842.249	15827
842.385	15652
842.522	15888
842.659	15854
842.796	15705
842.933	15861
843.069	15720
843.206	15644
843.343	15850
843.479	15766
843.616	15827
843.752	15584
843.889	15481
844.025	15698
844.162	15504
844.298	15641
844.435	15610
844.571	15507
844.708	15523
844.844	15629
844.98	15762
845.117	15584
845.253	15492
845.389	15370
845.525	15408
845.661	15447
845.798	15268
845.934	15374
846.07	15268
846.206	15355
846.342	15408
846.478	15340
846.614	15154
846.75	15108
846.886	15135
847.022	15230
847.158	15116
847.294	15211
847.429	15085
847.565	15097
847.701	15233
847.837	14853
847.972	14815
848.108	14925
848.244	14880
848.379	14792
848.515	14640
848.65	14674
848.786	14651
848.921	14746
849.057	14735
849.192	14807
849.328	14727
849.463	14731
849.598	14636
849.734	14621
849.869	14530
850.004	14404
850.14	14518
850.275	14545
850.41	14415
850.545	14438
850.68	14469
850.815	14374
850.95	14492
851.085	14560
851.22	14492
851.355	14556
851.49	14377
851.625	14511
851.76	14415
851.895	14343
852.03	14256
852.165	14450
852.299	14476
852.434	14507
852.569	14488
852.703	14461
852.838	14598
852.973	14590
853.107	14518
853.242	14499
853.376	14332
853.511	14248
853.645	14278
853.78	14381
853.914	14343
854.048	14339
854.183	14221
854.317	14282
854.451	14480
854.585	14237
854.72	14324
854.854	14442
854.988	14294
855.122	14282
855.256	14164
855.39	14317
855.524	14450
855.658	14393
855.792	14206
855.926	14233
856.06	14419
856.194	14415
856.327	14339
856.461	14286
856.595	14244
856.729	14294
856.862	14370
856.996	14244
857.13	14347
857.263	14446
857.397	14415
857.53	14278
857.664	14377
857.797	14408
857.931	14442
858.064	14305
858.197	14332
858.331	14347
858.464	14347
858.597	14221
858.731	14317
858.864	14267
858.997	14317
859.13	14374
859.263	14328
859.396	14381
859.529	14195
859.662	14290
859.795	14305
859.928	14377
860.061	14461
860.194	14427
860.327	14336
860.46	14290
860.592	14423
860.725	14404
860.858	14499
860.99	14298
861.123	14275
861.256	14195
861.388	14263
861.521	14899
861.653	14172
861.786	14202
861.918	14202
862.05	14252
862.183	14256
862.315	14336
862.447	14259
862.58	14252
862.712	14054
862.844	14062
862.976	14157
863.108	14153
863.24	14503
863.372	14081
863.504	14119
863.636	14111
863.768	14252
863.9	14161
864.032	14001
864.164	14069
864.296	14126
864.428	14130
864.559	14256
864.691	14142
864.823	14164
864.954	14142
865.086	14142
865.217	14138
865.349	14058
865.48	14069
865.612	14039
865.743	14183
865.875	14084
866.006	14001
866.137	14050
866.269	14077
866.4	13982
866.531	14088
866.662	13955
866.793	14050
866.924	13986
867.055	14024
867.186	14073
867.317	14062
867.448	13967
867.579	14088
867.71	14005
867.841	13940
867.972	14046
868.103	13970
868.233	14157
868.364	14100
868.495	14157
868.625	14339
868.756	14389
868.886	14195
869.017	14324
869.147	14446
869.278	14457
869.408	14408
869.539	14275
869.669	14408
869.799	14427
869.929	14450
870.06	14389
870.19	14693
870.32	14625
870.45	14625
870.58	14697
870.71	14853
870.84	14746
870.97	14769
871.1	14720
871.23	14910
871.36	14944
871.489	14883
871.619	14807
871.749	14921
871.879	14998
872.008	14982
872.138	14906
872.267	14990
872.397	14739
872.526	14762
872.656	14705
872.785	14720
872.915	14880
873.044	15001
873.173	14899
873.303	14960
873.432	14986
873.561	15017
873.69	15062
873.819	14960
873.948	15013
874.077	14937
874.206	14952
874.335	14967
874.464	15070
874.593	15211
874.722	15180
874.851	15218
874.979	15275
875.108	15359
875.237	15207
875.365	15230
875.494	15207
875.623	15412
875.751	15389
875.88	15207
876.008	15439
876.136	15572
876.265	15637
876.393	15717
876.521	15724
876.65	15739
876.778	15720
876.906	15625
877.034	15705
877.162	15728
877.29	15587
877.418	15644
877.546	15717
877.674	15778
877.802	15739
877.93	15663
878.058	15637
878.185	15610
878.313	15720
878.441	15656
878.568	15564
878.696	15606
878.824	15770
878.951	15789
879.079	15850
879.206	16002
879.333	15911
879.461	15804
879.588	15857
879.715	15915
879.842	15934
879.97	15766
880.097	15515
880.224	15504
880.351	15511
880.478	15492
880.605	15641
880.732	15507
880.859	15835
880.986	15633
881.112	15534
881.239	15496
881.366	15367
881.493	15260
881.619	15199
881.746	15173
881.872	15195
881.999	15058
882.125	15173
882.252	15233
882.378	15283
882.505	15268
882.631	15138
882.757	14925
882.883	15135
883.01	14994
883.136	15032
883.262	14883
883.388	14921
883.514	14998
883.64	15066
883.766	15009
883.892	14781
884.018	14826
884.143	14998
884.269	15150
884.395	14804
884.52	14785
884.646	14667
884.772	14632
884.897	14727
885.023	14750
885.148	14868
885.274	14849
885.399	14750
885.524	14655
885.65	14727
885.775	14735
885.9	14765
886.025	14792
886.15	14750
886.275	14708
886.4	14587
886.525	14716
886.65	14701
886.775	14629
886.9	14842
887.025	14937
887.149	14777
887.274	14560
887.399	14469
887.523	14514
887.648	14427
887.773	14438
887.897	14621
888.021	14549
888.146	14511
888.27	14518
888.395	14727
888.519	14602
888.643	14590
888.767	14568
888.891	14522
889.015	14404
889.139	14400
889.263	14469
889.387	14518
889.511	14625
889.635	14545
889.759	14450
889.883	14389
890.006	14404
890.13	14511
890.254	14313
890.377	14343
890.501	14218
890.624	14218
890.748	14298
890.871	14138
890.995	14126
891.118	13967
891.241	14027
891.364	14065
891.488	14267
891.611	14069
891.734	14149
891.857	14088
891.98	14126
892.103	14202
892.226	14130
892.349	14183
892.471	13970
892.594	14111
892.717	14084
892.839	14176
892.962	14157
893.085	14259
893.207	14096
893.33	14062
893.452	13974
893.575	14149
893.697	14035
893.819	14305
893.941	14248
894.064	14252
894.186	14054
894.308	14062
894.43	14202
894.552	14355
894.674	14214
894.796	14043
894.918	14229
895.04	14138
895.161	14237
895.283	14237
895.405	14214
895.526	14218
895.648	14183
895.769	14298
895.891	14271
896.012	14347
896.134	14377
896.255	14256
896.376	14214
896.498	14298
896.619	14324
896.74	14320
896.861	14343
896.982	14708
897.103	14762
897.224	14488
897.345	14419
897.466	14446
897.587	14583
897.708	14682
897.828	14571
897.949	14610
898.07	14423
898.19	14495
898.311	14743
898.431	14617
898.552	14625
898.672	14777
898.792	14720
898.913	14705
899.033	14549
899.153	14488
899.273	14438
899.393	14446
899.513	14530
899.633	14332
899.753	14450
899.873	14438
899.993	14503
900.113	14454
900.232	14545
900.352	14526
900.472	14377
900.591	14358
900.711	14393
900.83	14267
900.95	14499
901.069	14492
901.189	14229
901.308	14088
901.427	13997
901.546	13967
901.665	14115
901.784	14088
901.904	13936
902.023	13849
902.141	13643
902.26	13616
902.379	13700
902.498	13616
902.617	13559
902.735	13658
902.854	13556
902.973	13460
903.091	13365
903.21	13388
903.328	13320
903.446	13308
903.565	13213
903.683	13133
903.801	13061
903.919	13118
904.038	13038
904.156	12920
904.274	13034
904.392	13069
904.51	13004
904.627	13015
904.745	13088
904.863	13095
904.981	12840
905.098	12696
905.216	12688
905.334	12673
905.451	12703
905.569	12612
905.686	12749
905.803	12696
905.921	12498
906.038	12635
906.155	12585
906.272	12399
906.389	12467
906.506	12342
906.623	12285
906.74	12190
906.857	12175
906.974	12182
907.091	12410
907.208	12467
907.324	12296
907.441	12216
907.557	12057
907.674	12060
907.79	11969
907.907	11992
908.023	12019
908.139	11992
908.256	11984
908.372	11973
908.488	11870
908.604	11897
908.72	11771
908.836	11729
908.952	11790
909.068	11794
909.184	11824
909.3	11710
909.415	11798
909.531	11786
909.647	11718
909.762	11619
909.878	11440
909.993	11589
910.108	11459
910.224	11516
910.339	11543
910.454	11452
910.57	11452
910.685	11330
910.8	11585
910.915	11570
911.03	11474
911.145	11273
911.259	11239
911.374	11235
911.489	11220
911.604	11136
911.718	10976
911.833	11003
911.947	10919
912.062	10820
912.176	11052
912.291	10957
912.405	10976
912.519	11227
912.633	11284
912.748	11159
912.862	11037
912.976	10881
913.09	10809
913.204	10790
913.318	10881
913.431	10946
913.545	10915
913.659	11010
913.772	10828
913.886	10862
914	10740
914.113	10816
914.226	10946
914.34	10896
914.453	10733
914.566	10835
914.68	10721
914.793	10679
914.906	10538
915.019	10554
915.132	10432
915.245	10474
915.358	10470
915.47	10615
915.583	10550
915.696	10573
915.809	10607
915.921	10611
916.034	10535
916.146	10459
916.259	10459
916.371	10615
916.483	10405
916.595	10371
916.708	10402
916.82	10394
916.932	10333
917.044	10440
917.156	10512
917.268	10314
917.38	10322
917.491	10386
917.603	10295
917.715	10405
917.826	10478
917.938	10276
918.049	10196
918.161	10341
918.272	10489
918.384	10504
918.495	10462
918.606	10276
918.717	10154
918.828	10188
918.939	10253
919.05	10181
919.161	10196
919.272	10086
919.383	10055
919.494	10230
919.604	10443
919.715	10325
919.826	10093
919.936	10169
920.047	10341
920.157	10242
920.267	10428
920.378	10265
920.488	10230
920.598	10413
920.708	10584
920.818	10493
920.928	10474
921.038	10592
921.148	10527
921.258	10337
921.368	10154
921.477	10074
921.587	10112
921.697	10013
921.806	10074
921.916	9953
922.025	9876
922.134	9797
922.244	9759
922.353	9823
922.462	9743
922.571	9663
922.68	9511
922.789	9462
922.898	9519
923.007	9473
923.116	9557
923.224	9424
923.333	9447
923.442	9439
923.55	9332
923.659	9389
923.767	9454
923.876	9344
923.984	9420
924.092	9310
924.201	9363
924.309	9382
924.417	9359
924.525	9291
924.633	9310
924.741	10261
924.849	9123
924.956	9260
925.064	9184
925.172	9039
925.279	9066
925.387	9127
925.494	9161
925.602	9294
925.709	9253
925.816	9089
925.924	9207
926.031	9256
926.138	9169
926.245	9199
926.352	9036
926.459	9203
926.566	9291
926.673	9108
926.779	9020
926.886	8986
926.993	8838
927.099	8880
927.206	8781
927.312	8826
927.419	8887
927.525	8941
927.631	8918
927.737	8788
927.843	8720
927.95	8625
928.056	8731
928.162	8754
928.267	8758
928.373	9310
928.479	8842
928.585	8598
928.69	8739
928.796	8823
928.901	8594
929.007	8571
929.112	8655
929.218	8648
929.323	8621
929.428	8560
929.533	8674
929.638	8583
929.743	8583
929.848	8621
929.953	8610
930.058	8503
930.163	8351
930.267	8385
930.372	8461
930.477	8328
930.581	8617
930.685	8362
930.79	8240
930.894	8244
930.998	8309
931.103	8427
931.207	8046
931.311	8031
931.415	7970
931.519	7750
931.623	7788
