Data from test_V78500241_284.txt Node
Date: Fri Mar 25 14:35:42 CST 2022
User: usil
Spectrometer: V785-0024
Trigger mode: 0
Integration Time (sec): 4.000000E-1
Scans to average: 1
Nonlinearity correction enabled: false
Boxcar width: 0
Storing dark spectrum: false
XAxis mode: Wavelengths
Number of Pixels in Spectrum: 1024
>>>>>Begin Spectral Data<<<<<
801.071	27237
801.214	27218
801.356	26933
801.499	26845
801.641	26762
801.783	26826
801.926	26708
802.068	26594
802.211	26484
802.353	26442
802.496	26404
802.638	26370
802.78	26286
802.923	26111
803.065	26233
803.208	26142
803.35	26202
803.492	26286
803.635	26343
803.777	26286
803.919	26313
804.061	26537
804.204	26324
804.346	26183
804.488	26100
804.63	26195
804.773	26134
804.915	26210
805.057	26377
805.199	26126
805.341	26240
805.483	26317
805.626	26301
805.768	26271
805.91	26210
806.052	26252
806.194	26081
806.336	26484
806.478	26355
806.62	26339
806.762	26347
806.904	26541
807.046	26609
807.188	26731
807.33	26621
807.472	26632
807.614	26693
807.756	26598
807.898	26442
808.04	26434
808.182	26366
808.324	26564
808.465	26686
808.607	26674
808.749	26853
808.891	26910
809.033	27062
809.174	26887
809.316	26754
809.458	26887
809.6	26807
809.741	26910
809.883	26762
810.025	26971
810.166	26899
810.308	27058
810.45	26872
810.591	26773
810.733	26708
810.875	26545
811.016	26594
811.158	26514
811.299	26777
811.441	26788
811.582	26663
811.724	26613
811.865	26682
812.007	26678
812.148	26480
812.29	26598
812.431	26906
812.573	26838
812.714	26883
812.855	27043
812.997	27157
813.138	27245
813.279	27116
813.421	27013
813.562	27032
813.703	26902
813.845	26804
813.986	26419
814.127	26377
814.268	26111
814.41	26202
814.551	26271
814.692	26282
814.833	26168
814.974	26043
815.115	26107
815.256	25921
815.397	26096
815.539	25879
815.68	25879
815.821	25822
815.962	25959
816.103	25966
816.244	25715
816.385	25719
816.526	25563
816.666	25537
816.807	25343
816.948	25259
817.089	25411
817.23	25335
817.371	25365
817.512	25384
817.653	25274
817.793	25282
817.934	25206
818.075	25251
818.216	25324
818.356	25301
818.497	25031
818.638	25031
818.778	24970
818.919	24886
819.06	25012
819.2	25046
819.341	25031
819.481	25206
819.622	25343
819.762	25479
819.903	25468
820.043	25308
820.184	25244
820.324	25152
820.465	25289
820.605	25324
820.746	25118
820.886	25148
821.026	25160
821.167	25278
821.307	25232
821.447	25232
821.588	25038
821.728	24970
821.868	24734
822.008	24719
822.149	24608
822.289	24566
822.429	24502
822.569	24292
822.709	24319
822.849	24121
822.99	24117
823.13	23999
823.27	23973
823.41	23851
823.55	23855
823.69	23939
823.83	23779
823.97	23760
824.11	23611
824.25	23646
824.389	23573
824.529	23714
824.669	23585
824.809	23718
824.949	23752
825.089	23699
825.228	23714
825.368	23436
825.508	23425
825.648	23395
825.787	23535
825.927	23429
826.067	23455
826.206	23497
826.346	23376
826.485	23478
826.625	23261
826.765	23490
826.904	23551
827.044	23223
827.183	23185
827.323	23060
827.462	23151
827.601	23048
827.741	23014
827.88	23128
828.02	22961
828.159	23117
828.298	23216
828.437	23128
828.577	22991
828.716	23094
828.855	23010
828.994	22717
829.134	22797
829.273	22782
829.412	22790
829.551	22694
829.69	22717
829.829	22816
829.968	22877
830.107	22889
830.246	22782
830.385	22592
830.524	22706
830.663	22542
830.802	22440
830.941	22310
831.08	22310
831.219	22428
831.357	22436
831.496	22478
831.635	22295
831.774	22303
831.913	22284
832.051	22185
832.19	22051
832.329	22112
832.467	21941
832.606	21892
832.744	21857
832.883	22040
833.022	21854
833.16	22021
833.299	21983
833.437	22059
833.576	22029
833.714	22078
833.852	22036
833.991	22013
834.129	22070
834.267	22074
834.406	22002
834.544	22074
834.682	21922
834.821	21975
834.959	22040
835.097	21945
835.235	22048
835.373	22025
835.511	22002
835.65	21812
835.788	21831
835.926	21580
836.064	21599
836.202	21682
836.34	21751
836.478	21915
836.615	21827
836.753	21880
836.891	21892
837.029	21895
837.167	21743
837.305	21625
837.443	21553
837.58	21633
837.718	21686
837.856	21595
837.993	21622
838.131	21580
838.269	21595
838.406	21545
838.544	21416
838.681	21272
838.819	21359
838.956	21180
839.094	21077
839.231	21218
839.369	21344
839.506	21466
839.643	21329
839.781	21195
839.918	21058
840.055	21077
840.193	20960
840.33	21001
840.467	20861
840.604	21066
840.742	21241
840.879	20910
841.016	20891
841.153	20990
841.29	21089
841.427	21058
841.564	20891
841.701	21039
841.838	20944
841.975	20868
842.112	20842
842.249	20743
842.385	20792
842.522	21036
842.659	20842
842.796	20781
842.933	20819
843.069	20636
843.206	20777
843.343	20765
843.479	20750
843.616	20777
843.752	20636
843.889	20385
844.025	20716
844.162	20552
844.298	20564
844.435	20381
844.571	20469
844.708	20537
844.844	20667
844.98	20670
845.117	20606
845.253	20431
845.389	20423
845.525	20465
845.661	20408
845.798	20278
845.934	20431
846.07	20328
846.206	20427
846.342	20495
846.478	20294
846.614	20046
846.75	20027
846.886	19841
847.022	20073
847.158	19978
847.294	19978
847.429	19902
847.565	19826
847.701	20149
847.837	19620
847.972	19658
848.108	19795
848.244	19674
848.379	19483
848.515	19548
848.65	19480
848.786	19506
848.921	19472
849.057	19647
849.192	19460
849.328	19510
849.463	19533
849.598	19506
849.734	19453
849.869	19396
850.004	19198
850.14	19301
850.275	19194
850.41	19145
850.545	19187
850.68	19183
850.815	19183
850.95	19236
851.085	19289
851.22	19301
851.355	19190
851.49	19133
851.625	19285
851.76	19137
851.895	19019
852.03	19118
852.165	19339
852.299	19331
852.434	19331
852.569	19209
852.703	19175
852.838	19259
852.973	19388
853.107	19263
853.242	19255
853.376	19091
853.511	18970
853.645	18977
853.78	19091
853.914	18989
854.048	18852
854.183	19053
854.317	19095
854.451	19213
854.585	19126
854.72	19061
854.854	19164
854.988	18973
855.122	18935
855.256	18871
855.39	19031
855.524	19034
855.658	19019
855.792	19160
855.926	19042
856.06	19091
856.194	19145
856.327	18993
856.461	18894
856.595	18958
856.729	18970
856.862	19076
856.996	18935
857.13	19046
857.263	19152
857.397	19031
857.53	19065
857.664	19012
857.797	19137
857.931	19061
858.064	18981
858.197	19057
858.331	18981
858.464	19012
858.597	18890
858.731	18954
858.864	18913
858.997	18882
859.13	18981
859.263	18943
859.396	19053
859.529	18962
859.662	18939
859.795	18996
859.928	18932
860.061	19061
860.194	19148
860.327	18916
860.46	18825
860.592	18932
860.725	19160
860.858	19004
860.99	18943
861.123	18905
861.256	18993
861.388	18989
861.521	19605
861.653	18871
861.786	18833
861.918	18875
862.05	18863
862.183	18958
862.315	18973
862.447	19107
862.58	18939
862.712	18707
862.844	18734
862.976	18715
863.108	18787
863.24	19046
863.372	18639
863.504	18707
863.636	18650
863.768	18711
863.9	18738
864.032	18528
864.164	18593
864.296	18665
864.428	18707
864.559	18745
864.691	18642
864.823	18707
864.954	18669
865.086	18703
865.217	18547
865.349	18551
865.48	18544
865.612	18608
865.743	18631
865.875	18597
866.006	18623
866.137	18448
866.269	18585
866.4	18563
866.531	18547
866.662	18585
866.793	18483
866.924	18616
867.055	18467
867.186	18589
867.317	18509
867.448	18486
867.579	18612
867.71	18483
867.841	18502
867.972	18471
868.103	18498
868.233	18627
868.364	18631
868.495	18601
868.625	18764
868.756	18913
868.886	18738
869.017	18863
869.147	18920
869.278	18825
869.408	18795
869.539	18681
869.669	18696
869.799	18833
869.929	18844
870.06	18814
870.19	19065
870.32	19156
870.45	19084
870.58	19099
870.71	19373
870.84	19247
870.97	19122
871.1	19171
871.23	19278
871.36	19228
871.489	19168
871.619	19240
871.749	19285
871.879	19278
872.008	19556
872.138	19381
872.267	19396
872.397	19183
872.526	19160
872.656	19217
872.785	19270
872.915	19373
873.044	19381
873.173	19335
873.303	19438
873.432	19445
873.561	19419
873.69	19468
873.819	19339
873.948	19445
874.077	19434
874.206	19354
874.335	19373
874.464	19419
874.593	19662
874.722	19601
874.851	19723
874.979	19601
875.108	19719
875.237	19655
875.365	19582
875.494	19677
875.623	19753
875.751	19556
875.88	19647
876.008	19757
876.136	19765
876.265	19986
876.393	20096
876.521	20153
876.65	20157
876.778	20077
876.906	19932
877.034	19974
877.162	20058
877.29	19925
877.418	19989
877.546	19974
877.674	20081
877.802	19932
877.93	20062
878.058	20008
878.185	19830
878.313	19967
878.441	20092
878.568	19890
878.696	19978
878.824	20043
878.951	20176
879.079	20286
879.206	20450
879.333	20233
879.461	20122
879.588	20252
879.715	20214
879.842	20511
879.97	20130
880.097	19951
880.224	19940
880.351	19951
880.478	19894
880.605	19784
880.732	19841
880.859	20206
880.986	19909
881.112	19909
881.239	19738
881.366	19696
881.493	19616
881.619	19422
881.746	19521
881.872	19514
881.999	19411
882.125	19407
882.252	19597
882.378	19464
882.505	19624
882.631	19320
882.757	19289
882.883	19240
883.01	19327
883.136	19183
883.262	19126
883.388	19175
883.514	19373
883.64	19202
883.766	19247
883.892	19103
884.018	19099
884.143	19255
884.269	19270
884.395	18958
884.52	19000
884.646	18829
884.772	18859
884.897	18871
885.023	18966
885.148	19023
885.274	19012
885.399	19088
885.524	18852
885.65	18916
885.775	19065
885.9	18852
886.025	19076
886.15	19034
886.275	18829
886.4	18707
886.525	18863
886.65	18837
886.775	18863
886.9	19042
887.025	19171
887.149	18859
887.274	18726
887.399	18597
887.523	18612
887.648	18639
887.773	18559
887.897	18795
888.021	18844
888.146	18631
888.27	18741
888.395	18840
888.519	18620
888.643	18711
888.767	18779
888.891	18498
889.015	18486
889.139	18635
889.263	18456
889.387	18578
889.511	18707
889.635	18639
889.759	18353
889.883	18384
890.006	18475
890.13	18574
890.254	18380
890.377	18414
890.501	18338
890.624	18144
890.748	18273
890.871	18140
890.995	18076
891.118	18045
891.241	18235
891.364	18190
891.488	18174
891.611	18098
891.734	18068
891.857	18182
891.98	18133
892.103	18121
892.226	18152
892.349	18095
892.471	17863
892.594	18026
892.717	17996
892.839	17939
892.962	18117
893.085	18110
893.207	17935
893.33	17954
893.452	18007
893.575	18079
893.697	18026
893.819	18167
893.941	18171
894.064	18216
894.186	17942
894.308	17973
894.43	18182
894.552	18205
894.674	18194
894.796	17908
894.918	17954
895.04	18011
895.161	18106
895.283	18068
895.405	17935
895.526	18064
895.648	17927
895.769	17980
895.891	18034
896.012	18171
896.134	18224
896.255	18110
896.376	18106
896.498	18140
896.619	18121
896.74	18129
896.861	18194
896.982	18452
897.103	18582
897.224	18460
897.345	18289
897.466	18289
897.587	18243
897.708	18498
897.828	18350
897.949	18262
898.07	18213
898.19	18323
898.311	18498
898.431	18232
898.552	18258
898.672	18395
898.792	18361
898.913	18391
899.033	18258
899.153	18220
899.273	17923
899.393	18136
899.513	18106
899.633	18102
899.753	18129
899.873	18030
899.993	18083
900.113	18057
900.232	18026
900.352	18030
900.472	17961
900.591	17882
900.711	17969
900.83	17847
900.95	18045
901.069	18015
901.189	17908
901.308	17528
901.427	17471
901.546	17520
901.665	17573
901.784	17463
901.904	17417
902.023	17391
902.141	17060
902.26	17025
902.379	17124
902.498	16984
902.617	17151
902.735	17121
902.854	17098
902.973	16972
903.091	16736
903.21	16812
903.328	16755
903.446	16672
903.565	16637
903.683	16584
903.801	16409
903.919	16577
904.038	16607
904.156	16352
904.274	16432
904.392	16230
904.51	16272
904.627	16299
904.745	16291
904.863	16272
904.981	16162
905.098	16021
905.216	16040
905.334	15964
905.451	15972
905.569	15895
905.686	16101
905.803	16002
905.921	15770
906.038	15895
906.155	15762
906.272	15739
906.389	15568
906.506	15641
906.623	15545
906.74	15504
906.857	15378
906.974	15393
907.091	15526
907.208	15690
907.324	15538
907.441	15416
907.557	15283
907.674	15405
907.79	15211
907.907	15123
908.023	15211
908.139	15294
908.256	15165
908.372	15199
908.488	15142
908.604	15005
908.72	14880
908.836	14933
908.952	14971
909.068	14925
909.184	15028
909.3	14895
909.415	14906
909.531	14921
909.647	14697
909.762	14689
909.878	14594
909.993	14670
910.108	14621
910.224	14617
910.339	14590
910.454	14564
910.57	14495
910.685	14469
910.8	14697
910.915	14552
911.03	14480
911.145	14408
911.259	14404
911.374	14233
911.489	14157
911.604	14077
911.718	14043
911.833	14058
911.947	13951
912.062	13826
912.176	13978
912.291	13963
912.405	14046
912.519	14172
912.633	14168
912.748	14088
912.862	14043
912.976	13814
913.09	13723
913.204	13753
913.318	13837
913.431	13970
913.545	13890
913.659	14024
913.772	13689
913.886	13693
914	13761
914.113	13719
914.226	13849
914.34	13738
914.453	13540
914.566	13761
914.68	13571
914.793	13518
914.906	13422
915.019	13297
915.132	13346
915.245	13377
915.358	13316
915.47	13400
915.583	13354
915.696	13392
915.809	13480
915.921	13472
916.034	13373
916.146	13156
916.259	13221
916.371	13289
916.483	13282
916.595	13240
916.708	13274
916.82	13289
916.932	13187
917.044	13194
917.156	13072
917.268	13080
917.38	13053
917.491	13038
917.603	13099
917.715	13061
917.826	13133
917.938	12993
918.049	12829
918.161	12993
918.272	13042
918.384	13099
918.495	13031
918.606	12935
918.717	12806
918.828	12863
918.939	12844
919.05	12825
919.161	12795
919.272	12623
919.383	12692
919.494	12859
919.604	13053
919.715	12837
919.826	12692
919.936	12840
920.047	12817
920.157	12753
920.267	12981
920.378	12932
920.488	12673
920.598	13019
920.708	13076
920.818	12932
920.928	12913
921.038	13114
921.148	13023
921.258	12863
921.368	12703
921.477	12635
921.587	12498
921.697	12376
921.806	12631
921.916	12376
922.025	12251
922.134	12155
922.244	12254
922.353	12182
922.462	12102
922.571	12030
922.68	11965
922.789	11889
922.898	11958
923.007	11847
923.116	11939
923.224	11752
923.333	11840
923.442	11771
923.55	11752
923.659	11775
923.767	11771
923.876	11627
923.984	11756
924.092	11619
924.201	11688
924.309	11665
924.417	11779
924.525	11608
924.633	11615
924.741	12589
924.849	11482
924.956	11577
925.064	11429
925.172	11376
925.279	11444
925.387	11440
925.494	11421
925.602	11509
925.709	11463
925.816	11391
925.924	11398
926.031	11383
926.138	11463
926.245	11387
926.352	11235
926.459	11364
926.566	11474
926.673	11239
926.779	11178
926.886	11143
926.993	11090
927.099	10995
927.206	10961
927.312	10946
927.419	11136
927.525	10972
927.631	11029
927.737	10904
927.843	10911
927.95	10774
928.056	10911
928.162	10835
928.267	10896
928.373	11459
928.479	10896
928.585	10771
928.69	10805
928.796	10847
928.901	10797
929.007	10573
929.112	10645
929.218	10763
929.323	10664
929.428	10637
929.533	10717
929.638	10588
929.743	10622
929.848	10592
929.953	10523
930.058	10489
930.163	10371
930.267	10318
930.372	10436
930.477	10272
930.581	10424
930.685	10352
930.79	10249
930.894	10291
930.998	10188
931.103	10379
931.207	10025
931.311	9911
931.415	9865
931.519	9595
931.623	9599
