Data from test_V78500241_1802.txt Node
Date: Fri Mar 25 14:46:15 CST 2022
User: usil
Spectrometer: V785-0024
Trigger mode: 0
Integration Time (sec): 4.000000E-1
Scans to average: 1
Nonlinearity correction enabled: false
Boxcar width: 0
Storing dark spectrum: false
XAxis mode: Wavelengths
Number of Pixels in Spectrum: 1024
>>>>>Begin Spectral Data<<<<<
801.071	22169
801.214	22078
801.356	21793
801.499	21732
801.641	21625
801.783	21564
801.926	21450
802.068	21485
802.211	21435
802.353	21329
802.496	21180
802.638	21127
802.78	21009
802.923	20781
803.065	20899
803.208	20800
803.35	20826
803.492	20887
803.635	20918
803.777	20842
803.919	21013
804.061	21188
804.204	20941
804.346	20777
804.488	20731
804.63	20796
804.773	20735
804.915	20902
805.057	20880
805.199	20765
805.341	20819
805.483	20994
805.626	20952
805.768	20773
805.91	20872
806.052	20868
806.194	20750
806.336	20963
806.478	20655
806.62	20785
806.762	20883
806.904	21104
807.046	21207
807.188	21188
807.33	21116
807.472	21173
807.614	20975
807.756	21020
807.898	20914
808.04	20880
808.182	20819
808.324	20838
808.465	20967
808.607	20986
808.749	21256
808.891	21230
809.033	21355
809.174	21260
809.316	21089
809.458	21127
809.6	21146
809.741	21192
809.883	21268
810.025	21298
810.166	21382
810.308	21294
810.45	21298
810.591	21131
810.733	21036
810.875	20948
811.016	20853
811.158	20956
811.299	21070
811.441	21135
811.582	21066
811.724	20838
811.865	21032
812.007	20826
812.148	20864
812.29	20948
812.431	21161
812.573	21363
812.714	21439
812.855	21511
812.997	21500
813.138	21728
813.279	21466
813.421	21443
813.562	21382
813.703	21260
813.845	21077
813.986	20876
814.127	20617
814.268	20552
814.41	20560
814.551	20473
814.692	20617
814.833	20381
814.974	20454
815.115	20355
815.256	20229
815.397	20404
815.539	20301
815.68	20267
815.821	20191
815.962	20157
816.103	20130
816.244	20107
816.385	19928
816.526	19928
816.666	19750
816.807	19635
816.948	19795
817.089	19818
817.23	19632
817.371	19571
817.512	19677
817.653	19616
817.793	19586
817.934	19689
818.075	19651
818.216	19655
818.356	19567
818.497	19468
818.638	19285
818.778	19278
818.919	19400
819.06	19365
819.2	19343
819.341	19377
819.481	19548
819.622	19552
819.762	19833
819.903	19757
820.043	19628
820.184	19704
820.324	19563
820.465	19677
820.605	19609
820.746	19525
820.886	19453
821.026	19544
821.167	19430
821.307	19495
821.447	19396
821.588	19400
821.728	19282
821.868	19084
822.008	19168
822.149	19122
822.289	18989
822.429	18817
822.569	18753
822.709	18726
822.849	18467
822.99	18483
823.13	18422
823.27	18452
823.41	18433
823.55	18296
823.69	18190
823.83	18296
823.97	18224
824.11	18136
824.25	18053
824.389	18163
824.529	18110
824.669	18041
824.809	18117
824.949	18140
825.089	18205
825.228	18011
825.368	17885
825.508	17927
825.648	17908
825.787	17855
825.927	17961
826.067	17882
826.206	17794
826.346	17828
826.485	17920
826.625	17859
826.765	17931
826.904	17969
827.044	17771
827.183	17581
827.323	17570
827.462	17672
827.601	17570
827.741	17524
827.88	17528
828.02	17436
828.159	17512
828.298	17615
828.437	17554
828.577	17684
828.716	17733
828.855	17501
828.994	17330
829.134	17311
829.273	17322
829.412	17197
829.551	17345
829.69	17235
829.829	17436
829.968	17512
830.107	17273
830.246	17395
830.385	17303
830.524	17204
830.663	17178
830.802	17105
830.941	16984
831.08	16911
831.219	17060
831.357	16927
831.496	17105
831.635	16927
831.774	16869
831.913	16812
832.051	16721
832.19	16733
832.329	16736
832.467	16721
832.606	16558
832.744	16630
832.883	16672
833.022	16592
833.16	16706
833.299	16698
833.437	16649
833.576	16698
833.714	16691
833.852	16710
833.991	16733
834.129	16873
834.267	16759
834.406	16744
834.544	16717
834.682	16626
834.821	16664
834.959	16881
835.097	16588
835.235	16782
835.373	16637
835.511	16668
835.65	16580
835.788	16637
835.926	16440
836.064	16409
836.202	16405
836.34	16561
836.478	16748
836.615	16527
836.753	16596
836.891	16660
837.029	16573
837.167	16592
837.305	16481
837.443	16485
837.58	16348
837.718	16447
837.856	16402
837.993	16588
838.131	16497
838.269	16478
838.406	16459
838.544	16360
838.681	16147
838.819	16063
838.956	16112
839.094	16013
839.231	16074
839.369	16078
839.506	16413
839.643	16268
839.781	15941
839.918	15903
840.055	15979
840.193	15983
840.33	15979
840.467	15964
840.604	16063
840.742	16280
840.879	15819
841.016	15953
841.153	15915
841.29	16101
841.427	16051
841.564	15972
841.701	16044
841.838	15899
841.975	15865
842.112	15983
842.249	15846
842.385	15759
842.522	15956
842.659	15812
842.796	15759
842.933	15812
843.069	15709
843.206	15724
843.343	15789
843.479	15884
843.616	15873
843.752	15481
843.889	15561
844.025	15747
844.162	15511
844.298	15690
844.435	15534
844.571	15485
844.708	15542
844.844	15690
844.98	15637
845.117	15675
845.253	15595
845.389	15485
845.525	15564
845.661	15477
845.798	15378
845.934	15336
846.07	15405
846.206	15450
846.342	15523
846.478	15351
846.614	15214
846.75	15089
846.886	15108
847.022	15199
847.158	15112
847.294	15161
847.429	15233
847.565	15142
847.701	15374
847.837	14956
847.972	14861
848.108	14944
848.244	14952
848.379	14819
848.515	14674
848.65	14693
848.786	14819
848.921	14773
849.057	14819
849.192	14880
849.328	14735
849.463	14777
849.598	14651
849.734	14678
849.869	14564
850.004	14568
850.14	14492
850.275	14495
850.41	14377
850.545	14393
850.68	14396
850.815	14533
850.95	14465
851.085	14670
851.22	14644
851.355	14495
851.49	14571
851.625	14473
851.76	14514
851.895	14389
852.03	14419
852.165	14461
852.299	14518
852.434	14514
852.569	14537
852.703	14507
852.838	14617
852.973	14655
853.107	14754
853.242	14423
853.376	14503
853.511	14309
853.645	14343
853.78	14530
853.914	14377
854.048	14393
854.183	14317
854.317	14366
854.451	14560
854.585	14404
854.72	14381
854.854	14476
854.988	14301
855.122	14377
855.256	14229
855.39	14282
855.524	14507
855.658	14419
855.792	14351
855.926	14419
856.06	14400
856.194	14613
856.327	14370
856.461	14351
856.595	14259
856.729	14199
856.862	14385
856.996	14442
857.13	14446
857.263	14438
857.397	14537
857.53	14366
857.664	14381
857.797	14446
857.931	14545
858.064	14374
858.197	14473
858.331	14400
858.464	14381
858.597	14248
858.731	14503
858.864	14309
858.997	14339
859.13	14431
859.263	14393
859.396	14457
859.529	14381
859.662	14267
859.795	14339
859.928	14366
860.061	14552
860.194	14613
860.327	14457
860.46	14396
860.592	14484
860.725	14484
860.858	14590
860.99	14404
861.123	14328
861.256	14381
861.388	14355
861.521	14956
861.653	14221
861.786	14210
861.918	14286
862.05	14294
862.183	14328
862.315	14408
862.447	14434
862.58	14339
862.712	14107
862.844	14107
862.976	14320
863.108	14218
863.24	14503
863.372	14138
863.504	14054
863.636	14111
863.768	14187
863.9	14218
864.032	14130
864.164	14157
864.296	14206
864.428	14301
864.559	14305
864.691	14199
864.823	14214
864.954	14138
865.086	14244
865.217	14100
865.349	14065
865.48	14187
865.612	14187
865.743	14286
865.875	14168
866.006	14050
866.137	14225
866.269	14153
866.4	14142
866.531	14050
866.662	14111
866.793	14100
866.924	14062
867.055	14103
867.186	14046
867.317	14012
867.448	14024
867.579	14081
867.71	14065
867.841	14020
867.972	14107
868.103	14111
868.233	14062
868.364	14084
868.495	14168
868.625	14343
868.756	14419
868.886	14282
869.017	14298
869.147	14457
869.278	14537
869.408	14434
869.539	14355
869.669	14454
869.799	14309
869.929	14533
870.06	14511
870.19	14750
870.32	14743
870.45	14678
870.58	14731
870.71	14906
870.84	14830
870.97	14762
871.1	14769
871.23	14952
871.36	14975
871.489	14948
871.619	14960
871.749	14902
871.879	15009
872.008	15104
872.138	14975
872.267	15024
872.397	14724
872.526	14765
872.656	14849
872.785	14781
872.915	15028
873.044	15127
873.173	14960
873.303	15020
873.432	15043
873.561	15108
873.69	14986
873.819	15077
873.948	15161
874.077	15036
874.206	14963
874.335	15157
874.464	15123
874.593	15249
874.722	15283
874.851	15367
874.979	15412
875.108	15340
875.237	15359
875.365	15214
875.494	15317
875.623	15492
875.751	15298
875.88	15439
876.008	15454
876.136	15523
876.265	15747
876.393	15968
876.521	15880
876.65	15949
876.778	15736
876.906	15739
877.034	15705
877.162	15880
877.29	15644
877.418	15739
877.546	15781
877.674	15778
877.802	15641
877.93	15808
878.058	15743
878.185	15701
878.313	15690
878.441	15766
878.568	15660
878.696	15762
878.824	15819
878.951	15842
879.079	15861
879.206	16101
879.333	16025
879.461	15747
879.588	15857
879.715	15937
879.842	15991
879.97	15835
880.097	15644
880.224	15641
880.351	15637
880.478	15679
880.605	15538
880.732	15603
880.859	15827
880.986	15656
881.112	15545
881.239	15519
881.366	15302
881.493	15359
881.619	15325
881.746	15321
881.872	15340
881.999	15214
882.125	15203
882.252	15313
882.378	15325
882.505	15428
882.631	15329
882.757	15176
882.883	15093
883.01	15112
883.136	15028
883.262	14891
883.388	15001
883.514	15066
883.64	15081
883.766	15032
883.892	14891
884.018	14895
884.143	15020
884.269	15169
884.395	14891
884.52	14720
884.646	14754
884.772	14792
884.897	14648
885.023	14773
885.148	14960
885.274	14960
885.399	14887
885.524	14724
885.65	14800
885.775	14842
885.9	14815
886.025	14861
886.15	14868
886.275	14807
886.4	14621
886.525	14750
886.65	14765
886.775	14697
886.9	14788
887.025	15047
887.149	14762
887.274	14606
887.399	14522
887.523	14610
887.648	14473
887.773	14484
887.897	14632
888.021	14617
888.146	14632
888.27	14716
888.395	14716
888.519	14705
888.643	14727
888.767	14670
888.891	14575
889.015	14450
889.139	14518
889.263	14488
889.387	14526
889.511	14731
889.635	14579
889.759	14415
889.883	14473
890.006	14507
890.13	14602
890.254	14385
890.377	14488
890.501	14309
890.624	14271
890.748	14343
890.871	14225
890.995	14183
891.118	14084
891.241	14107
891.364	14206
891.488	14313
891.611	14183
891.734	14271
891.857	14252
891.98	14271
892.103	14305
892.226	14396
892.349	14195
892.471	14119
892.594	14206
892.717	14271
892.839	14256
892.962	14176
893.085	14309
893.207	14256
893.33	14130
893.452	14100
893.575	14343
893.697	14225
893.819	14423
893.941	14431
894.064	14309
894.186	14267
894.308	14202
894.43	14389
894.552	14404
894.674	14362
894.796	14237
894.918	14332
895.04	14278
895.161	14389
895.283	14347
895.405	14309
895.526	14290
895.648	14275
895.769	14442
895.891	14404
896.012	14412
896.134	14434
896.255	14305
896.376	14347
896.498	14377
896.619	14442
896.74	14412
896.861	14484
896.982	14720
897.103	14872
897.224	14716
897.345	14617
897.466	14579
897.587	14575
897.708	14819
897.828	14587
897.949	14670
898.07	14533
898.19	14655
898.311	14800
898.431	14640
898.552	14682
898.672	14834
898.792	14785
898.913	14800
899.033	14746
899.153	14659
899.273	14503
899.393	14533
899.513	14602
899.633	14556
899.753	14651
899.873	14545
899.993	14613
900.113	14594
900.232	14613
900.352	14610
900.472	14438
900.591	14385
900.711	14423
900.83	14305
900.95	14590
901.069	14514
901.189	14457
901.308	14206
901.427	14103
901.546	14168
901.665	14035
901.784	14084
901.904	13997
902.023	13925
902.141	13719
902.26	13750
902.379	13750
902.498	13807
902.617	13620
902.735	13662
902.854	13708
902.973	13708
903.091	13438
903.21	13384
903.328	13438
903.446	13289
903.565	13316
903.683	13247
903.801	13190
903.919	13179
904.038	13168
904.156	13114
904.274	13164
904.392	13061
904.51	13000
904.627	13046
904.745	13050
904.863	13164
904.981	12890
905.098	12635
905.216	12741
905.334	12791
905.451	12821
905.569	12760
905.686	12768
905.803	12810
905.921	12544
906.038	12798
906.155	12528
906.272	12528
906.389	12528
906.506	12323
906.623	12365
906.74	12281
906.857	12251
906.974	12296
907.091	12437
907.208	12494
907.324	12334
907.441	12167
907.557	12102
907.674	12117
907.79	12068
907.907	12022
908.023	12098
908.139	12171
908.256	12045
908.372	11996
908.488	12072
908.604	11904
908.72	11779
908.836	11931
908.952	11836
909.068	11904
909.184	11954
909.3	11843
909.415	11961
909.531	11927
909.647	11676
909.762	11676
909.878	11638
909.993	11661
910.108	11661
910.224	11562
910.339	11600
910.454	11528
910.57	11414
910.685	11360
910.8	11722
910.915	11634
911.03	11524
911.145	11353
911.259	11353
911.374	11383
911.489	11246
911.604	11185
911.718	11041
911.833	11052
911.947	10980
912.062	10915
912.176	11071
912.291	11117
912.405	11037
912.519	11299
912.633	11326
912.748	11105
912.862	11136
912.976	10949
913.09	10778
913.204	10839
913.318	10995
913.431	11094
913.545	10987
913.659	11086
913.772	10972
913.886	10824
914	10782
914.113	10873
914.226	11014
914.34	10953
914.453	10759
914.566	10949
914.68	10797
914.793	10847
914.906	10653
915.019	10523
915.132	10462
915.245	10584
915.358	10558
915.47	10584
915.583	10672
915.696	10634
915.809	10596
915.921	10748
916.034	10519
916.146	10512
916.259	10424
916.371	10622
916.483	10611
916.595	10558
916.708	10500
916.82	10588
916.932	10500
917.044	10443
917.156	10519
917.268	10363
917.38	10390
917.491	10363
917.603	10363
917.715	10466
917.826	10523
917.938	10443
918.049	10272
918.161	10398
918.272	10485
918.384	10615
918.495	10493
918.606	10227
918.717	10257
918.828	10287
918.939	10268
919.05	10242
919.161	10246
919.272	10101
919.383	10124
919.494	10409
919.604	10481
919.715	10333
919.826	10154
919.936	10249
920.047	10402
920.157	10341
920.267	10462
920.378	10295
920.488	10284
920.598	10504
920.708	10634
920.818	10500
920.928	10466
921.038	10641
921.148	10588
921.258	10310
921.368	10280
921.477	10257
921.587	10082
921.697	10044
921.806	10120
921.916	10029
922.025	9850
922.134	9884
922.244	9823
922.353	9876
922.462	9675
922.571	9667
922.68	9507
922.789	9534
922.898	9564
923.007	9477
923.116	9603
923.224	9553
923.333	9515
923.442	9424
923.55	9416
923.659	9435
923.767	9469
923.876	9359
923.984	9424
924.092	9340
924.201	9386
924.309	9416
924.417	9481
924.525	9287
924.633	9382
924.741	10284
924.849	9131
924.956	9340
925.064	9180
925.172	9108
925.279	9192
925.387	9161
925.494	9188
925.602	9313
925.709	9207
925.816	9081
925.924	9245
926.031	9287
926.138	9195
926.245	9237
926.352	9074
926.459	9272
926.566	9317
926.673	9093
926.779	9104
926.886	9081
926.993	8895
927.099	8910
927.206	8842
927.312	8933
927.419	8971
927.525	8952
927.631	8982
927.737	8826
927.843	8769
927.95	8663
928.056	8769
928.162	8830
928.267	8838
928.373	9469
928.479	8902
928.585	8705
928.69	8811
928.796	8845
928.901	8708
929.007	8606
929.112	8731
929.218	8735
929.323	8613
929.428	8598
929.533	8708
929.638	8613
929.743	8568
929.848	8640
929.953	8621
930.058	8549
930.163	8385
930.267	8404
930.372	8492
930.477	8347
930.581	8598
930.685	8469
930.79	8355
930.894	8408
930.998	8282
931.103	8480
931.207	8149
931.311	8005
931.415	8005
931.519	7769
931.623	7795
