Data from test_V78500241_1498.txt Node
Date: Fri Mar 25 14:44:08 CST 2022
User: usil
Spectrometer: V785-0024
Trigger mode: 0
Integration Time (sec): 4.000000E-1
Scans to average: 1
Nonlinearity correction enabled: false
Boxcar width: 0
Storing dark spectrum: false
XAxis mode: Wavelengths
Number of Pixels in Spectrum: 1024
>>>>>Begin Spectral Data<<<<<
801.071	22322
801.214	22379
801.356	22242
801.499	21956
801.641	21823
801.783	21644
801.926	21781
802.068	21515
802.211	21606
802.353	21515
802.496	21329
802.638	21378
802.78	21256
802.923	21112
803.065	21108
803.208	21169
803.35	21135
803.492	21180
803.635	21237
803.777	21203
803.919	21279
804.061	21424
804.204	21119
804.346	21089
804.488	20849
804.63	21085
804.773	20944
804.915	20956
805.057	21226
805.199	21062
805.341	21062
805.483	21108
805.626	21051
805.768	20933
805.91	20986
806.052	21055
806.194	21077
806.336	21306
806.478	21135
806.62	21108
806.762	21032
806.904	21173
807.046	21507
807.188	21359
807.33	21405
807.472	21351
807.614	21302
807.756	21386
807.898	21332
808.04	21146
808.182	21264
808.324	21214
808.465	21313
808.607	21564
808.749	21652
808.891	21641
809.033	21880
809.174	21675
809.316	21496
809.458	21591
809.6	21610
809.741	21682
809.883	21553
810.025	21660
810.166	21713
810.308	21595
810.45	21568
810.591	21492
810.733	21363
810.875	21268
811.016	21116
811.158	21241
811.299	21245
811.441	21408
811.582	21382
811.724	21142
811.865	21154
812.007	21176
812.148	21272
812.29	21222
812.431	21485
812.573	21564
812.714	21679
812.855	21705
812.997	21838
813.138	22006
813.279	21831
813.421	21694
813.562	21648
813.703	21469
813.845	21389
813.986	21077
814.127	20887
814.268	20842
814.41	20800
814.551	20754
814.692	20773
814.833	20625
814.974	20712
815.115	20834
815.256	20533
815.397	20686
815.539	20583
815.68	20613
815.821	20541
815.962	20484
816.103	20374
816.244	20396
816.385	20252
816.526	20214
816.666	20092
816.807	19902
816.948	20062
817.089	19989
817.23	19955
817.371	19978
817.512	19947
817.653	19875
817.793	19887
817.934	19909
818.075	19925
818.216	19788
818.356	19902
818.497	19833
818.638	19662
818.778	19712
818.919	19639
819.06	19655
819.2	19814
819.341	19811
819.481	19822
819.622	19970
819.762	20134
819.903	20039
820.043	19970
820.184	19932
820.324	19845
820.465	20024
820.605	19799
820.746	19814
820.886	19693
821.026	19871
821.167	19879
821.307	19887
821.447	19868
821.588	19776
821.728	19571
821.868	19373
822.008	19301
822.149	19190
822.289	19236
822.429	19019
822.569	19046
822.709	19072
822.849	18802
822.99	18783
823.13	18741
823.27	18821
823.41	18631
823.55	18559
823.69	18620
823.83	18479
823.97	18399
824.11	18235
824.25	18327
824.389	18395
824.529	18445
824.669	18388
824.809	18490
824.949	18479
825.089	18429
825.228	18414
825.368	18258
825.508	18106
825.648	18133
825.787	18178
825.927	18273
826.067	18038
826.206	18125
826.346	18106
826.485	18136
826.625	18148
826.765	18254
826.904	18152
827.044	17893
827.183	17946
827.323	17790
827.462	17946
827.601	17790
827.741	17859
827.88	17760
828.02	17786
828.159	17832
828.298	17885
828.437	17893
828.577	17798
828.716	17904
828.855	17714
828.994	17687
829.134	17608
829.273	17585
829.412	17573
829.551	17497
829.69	17528
829.829	17532
829.968	17653
830.107	17562
830.246	17611
830.385	17497
830.524	17543
830.663	17334
830.802	17280
830.941	17159
831.08	17216
831.219	17250
831.357	17280
831.496	17395
831.635	17193
831.774	17083
831.913	17117
832.051	16987
832.19	16930
832.329	17022
832.467	16942
832.606	16786
832.744	16953
832.883	16847
833.022	16820
833.16	16946
833.299	17025
833.437	16942
833.576	16908
833.714	16923
833.852	17025
833.991	17014
834.129	16877
834.267	17121
834.406	16957
834.544	16946
834.682	17071
834.821	16949
834.959	17048
835.097	16953
835.235	17014
835.373	17006
835.511	16908
835.65	16816
835.788	16866
835.926	16656
836.064	16519
836.202	16729
836.34	16763
836.478	16961
836.615	16793
836.753	16797
836.891	16866
837.029	16793
837.167	16786
837.305	16771
837.443	16824
837.58	16683
837.718	16812
837.856	16717
837.993	16649
838.131	16660
838.269	16634
838.406	16580
838.544	16470
838.681	16398
838.819	16451
838.956	16230
839.094	16329
839.231	16196
839.369	16360
839.506	16569
839.643	16440
839.781	16188
839.918	16116
840.055	16207
840.193	16284
840.33	16215
840.467	16253
840.604	16215
840.742	16470
840.879	16112
841.016	16059
841.153	16086
841.29	16329
841.427	16246
841.564	16306
841.701	16173
841.838	16093
841.975	16177
842.112	16135
842.249	16040
842.385	15953
842.522	16192
842.659	16002
842.796	15964
842.933	16002
843.069	15846
843.206	15926
843.343	16124
843.479	16017
843.616	16032
843.752	15644
843.889	15861
844.025	15903
844.162	15812
844.298	15819
844.435	15724
844.571	15694
844.708	15804
844.844	15934
844.98	15941
845.117	15972
845.253	15736
845.389	15614
845.525	15755
845.661	15865
845.798	15724
845.934	15835
846.07	15789
846.206	15876
846.342	15953
846.478	15682
846.614	15553
846.75	15363
846.886	15336
847.022	15530
847.158	15363
847.294	15348
847.429	15306
847.565	15439
847.701	15591
847.837	14994
847.972	14990
848.108	15245
848.244	15207
848.379	14994
848.515	14929
848.65	14830
848.786	14872
848.921	15024
849.057	14952
849.192	15043
849.328	14960
849.463	14914
849.598	14823
849.734	14902
849.869	14830
850.004	14830
850.14	14804
850.275	14762
850.41	14552
850.545	14727
850.68	14701
850.815	14663
850.95	14686
851.085	14948
851.22	14792
851.355	14727
851.49	14640
851.625	14746
851.76	14583
851.895	14526
852.03	14644
852.165	14629
852.299	14716
852.434	14731
852.569	14651
852.703	14750
852.838	14769
852.973	14872
853.107	14895
853.242	14689
853.376	14556
853.511	14518
853.645	14533
853.78	14705
853.914	14556
854.048	14560
854.183	14473
854.317	14522
854.451	14762
854.585	14571
854.72	14579
854.854	14552
854.988	14492
855.122	14530
855.256	14431
855.39	14480
855.524	14640
855.658	14678
855.792	14568
855.926	14560
856.06	14571
856.194	14636
856.327	14659
856.461	14488
856.595	14533
856.729	14583
856.862	14621
856.996	14499
857.13	14693
857.263	14701
857.397	14777
857.53	14651
857.664	14533
857.797	14552
857.931	14697
858.064	14640
858.197	14629
858.331	14636
858.464	14530
858.597	14495
858.731	14571
858.864	14522
858.997	14518
859.13	14533
859.263	14518
859.396	14488
859.529	14560
859.662	14526
859.795	14473
859.928	14606
860.061	14811
860.194	14746
860.327	14507
860.46	14625
860.592	14625
860.725	14720
860.858	14708
860.99	14537
861.123	14473
861.256	14473
861.388	14568
861.521	15150
861.653	14423
861.786	14294
861.918	14503
862.05	14492
862.183	14503
862.315	14518
862.447	14541
862.58	14473
862.712	14393
862.844	14290
862.976	14423
863.108	14438
863.24	14773
863.372	14210
863.504	14374
863.636	14317
863.768	14347
863.9	14358
864.032	14240
864.164	14332
864.296	14290
864.428	14473
864.559	14415
864.691	14457
864.823	14362
864.954	14431
865.086	14431
865.217	14328
865.349	14259
865.48	14233
865.612	14381
865.743	14454
865.875	14267
866.006	14309
866.137	14278
866.269	14377
866.4	14271
866.531	14309
866.662	14294
866.793	14225
866.924	14244
867.055	14221
867.186	14347
867.317	14275
867.448	14206
867.579	14214
867.71	14172
867.841	14229
867.972	14259
868.103	14313
868.233	14317
868.364	14339
868.495	14400
868.625	14488
868.756	14655
868.886	14503
869.017	14587
869.147	14682
869.278	14682
869.408	14693
869.539	14579
869.669	14648
869.799	14590
869.929	14785
870.06	14636
870.19	14864
870.32	14887
870.45	14853
870.58	15017
870.71	15180
870.84	15119
870.97	14937
871.1	14937
871.23	15097
871.36	15188
871.489	15131
871.619	15112
871.749	15203
871.879	15188
872.008	15310
872.138	15157
872.267	15135
872.397	14929
872.526	15077
872.656	15089
872.785	15058
872.915	15264
873.044	15218
873.173	15321
873.303	15211
873.432	15226
873.561	15367
873.69	15226
873.819	15176
873.948	15374
874.077	15222
874.206	15272
874.335	15222
874.464	15412
874.593	15424
874.722	15416
874.851	15534
874.979	15591
875.108	15629
875.237	15481
875.365	15538
875.494	15561
875.623	15603
875.751	15614
875.88	15648
876.008	15743
876.136	15812
876.265	15922
876.393	16158
876.521	16036
876.65	15991
876.778	15934
876.906	15983
877.034	15895
877.162	15922
877.29	15915
877.418	15918
877.546	16044
877.674	15922
877.802	15972
877.93	16013
878.058	15918
878.185	15884
878.313	15998
878.441	15979
878.568	15892
878.696	15994
878.824	16002
878.951	15918
879.079	16265
879.206	16390
879.333	16204
879.461	16116
879.588	16223
879.715	16287
879.842	16352
879.97	16063
880.097	15869
880.224	15888
880.351	15907
880.478	15842
880.605	15892
880.732	15857
880.859	16093
880.986	15884
881.112	15778
881.239	15800
881.366	15622
881.493	15584
881.619	15458
881.746	15412
881.872	15473
881.999	15443
882.125	15340
882.252	15557
882.378	15549
882.505	15713
882.631	15405
882.757	15325
882.883	15382
883.01	15287
883.136	15275
883.262	15169
883.388	15119
883.514	15302
883.64	15401
883.766	15325
883.892	15119
884.018	15100
884.143	15302
884.269	15473
884.395	15100
884.52	14979
884.646	15001
884.772	14994
884.897	14902
885.023	15001
885.148	15043
885.274	15256
885.399	15077
885.524	14990
885.65	14880
885.775	14986
885.9	14960
886.025	15207
886.15	14925
886.275	14937
886.4	14830
886.525	15062
886.65	14921
886.775	15036
886.9	15070
887.025	15180
887.149	15001
887.274	14830
887.399	14743
887.523	14861
887.648	14796
887.773	14686
887.897	14773
888.021	14929
888.146	14720
888.27	14914
888.395	14853
888.519	14921
888.643	14811
888.767	14853
888.891	14773
889.015	14697
889.139	14735
889.263	14659
889.387	14724
889.511	14883
889.635	14785
889.759	14606
889.883	14629
890.006	14693
890.13	14792
890.254	14583
890.377	14670
890.501	14575
890.624	14511
890.748	14541
890.871	14415
890.995	14313
891.118	14286
891.241	14358
891.364	14324
891.488	14495
891.611	14362
891.734	14278
891.857	14381
891.98	14404
892.103	14404
892.226	14442
892.349	14389
892.471	14286
892.594	14347
892.717	14419
892.839	14290
892.962	14351
893.085	14465
893.207	14389
893.33	14256
893.452	14252
893.575	14404
893.697	14313
893.819	14594
893.941	14625
894.064	14545
894.186	14396
894.308	14267
894.43	14393
894.552	14587
894.674	14457
894.796	14339
894.918	14393
895.04	14381
895.161	14377
895.283	14446
895.405	14347
895.526	14393
895.648	14499
895.769	14545
895.891	14507
896.012	14602
896.134	14648
896.255	14499
896.376	14526
896.498	14594
896.619	14495
896.74	14564
896.861	14705
896.982	14849
897.103	15020
897.224	14785
897.345	14716
897.466	14743
897.587	14785
897.708	14914
897.828	14902
897.949	14716
898.07	14781
898.19	14792
898.311	14967
898.431	14785
898.552	14853
898.672	14918
898.792	14975
898.913	14921
899.033	14804
899.153	14655
899.273	14655
899.393	14743
899.513	14716
899.633	14712
899.753	14697
899.873	14556
899.993	14746
900.113	14765
900.232	14743
900.352	14678
900.472	14708
900.591	14476
900.711	14579
900.83	14457
900.95	14682
901.069	14731
901.189	14549
901.308	14347
901.427	14229
901.546	14176
901.665	14301
901.784	14278
901.904	14191
902.023	14016
902.141	13913
902.26	13940
902.379	14005
902.498	13807
902.617	13723
902.735	13860
902.854	13871
902.973	13894
903.091	13616
903.21	13514
903.328	13506
903.446	13449
903.565	13400
903.683	13403
903.801	13312
903.919	13415
904.038	13285
904.156	13198
904.274	13202
904.392	13259
904.51	13247
904.627	13213
904.745	13270
904.863	13278
904.981	13031
905.098	12875
905.216	12924
905.334	12913
905.451	12943
905.569	12882
905.686	12970
905.803	12901
905.921	12757
906.038	12791
906.155	12760
906.272	12547
906.389	12703
906.506	12448
906.623	12555
906.74	12513
906.857	12369
906.974	12346
907.091	12574
907.208	12601
907.324	12528
907.441	12418
907.557	12289
907.674	12194
907.79	12216
907.907	12182
908.023	12251
908.139	12273
908.256	12129
908.372	12114
908.488	12095
908.604	12026
908.72	12030
908.836	11935
908.952	11988
909.068	12034
909.184	12114
909.3	11958
909.415	12011
909.531	11988
909.647	11779
909.762	11752
909.878	11680
909.993	11771
910.108	11733
910.224	11680
910.339	11794
910.454	11615
910.57	11608
910.685	11532
910.8	11798
910.915	11649
911.03	11615
911.145	11486
911.259	11364
911.374	11490
911.489	11307
911.604	11288
911.718	11220
911.833	11220
911.947	11067
912.062	11029
912.176	11193
912.291	11269
912.405	11174
912.519	11448
912.633	11440
912.748	11277
912.862	11235
912.976	11052
913.09	10987
913.204	11056
913.318	11048
913.431	11162
913.545	11162
913.659	11208
913.772	11033
913.886	10892
914	10927
914.113	11052
914.226	11048
914.34	10984
914.453	10831
914.566	11109
914.68	10915
914.793	10839
914.906	10679
915.019	10683
915.132	10649
915.245	10733
915.358	10721
915.47	10694
915.583	10702
915.696	10820
915.809	10752
915.921	10835
916.034	10679
916.146	10626
916.259	10592
916.371	10683
916.483	10702
916.595	10508
916.708	10603
916.82	10489
916.932	10569
917.044	10630
917.156	10584
917.268	10485
917.38	10478
917.491	10478
917.603	10527
917.715	10634
917.826	10561
917.938	10527
918.049	10333
918.161	10493
918.272	10672
918.384	10679
918.495	10630
918.606	10447
918.717	10413
918.828	10402
918.939	10314
919.05	10322
919.161	10405
919.272	10162
919.383	10299
919.494	10409
919.604	10664
919.715	10371
919.826	10299
919.936	10386
920.047	10459
920.157	10428
920.267	10702
920.378	10485
920.488	10394
920.598	10580
920.708	10744
920.818	10516
920.928	10561
921.038	10736
921.148	10759
921.258	10424
921.368	10360
921.477	10333
921.587	10261
921.697	10124
921.806	10333
921.916	10162
922.025	9964
922.134	9991
922.244	9895
922.353	10006
922.462	9857
922.571	9842
922.68	9667
922.789	9580
922.898	9637
923.007	9603
923.116	9618
923.224	9568
923.333	9603
923.442	9542
923.55	9492
923.659	9603
923.767	9610
923.876	9511
923.984	9523
924.092	9389
924.201	9469
924.309	9481
924.417	9557
924.525	9374
924.633	9466
924.741	10398
924.849	9306
924.956	9363
925.064	9291
925.172	9135
925.279	9241
925.387	9306
925.494	9268
925.602	9408
925.709	9412
925.816	9138
925.924	9336
926.031	9351
926.138	9199
926.245	9302
926.352	9283
926.459	9329
926.566	9389
926.673	9214
926.779	9138
926.886	9195
926.993	9017
927.099	8937
927.206	8982
927.312	8960
927.419	9028
927.525	9051
927.631	9081
927.737	8956
927.843	8921
927.95	8735
928.056	8857
928.162	8895
928.267	8925
928.373	9412
928.479	9017
928.585	8762
928.69	8872
928.796	8891
928.901	8735
929.007	8648
929.112	8842
929.218	8743
929.323	8697
929.428	8739
929.533	8773
929.638	8629
929.743	8606
929.848	8705
929.953	8724
930.058	8644
930.163	8507
930.267	8480
930.372	8629
930.477	8389
930.581	8659
930.685	8549
930.79	8400
930.894	8465
930.998	8396
931.103	8530
931.207	8199
931.311	8107
931.415	8145
931.519	7917
931.623	7875
