Data from test_V78500241_1388.txt Node
Date: Fri Mar 25 14:43:22 CST 2022
User: usil
Spectrometer: V785-0024
Trigger mode: 0
Integration Time (sec): 4.000000E-1
Scans to average: 1
Nonlinearity correction enabled: false
Boxcar width: 0
Storing dark spectrum: false
XAxis mode: Wavelengths
Number of Pixels in Spectrum: 1024
>>>>>Begin Spectral Data<<<<<
801.071	22481
801.214	22325
801.356	22090
801.499	21987
801.641	21892
801.783	21766
801.926	21861
802.068	21755
802.211	21759
802.353	21720
802.496	21420
802.638	21329
802.78	21260
802.923	21096
803.065	21169
803.208	21123
803.35	21237
803.492	21237
803.635	21363
803.777	21154
803.919	21211
804.061	21515
804.204	21310
804.346	21161
804.488	20967
804.63	21074
804.773	20990
804.915	21081
805.057	21180
805.199	21036
805.341	21188
805.483	21161
805.626	21112
805.768	20982
805.91	21020
806.052	21028
806.194	21020
806.336	21180
806.478	21017
806.62	20990
806.762	21218
806.904	21211
807.046	21386
807.188	21523
807.33	21450
807.472	21386
807.614	21351
807.756	21515
807.898	21298
808.04	21294
808.182	21218
808.324	21298
808.465	21412
808.607	21549
808.749	21713
808.891	21766
809.033	21770
809.174	21724
809.316	21633
809.458	21701
809.6	21595
809.741	21545
809.883	21545
810.025	21705
810.166	21747
810.308	21732
810.45	21679
810.591	21557
810.733	21291
810.875	21428
811.016	21173
811.158	21066
811.299	21348
811.441	21420
811.582	21367
811.724	21283
811.865	21260
812.007	21298
812.148	21157
812.29	21298
812.431	21420
812.573	21641
812.714	21660
812.855	21774
812.997	21854
813.138	21861
813.279	21816
813.421	21713
813.562	21698
813.703	21386
813.845	21420
813.986	21093
814.127	20952
814.268	20918
814.41	20864
814.551	20845
814.692	20796
814.833	20724
814.974	20602
815.115	20765
815.256	20670
815.397	20526
815.539	20648
815.68	20583
815.821	20446
815.962	20537
816.103	20568
816.244	20408
816.385	20206
816.526	20328
816.666	20005
816.807	20058
816.948	20031
817.089	20168
817.23	19993
817.371	19940
817.512	19921
817.653	19887
817.793	19898
817.934	19913
818.075	20035
818.216	20035
818.356	19909
818.497	19731
818.638	19578
818.778	19563
818.919	19639
819.06	19696
819.2	19814
819.341	19803
819.481	19917
819.622	19917
819.762	20210
819.903	20016
820.043	19951
820.184	19894
820.324	19811
820.465	20077
820.605	19879
820.746	19814
820.886	19723
821.026	19860
821.167	19986
821.307	19925
821.447	19890
821.588	19723
821.728	19635
821.868	19491
822.008	19293
822.149	19324
822.289	19232
822.429	19091
822.569	18962
822.709	19076
822.849	18738
822.99	18863
823.13	18772
823.27	18707
823.41	18608
823.55	18551
823.69	18635
823.83	18673
823.97	18574
824.11	18414
824.25	18429
824.389	18448
824.529	18384
824.669	18323
824.809	18418
824.949	18528
825.089	18407
825.228	18372
825.368	18178
825.508	18254
825.648	18171
825.787	18311
825.927	18228
826.067	18098
826.206	18079
826.346	18121
826.485	18281
826.625	18197
826.765	18213
826.904	18155
827.044	17988
827.183	17950
827.323	17767
827.462	17977
827.601	17874
827.741	17840
827.88	17794
828.02	17661
828.159	17847
828.298	17901
828.437	17939
828.577	17893
828.716	17931
828.855	17722
828.994	17581
829.134	17726
829.273	17554
829.412	17687
829.551	17577
829.69	17600
829.829	17684
829.968	17676
830.107	17611
830.246	17520
830.385	17474
830.524	17493
830.663	17505
830.802	17326
830.941	17318
831.08	17250
831.219	17216
831.357	17307
831.496	17570
831.635	17277
831.774	17121
831.913	17140
832.051	16972
832.19	16911
832.329	17200
832.467	16946
832.606	16908
832.744	16911
832.883	16831
833.022	16869
833.16	16938
833.299	16934
833.437	16946
833.576	17025
833.714	16957
833.852	16938
833.991	17018
834.129	17083
834.267	17052
834.406	16961
834.544	16987
834.682	17033
834.821	16953
834.959	17151
835.097	16915
835.235	17003
835.373	17018
835.511	16904
835.65	16961
835.788	16885
835.926	16744
836.064	16668
836.202	16778
836.34	16957
836.478	16938
836.615	16892
836.753	16835
836.891	16889
837.029	16911
837.167	16847
837.305	16771
837.443	16759
837.58	16748
837.718	16866
837.856	16706
837.993	16668
838.131	16778
838.269	16656
838.406	16656
838.544	16599
838.681	16405
838.819	16325
838.956	16306
839.094	16246
839.231	16341
839.369	16436
839.506	16592
839.643	16485
839.781	16363
839.918	16253
840.055	16375
840.193	16284
840.33	16188
840.467	16329
840.604	16363
840.742	16474
840.879	16173
841.016	16238
841.153	16226
841.29	16398
841.427	16322
841.564	16284
841.701	16306
841.838	16181
841.975	16173
842.112	16242
842.249	16150
842.385	15983
842.522	16230
842.659	15991
842.796	16063
842.933	16082
843.069	16086
843.206	16002
843.343	16063
843.479	16158
843.616	16105
843.752	15865
843.889	15823
844.025	15979
844.162	15865
844.298	15960
844.435	15812
844.571	15736
844.708	15903
844.844	15979
844.98	15941
845.117	15960
845.253	15915
845.389	15747
845.525	15930
845.661	15812
845.798	15903
845.934	16082
846.07	15975
846.206	15968
846.342	16029
846.478	15892
846.614	15584
846.75	15507
846.886	15447
847.022	15511
847.158	15473
847.294	15511
847.429	15439
847.565	15477
847.701	15660
847.837	15188
847.972	15093
848.108	15199
848.244	15192
848.379	15001
848.515	14910
848.65	14933
848.786	15009
848.921	15036
849.057	15108
849.192	15127
849.328	15108
849.463	15039
849.598	14956
849.734	14906
849.869	14838
850.004	14785
850.14	14853
850.275	14781
850.41	14708
850.545	14644
850.68	14746
850.815	14807
850.95	14796
851.085	14971
851.22	14826
851.355	14811
851.49	14708
851.625	14678
851.76	14727
851.895	14670
852.03	14598
852.165	14686
852.299	14686
852.434	14842
852.569	14918
852.703	14868
852.838	14937
852.973	14960
853.107	14971
853.242	14823
853.376	14727
853.511	14617
853.645	14530
853.78	14762
853.914	14701
854.048	14701
854.183	14610
854.317	14758
854.451	14743
854.585	14648
854.72	14651
854.854	14792
854.988	14659
855.122	14632
855.256	14514
855.39	14636
855.524	14712
855.658	14705
855.792	14594
855.926	14613
856.06	14724
856.194	14754
856.327	14705
856.461	14522
856.595	14598
856.729	14629
856.862	14750
856.996	14678
857.13	14644
857.263	14765
857.397	14724
857.53	14648
857.664	14670
857.797	14674
857.931	14659
858.064	14648
858.197	14769
858.331	14750
858.464	14590
858.597	14446
858.731	14575
858.864	14533
858.997	14568
859.13	14678
859.263	14621
859.396	14765
859.529	14583
859.662	14594
859.795	14537
859.928	14716
860.061	14819
860.194	14773
860.327	14689
860.46	14667
860.592	14796
860.725	14716
860.858	14739
860.99	14644
861.123	14644
861.256	14541
861.388	14636
861.521	15351
861.653	14556
861.786	14522
861.918	14530
862.05	14526
862.183	14606
862.315	14579
862.447	14682
862.58	14602
862.712	14396
862.844	14412
862.976	14446
863.108	14431
863.24	14868
863.372	14374
863.504	14370
863.636	14400
863.768	14461
863.9	14442
864.032	14305
864.164	14408
864.296	14404
864.428	14564
864.559	14507
864.691	14537
864.823	14450
864.954	14423
865.086	14427
865.217	14339
865.349	14343
865.48	14427
865.612	14434
865.743	14526
865.875	14408
866.006	14381
866.137	14408
866.269	14476
866.4	14408
866.531	14309
866.662	14328
866.793	14396
866.924	14320
867.055	14431
867.186	14351
867.317	14271
867.448	14237
867.579	14400
867.71	14294
867.841	14263
867.972	14461
868.103	14385
868.233	14446
868.364	14347
868.495	14522
868.625	14674
868.756	14651
868.886	14625
869.017	14598
869.147	14655
869.278	14781
869.408	14705
869.539	14697
869.669	14727
869.799	14686
869.929	14773
870.06	14716
870.19	14948
870.32	14952
870.45	15005
870.58	15009
870.71	15085
870.84	15169
870.97	15097
871.1	14982
871.23	15097
871.36	15203
871.489	15211
871.619	15184
871.749	15230
871.879	15237
872.008	15367
872.138	15192
872.267	15203
872.397	15127
872.526	15039
872.656	15074
872.785	15013
872.915	15233
873.044	15264
873.173	15268
873.303	15260
873.432	15382
873.561	15302
873.69	15294
873.819	15298
873.948	15374
874.077	15302
874.206	15298
874.335	15287
874.464	15424
874.593	15507
874.722	15568
874.851	15682
874.979	15686
875.108	15614
875.237	15652
875.365	15481
875.494	15648
875.623	15679
875.751	15599
875.88	15553
876.008	15774
876.136	15861
876.265	15998
876.393	16097
876.521	16059
876.65	16223
876.778	16029
876.906	15937
877.034	15972
877.162	16097
877.29	15960
877.418	15937
877.546	16112
877.674	16002
877.802	16013
877.93	15953
878.058	15960
878.185	15934
878.313	16055
878.441	16101
878.568	15953
878.696	16017
878.824	16101
878.951	16185
879.079	16249
879.206	16329
879.333	16276
879.461	16295
879.588	16246
879.715	16375
879.842	16390
879.97	16158
880.097	16032
880.224	15930
880.351	15888
880.478	15915
880.605	15888
880.732	15854
880.859	16074
880.986	16013
881.112	15876
881.239	15736
881.366	15682
881.493	15572
881.619	15481
881.746	15488
881.872	15542
881.999	15564
882.125	15496
882.252	15610
882.378	15530
882.505	15705
882.631	15504
882.757	15332
882.883	15382
883.01	15336
883.136	15408
883.262	15291
883.388	15169
883.514	15389
883.64	15439
883.766	15291
883.892	15119
884.018	15154
884.143	15313
884.269	15340
884.395	15070
884.52	15028
884.646	15058
884.772	14998
884.897	15009
885.023	15070
885.148	15123
885.274	15230
885.399	15112
885.524	15154
885.65	15066
885.775	15157
885.9	15100
886.025	15089
886.15	14990
886.275	15013
886.4	14929
886.525	15047
886.65	14944
886.775	15055
886.9	15154
887.025	15192
887.149	14956
887.274	14792
887.399	14754
887.523	14773
887.648	14800
887.773	14853
887.897	14956
888.021	14876
888.146	14769
888.27	14963
888.395	15047
888.519	14929
888.643	14914
888.767	14963
888.891	14842
889.015	14693
889.139	14849
889.263	14720
889.387	14891
889.511	14910
889.635	14902
889.759	14659
889.883	14648
890.006	14842
890.13	14811
890.254	14659
890.377	14655
890.501	14511
890.624	14564
890.748	14571
890.871	14438
890.995	14275
891.118	14317
891.241	14366
891.364	14415
891.488	14564
891.611	14366
891.734	14438
891.857	14518
891.98	14377
892.103	14507
892.226	14412
892.349	14442
892.471	14210
892.594	14332
892.717	14488
892.839	14404
892.962	14370
893.085	14514
893.207	14434
893.33	14244
893.452	14328
893.575	14385
893.697	14431
893.819	14587
893.941	14549
894.064	14537
894.186	14412
894.308	14396
894.43	14404
894.552	14625
894.674	14518
894.796	14313
894.918	14469
895.04	14339
895.161	14602
895.283	14507
895.405	14385
895.526	14484
895.648	14465
895.769	14476
895.891	14564
896.012	14731
896.134	14571
896.255	14545
896.376	14499
896.498	14507
896.619	14602
896.74	14503
896.861	14511
896.982	14876
897.103	15055
897.224	14746
897.345	14746
897.466	14686
897.587	14769
897.708	14925
897.828	14807
897.949	14876
898.07	14746
898.19	14689
898.311	14895
898.431	14872
898.552	14880
898.672	14994
898.792	14975
898.913	14937
899.033	14861
899.153	14716
899.273	14697
899.393	14758
899.513	14754
899.633	14735
899.753	14708
899.873	14674
899.993	14701
900.113	14769
900.232	14765
900.352	14651
900.472	14602
900.591	14625
900.711	14640
900.83	14621
900.95	14727
901.069	14655
901.189	14522
901.308	14301
901.427	14290
901.546	14351
901.665	14229
901.784	14320
901.904	14115
902.023	14069
902.141	13928
902.26	13719
902.379	13913
902.498	13742
902.617	13750
902.735	13902
902.854	13864
902.973	13845
903.091	13597
903.21	13480
903.328	13696
903.446	13464
903.565	13419
903.683	13445
903.801	13289
903.919	13411
904.038	13339
904.156	13232
904.274	13343
904.392	13221
904.51	13198
904.627	13152
904.745	13251
904.863	13285
904.981	13004
905.098	12996
905.216	12943
905.334	12890
905.451	12871
905.569	12856
905.686	12939
905.803	12962
905.921	12684
906.038	12795
906.155	12772
906.272	12589
906.389	12536
906.506	12498
906.623	12475
906.74	12471
906.857	12388
906.974	12525
907.091	12559
907.208	12582
907.324	12513
907.441	12410
907.557	12330
907.674	12163
907.79	12190
907.907	12205
908.023	12197
908.139	12289
908.256	12152
908.372	12159
908.488	12148
908.604	12072
908.72	11897
908.836	11988
908.952	12011
909.068	12026
909.184	12091
909.3	11923
909.415	12011
909.531	11923
909.647	11885
909.762	11767
909.878	11794
909.993	11798
910.108	11688
910.224	11741
910.339	11748
910.454	11676
910.57	11634
910.685	11558
910.8	11764
910.915	11707
911.03	11604
911.145	11448
911.259	11543
911.374	11467
911.489	11421
911.604	11356
911.718	11216
911.833	11151
911.947	11094
912.062	11094
912.176	11178
912.291	11124
912.405	11201
912.519	11368
912.633	11436
912.748	11288
912.862	11197
912.976	11045
913.09	10980
913.204	11094
913.318	11056
913.431	11132
913.545	11143
913.659	11193
913.772	11105
913.886	11029
914	10957
914.113	11102
914.226	11052
914.34	10999
914.453	10904
914.566	11128
914.68	10892
914.793	10877
914.906	10736
915.019	10675
915.132	10679
915.245	10691
915.358	10740
915.47	10744
915.583	10729
915.696	10736
915.809	10850
915.921	10866
916.034	10698
916.146	10672
916.259	10611
916.371	10729
916.483	10763
916.595	10626
916.708	10596
916.82	10603
916.932	10656
917.044	10607
917.156	10649
917.268	10512
917.38	10508
917.491	10527
917.603	10542
917.715	10702
917.826	10660
917.938	10580
918.049	10405
918.161	10584
918.272	10584
918.384	10615
918.495	10481
918.606	10352
918.717	10405
918.828	10424
918.939	10417
919.05	10268
919.161	10379
919.272	10181
919.383	10257
919.494	10428
919.604	10649
919.715	10474
919.826	10344
919.936	10352
920.047	10470
920.157	10459
920.267	10626
920.378	10470
920.488	10428
920.598	10603
920.708	10767
920.818	10565
920.928	10611
921.038	10805
921.148	10839
921.258	10405
921.368	10314
921.477	10287
921.587	10257
921.697	10200
921.806	10280
921.916	10177
922.025	9979
922.134	9953
922.244	9922
922.353	10044
922.462	9869
922.571	9774
922.68	9629
922.789	9599
922.898	9580
923.007	9591
923.116	9747
923.224	9732
923.333	9686
923.442	9595
923.55	9523
923.659	9580
923.767	9610
923.876	9481
923.984	9644
924.092	9412
924.201	9500
924.309	9511
924.417	9469
924.525	9424
924.633	9481
924.741	10413
924.849	9245
924.956	9469
925.064	9264
925.172	9165
925.279	9253
925.387	9321
925.494	9336
925.602	9458
925.709	9416
925.816	9241
925.924	9332
926.031	9344
926.138	9313
926.245	9332
926.352	9241
926.459	9401
926.566	9416
926.673	9230
926.779	9214
926.886	9142
926.993	9024
927.099	9005
927.206	8975
927.312	8899
927.419	9020
927.525	8967
927.631	9024
927.737	8956
927.843	8883
927.95	8796
928.056	8868
928.162	8861
928.267	9009
928.373	9557
928.479	9039
928.585	8674
928.69	8880
928.796	8990
928.901	8819
929.007	8727
929.112	8853
929.218	8872
929.323	8762
929.428	8667
929.533	8826
929.638	8648
929.743	8670
929.848	8743
929.953	8701
930.058	8579
930.163	8503
930.267	8503
930.372	8617
930.477	8450
930.581	8708
930.685	8533
930.79	8484
930.894	8492
930.998	8427
931.103	8511
931.207	8221
931.311	8233
931.415	8172
931.519	7921
931.623	7906
