Data from test_V78500241_2106.txt Node
Date: Fri Mar 25 14:48:22 CST 2022
User: usil
Spectrometer: V785-0024
Trigger mode: 0
Integration Time (sec): 4.000000E-1
Scans to average: 1
Nonlinearity correction enabled: false
Boxcar width: 0
Storing dark spectrum: false
XAxis mode: Wavelengths
Number of Pixels in Spectrum: 1024
>>>>>Begin Spectral Data<<<<<
801.071	22090
801.214	21960
801.356	21743
801.499	21637
801.641	21637
801.783	21416
801.926	21618
802.068	21355
802.211	21355
802.353	21321
802.496	21074
802.638	20998
802.78	20975
802.923	20788
803.065	20758
803.208	20785
803.35	20876
803.492	21123
803.635	20899
803.777	20667
803.919	20899
804.061	21146
804.204	20910
804.346	20857
804.488	20648
804.63	20777
804.773	20689
804.915	20678
805.057	20914
805.199	20758
805.341	20796
805.483	20887
805.626	20804
805.768	20701
805.91	20807
806.052	20811
806.194	20632
806.336	20876
806.478	20724
806.62	20686
806.762	20868
806.904	20944
807.046	21199
807.188	21104
807.33	21085
807.472	21138
807.614	20960
807.756	20921
807.898	20853
808.04	20796
808.182	20948
808.324	20701
808.465	20902
808.607	21039
808.749	21184
808.891	21233
809.033	21256
809.174	21241
809.316	21047
809.458	21104
809.6	21055
809.741	21108
809.883	21089
810.025	21332
810.166	21294
810.308	21302
810.45	21123
810.591	21138
810.733	20963
810.875	20845
811.016	20823
811.158	20811
811.299	20857
811.441	20998
811.582	20971
811.724	20845
811.865	20887
812.007	20902
812.148	20899
812.29	20937
812.431	21047
812.573	21184
812.714	21256
812.855	21462
812.997	21481
813.138	21705
813.279	21466
813.421	21325
813.562	21313
813.703	21085
813.845	20963
813.986	20781
814.127	20727
814.268	20499
814.41	20533
814.551	20480
814.692	20473
814.833	20412
814.974	20358
815.115	20480
815.256	20408
815.397	20221
815.539	20290
815.68	20142
815.821	20161
815.962	20115
816.103	20122
816.244	20111
816.385	19928
816.526	19944
816.666	19693
816.807	19601
816.948	19689
817.089	19693
817.23	19582
817.371	19670
817.512	19529
817.653	19540
817.793	19483
817.934	19590
818.075	19563
818.216	19655
818.356	19533
818.497	19384
818.638	19270
818.778	19365
818.919	19251
819.06	19422
819.2	19320
819.341	19434
819.481	19460
819.622	19563
819.762	19601
819.903	19582
820.043	19586
820.184	19594
820.324	19533
820.465	19540
820.605	19445
820.746	19567
820.886	19362
821.026	19476
821.167	19616
821.307	19655
821.447	19499
821.588	19373
821.728	19209
821.868	19171
822.008	18947
822.149	19004
822.289	19027
822.429	18772
822.569	18635
822.709	18726
822.849	18346
822.99	18452
823.13	18460
823.27	18407
823.41	18319
823.55	18186
823.69	18315
823.83	18308
823.97	18243
824.11	18087
824.25	17920
824.389	18091
824.529	18057
824.669	18049
824.809	18057
824.949	18049
825.089	18083
825.228	18007
825.368	17878
825.508	17893
825.648	17878
825.787	17767
825.927	17912
826.067	17821
826.206	17832
826.346	17760
826.485	17748
826.625	17771
826.765	17939
826.904	17824
827.044	17604
827.183	17604
827.323	17471
827.462	17509
827.601	17516
827.741	17474
827.88	17486
828.02	17368
828.159	17547
828.298	17497
828.437	17455
828.577	17425
828.716	17501
828.855	17558
828.994	17455
829.134	17246
829.273	17242
829.412	17159
829.551	17193
829.69	17250
829.829	17193
829.968	17334
830.107	17345
830.246	17273
830.385	17071
830.524	17162
830.663	17102
830.802	16984
830.941	16953
831.08	16877
831.219	16923
831.357	16896
831.496	17189
831.635	16877
831.774	16713
831.913	16767
832.051	16698
832.19	16656
832.329	16721
832.467	16634
832.606	16485
832.744	16565
832.883	16550
833.022	16523
833.16	16538
833.299	16637
833.437	16596
833.576	16542
833.714	16550
833.852	16672
833.991	16710
834.129	16573
834.267	16649
834.406	16622
834.544	16653
834.682	16596
834.821	16691
834.959	16759
835.097	16542
835.235	16725
835.373	16641
835.511	16584
835.65	16519
835.788	16538
835.926	16447
836.064	16261
836.202	16284
836.34	16607
836.478	16554
836.615	16493
836.753	16466
836.891	16607
837.029	16706
837.167	16459
837.305	16390
837.443	16371
837.58	16360
837.718	16409
837.856	16519
837.993	16265
838.131	16462
838.269	16466
838.406	16306
838.544	16291
838.681	16120
838.819	16010
838.956	15983
839.094	15987
839.231	15842
839.369	16074
839.506	16322
839.643	16116
839.781	15941
839.918	15922
840.055	15968
840.193	15983
840.33	15956
840.467	15945
840.604	15918
840.742	16150
840.879	15759
841.016	15823
841.153	15937
841.29	16158
841.427	15926
841.564	16048
841.701	15987
841.838	15934
841.975	15759
842.112	15831
842.249	15861
842.385	15644
842.522	15884
842.659	15739
842.796	15633
842.933	15759
843.069	15736
843.206	15675
843.343	15717
843.479	15781
843.616	15724
843.752	15477
843.889	15500
844.025	15789
844.162	15485
844.298	15553
844.435	15534
844.571	15466
844.708	15591
844.844	15656
844.98	15755
845.117	15637
845.253	15424
845.389	15386
845.525	15481
845.661	15492
845.798	15275
845.934	15424
846.07	15207
846.206	15428
846.342	15428
846.478	15302
846.614	15077
846.75	15058
846.886	15112
847.022	15066
847.158	15032
847.294	15055
847.429	15203
847.565	14960
847.701	15283
847.837	14845
847.972	14838
848.108	14902
848.244	14872
848.379	14705
848.515	14613
848.65	14564
848.786	14659
848.921	14743
849.057	14872
849.192	14872
849.328	14701
849.463	14712
849.598	14716
849.734	14590
849.869	14602
850.004	14404
850.14	14465
850.275	14450
850.41	14492
850.545	14434
850.68	14400
850.815	14514
850.95	14434
851.085	14667
851.22	14602
851.355	14461
851.49	14404
851.625	14438
851.76	14355
851.895	14290
852.03	14385
852.165	14518
852.299	14480
852.434	14492
852.569	14454
852.703	14518
852.838	14495
852.973	14629
853.107	14514
853.242	14434
853.376	14347
853.511	14142
853.645	14286
853.78	14446
853.914	14385
854.048	14320
854.183	14176
854.317	14362
854.451	14446
854.585	14229
854.72	14301
854.854	14412
854.988	14218
855.122	14183
855.256	14157
855.39	14282
855.524	14393
855.658	14343
855.792	14263
855.926	14381
856.06	14415
856.194	14385
856.327	14351
856.461	14282
856.595	14256
856.729	14271
856.862	14415
856.996	14347
857.13	14370
857.263	14381
857.397	14484
857.53	14347
857.664	14423
857.797	14495
857.931	14469
858.064	14400
858.197	14488
858.331	14298
858.464	14317
858.597	14180
858.731	14374
858.864	14374
858.997	14282
859.13	14244
859.263	14404
859.396	14427
859.529	14256
859.662	14199
859.795	14218
859.928	14313
860.061	14480
860.194	14465
860.327	14404
860.46	14320
860.592	14431
860.725	14461
860.858	14427
860.99	14206
861.123	14298
861.256	14278
861.388	14408
861.521	14937
861.653	14191
861.786	14115
861.918	14225
862.05	14244
862.183	14324
862.315	14389
862.447	14355
862.58	14309
862.712	14077
862.844	14100
862.976	14107
863.108	14092
863.24	14507
863.372	14043
863.504	14168
863.636	14084
863.768	14134
863.9	14149
864.032	14073
864.164	14016
864.296	14103
864.428	14168
864.559	14210
864.691	14191
864.823	14214
864.954	14164
865.086	14142
865.217	14100
865.349	14046
865.48	14054
865.612	13993
865.743	14123
865.875	14157
866.006	14020
866.137	14153
866.269	14043
866.4	14065
866.531	14046
866.662	14088
866.793	14081
866.924	14054
867.055	14103
867.186	14050
867.317	14050
867.448	13986
867.579	14096
867.71	13978
867.841	13986
867.972	14161
868.103	13978
868.233	14130
868.364	14103
868.495	14183
868.625	14176
868.756	14503
868.886	14313
869.017	14301
869.147	14431
869.278	14442
869.408	14351
869.539	14305
869.669	14309
869.799	14454
869.929	14499
870.06	14381
870.19	14617
870.32	14640
870.45	14655
870.58	14746
870.71	14762
870.84	14781
870.97	14788
871.1	14640
871.23	14815
871.36	14891
871.489	14815
871.619	14807
871.749	14876
871.879	14899
872.008	15047
872.138	14849
872.267	14925
872.397	14811
872.526	14807
872.656	14708
872.785	14659
872.915	14883
873.044	15028
873.173	14925
873.303	15043
873.432	15055
873.561	15028
873.69	15066
873.819	14979
873.948	14990
874.077	15017
874.206	14975
874.335	15116
874.464	15169
874.593	15329
874.722	15298
874.851	15325
874.979	15393
875.108	15367
875.237	15359
875.365	15157
875.494	15203
875.623	15336
875.751	15245
875.88	15310
876.008	15466
876.136	15500
876.265	15789
876.393	15808
876.521	15694
876.65	15789
876.778	15732
876.906	15747
877.034	15606
877.162	15709
877.29	15549
877.418	15644
877.546	15633
877.674	15736
877.802	15591
877.93	15679
878.058	15732
878.185	15618
878.313	15576
878.441	15713
878.568	15485
878.696	15675
878.824	15812
878.951	15781
879.079	15819
879.206	16032
879.333	15888
879.461	15690
879.588	15880
879.715	16006
879.842	15888
879.97	15808
880.097	15504
880.224	15511
880.351	15644
880.478	15523
880.605	15538
880.732	15637
880.859	15781
880.986	15557
881.112	15603
881.239	15500
881.366	15272
881.493	15192
881.619	15203
881.746	15249
881.872	15211
881.999	15077
882.125	15157
882.252	15283
882.378	15230
882.505	15462
882.631	15135
882.757	15036
882.883	15036
883.01	15017
883.136	15058
883.262	14838
883.388	14857
883.514	15058
883.64	15020
883.766	14979
883.892	14830
884.018	14868
884.143	15009
884.269	15138
884.395	14823
884.52	14651
884.646	14815
884.772	14682
884.897	14667
885.023	14682
885.148	14819
885.274	14880
885.399	14845
885.524	14762
885.65	14792
885.775	14754
885.9	14746
886.025	14842
886.15	14838
886.275	14735
886.4	14682
886.525	14651
886.65	14655
886.775	14670
886.9	14720
887.025	14967
887.149	14739
887.274	14564
887.399	14412
887.523	14469
887.648	14530
887.773	14473
887.897	14712
888.021	14625
888.146	14499
888.27	14621
888.395	14739
888.519	14670
888.643	14465
888.767	14716
888.891	14545
889.015	14412
889.139	14434
889.263	14362
889.387	14613
889.511	14594
889.635	14594
889.759	14355
889.883	14381
890.006	14415
890.13	14575
890.254	14332
890.377	14355
890.501	14218
890.624	14206
890.748	14324
890.871	14172
890.995	14138
891.118	14077
891.241	14191
891.364	14142
891.488	14237
891.611	14138
891.734	14138
891.857	14111
891.98	14168
892.103	14221
892.226	14225
892.349	14020
892.471	13974
892.594	14043
892.717	14088
892.839	14077
892.962	14100
893.085	14138
893.207	14065
893.33	14016
893.452	14043
893.575	14130
893.697	14134
893.819	14332
893.941	14313
894.064	14259
894.186	14077
894.308	14054
894.43	14294
894.552	14404
894.674	14267
894.796	14054
894.918	14214
895.04	14176
895.161	14244
895.283	14214
895.405	14149
895.526	14126
895.648	14240
895.769	14237
895.891	14252
896.012	14377
896.134	14385
896.255	14301
896.376	14233
896.498	14374
896.619	14434
896.74	14244
896.861	14332
896.982	14549
897.103	14826
897.224	14560
897.345	14594
897.466	14419
897.587	14526
897.708	14674
897.828	14518
897.949	14495
898.07	14423
898.19	14488
898.311	14602
898.431	14571
898.552	14746
898.672	14697
898.792	14724
898.913	14670
899.033	14507
899.153	14556
899.273	14431
899.393	14469
899.513	14568
899.633	14514
899.753	14530
899.873	14476
899.993	14514
900.113	14438
900.232	14492
900.352	14454
900.472	14317
900.591	14263
900.711	14377
900.83	14328
900.95	14495
901.069	14526
901.189	14328
901.308	14005
901.427	13974
901.546	14107
901.665	14111
901.784	14008
901.904	13936
902.023	13837
902.141	13685
902.26	13559
902.379	13685
902.498	13620
902.617	13460
902.735	13636
902.854	13636
902.973	13677
903.091	13407
903.21	13293
903.328	13297
903.446	13263
903.565	13160
903.683	13194
903.801	13076
903.919	13110
904.038	13088
904.156	12973
904.274	13027
904.392	12989
904.51	12920
904.627	13004
904.745	13012
904.863	13012
904.981	12856
905.098	12665
905.216	12673
905.334	12779
905.451	12722
905.569	12635
905.686	12760
905.803	12707
905.921	12544
906.038	12635
906.155	12551
906.272	12399
906.389	12410
906.506	12281
906.623	12304
906.74	12235
906.857	12053
906.974	12251
907.091	12338
907.208	12441
907.324	12338
907.441	12159
907.557	12022
907.674	12038
907.79	11999
907.907	12003
908.023	12041
908.139	12083
908.256	11904
908.372	11920
908.488	11977
908.604	11828
908.72	11729
908.836	11764
908.952	11745
909.068	11832
909.184	11920
909.3	11798
909.415	11821
909.531	11783
909.647	11417
909.762	11604
909.878	11459
909.993	11638
910.108	11551
910.224	11505
910.339	11589
910.454	11425
910.57	11421
910.685	11356
910.8	11589
910.915	11490
911.03	11360
911.145	11284
911.259	11269
911.374	11258
911.489	11140
911.604	11124
911.718	11071
911.833	10984
911.947	10911
912.062	10805
912.176	11022
912.291	10965
912.405	11056
912.519	11280
912.633	11212
912.748	11048
912.862	11048
912.976	10896
913.09	10759
913.204	10748
913.318	10843
913.431	10980
913.545	10949
913.659	10965
913.772	10889
913.886	10698
914	10691
914.113	10816
914.226	10877
914.34	10797
914.453	10588
914.566	10866
914.68	10668
914.793	10626
914.906	10561
915.019	10523
915.132	10363
915.245	10443
915.358	10512
915.47	10497
915.583	10565
915.696	10512
915.809	10675
915.921	10721
916.034	10451
916.146	10531
916.259	10421
916.371	10573
916.483	10580
916.595	10402
916.708	10459
916.82	10405
916.932	10421
917.044	10504
917.156	10436
917.268	10371
917.38	10280
917.491	10360
917.603	10348
917.715	10344
917.826	10459
917.938	10402
918.049	10284
918.161	10291
918.272	10489
918.384	10424
918.495	10375
918.606	10230
918.717	10078
918.828	10280
918.939	10265
919.05	10131
919.161	10188
919.272	9972
919.383	10154
919.494	10306
919.604	10394
919.715	10257
919.826	10234
919.936	10177
920.047	10265
920.157	10219
920.267	10424
920.378	10227
920.488	10234
920.598	10303
920.708	10656
920.818	10462
920.928	10356
921.038	10577
921.148	10523
921.258	10276
921.368	10200
921.477	10051
921.587	10006
921.697	10055
921.806	10109
921.916	9956
922.025	9797
922.134	9785
922.244	9785
922.353	9884
922.462	9618
922.571	9667
922.68	9534
922.789	9492
922.898	9511
923.007	9408
923.116	9500
923.224	9450
923.333	9450
923.442	9393
923.55	9428
923.659	9393
923.767	9458
923.876	9401
923.984	9439
924.092	9291
924.201	9363
924.309	9344
924.417	9351
924.525	9268
924.633	9336
924.741	10291
924.849	9100
924.956	9325
925.064	9154
925.172	9070
925.279	9108
925.387	9062
925.494	9176
925.602	9367
925.709	9226
925.816	9131
925.924	9176
926.031	9249
926.138	9142
926.245	9184
926.352	9036
926.459	9173
926.566	9230
926.673	9165
926.779	9062
926.886	9024
926.993	8868
927.099	8895
927.206	8838
927.312	8777
927.419	8929
927.525	8956
927.631	8895
927.737	8807
927.843	8743
927.95	8579
928.056	8727
928.162	8769
928.267	8804
928.373	9389
928.479	8910
928.585	8625
928.69	8746
928.796	8769
928.901	8651
929.007	8564
929.112	8701
929.218	8636
929.323	8583
929.428	8575
929.533	8708
929.638	8454
929.743	8568
929.848	8629
929.953	8590
930.058	8503
930.163	8313
930.267	8377
930.372	8511
930.477	8393
930.581	8617
930.685	8396
930.79	8290
930.894	8271
930.998	8259
931.103	8431
931.207	8081
931.311	8054
931.415	7993
931.519	7814
931.623	7845
