Data from test_V78500241_3548.txt Node
Date: Fri Mar 25 14:58:25 CST 2022
User: usil
Spectrometer: V785-0024
Trigger mode: 0
Integration Time (sec): 4.000000E-1
Scans to average: 1
Nonlinearity correction enabled: false
Boxcar width: 0
Storing dark spectrum: false
XAxis mode: Wavelengths
Number of Pixels in Spectrum: 1024
>>>>>Begin Spectral Data<<<<<
801.071	22006
801.214	21713
801.356	21545
801.499	21557
801.641	21462
801.783	21214
801.926	21386
802.068	21287
802.211	21272
802.353	21081
802.496	20785
802.638	20796
802.78	20777
802.923	20674
803.065	20621
803.208	20583
803.35	20682
803.492	20724
803.635	20667
803.777	20625
803.919	20667
804.061	20910
804.204	20762
804.346	20408
804.488	20442
804.63	20640
804.773	20419
804.915	20514
805.057	20511
805.199	20438
805.341	20556
805.483	20583
805.626	20648
805.768	20526
805.91	20507
806.052	20629
806.194	20427
806.336	20697
806.478	20469
806.62	20488
806.762	20579
806.904	20701
807.046	21020
807.188	20845
807.33	20864
807.472	20891
807.614	20670
807.756	20758
807.898	20659
808.04	20583
808.182	20571
808.324	20629
808.465	20625
808.607	20800
808.749	20826
808.891	20956
809.033	20921
809.174	20853
809.316	20872
809.458	20811
809.6	20864
809.741	20864
809.883	20998
810.025	20979
810.166	21001
810.308	21096
810.45	20921
810.591	20906
810.733	20689
810.875	20629
811.016	20571
811.158	20564
811.299	20693
811.441	20800
811.582	20777
811.724	20613
811.865	20533
812.007	20526
812.148	20606
812.29	20598
812.431	20739
812.573	20899
812.714	20990
812.855	21237
812.997	21180
813.138	21321
813.279	21245
813.421	21146
813.562	20975
813.703	20963
813.845	20720
813.986	20473
814.127	20355
814.268	20374
814.41	20244
814.551	20221
814.692	20164
814.833	20050
814.974	20016
815.115	20122
815.256	19963
815.397	20039
815.539	19997
815.68	20005
815.821	19814
815.962	20008
816.103	19803
816.244	19742
816.385	19685
816.526	19571
816.666	19460
816.807	19202
816.948	19373
817.089	19354
817.23	19362
817.371	19316
817.512	19304
817.653	19324
817.793	19145
817.934	19247
818.075	19312
818.216	19213
818.356	19403
818.497	19168
818.638	18954
818.778	18970
818.919	19008
819.06	19114
819.2	19046
819.341	19244
819.481	19206
819.622	19297
819.762	19597
819.903	19403
820.043	19304
820.184	19316
820.324	19312
820.465	19384
820.605	19270
820.746	19282
820.886	19164
821.026	19282
821.167	19129
821.307	19270
821.447	19278
821.588	19050
821.728	18951
821.868	18867
822.008	18768
822.149	18681
822.289	18604
822.429	18369
822.569	18308
822.709	18315
822.849	18216
822.99	18186
823.13	18129
823.27	18060
823.41	18007
823.55	17923
823.69	17950
823.83	17920
823.97	17935
824.11	17699
824.25	17722
824.389	17767
824.529	17813
824.669	17718
824.809	17901
824.949	17794
825.089	17855
825.228	17828
825.368	17596
825.508	17532
825.648	17649
825.787	17646
825.927	17722
826.067	17444
826.206	17600
826.346	17604
826.485	17558
826.625	17421
826.765	17672
826.904	17543
827.044	17376
827.183	17318
827.323	17170
827.462	17269
827.601	17383
827.741	17269
827.88	17185
828.02	17048
828.159	17181
828.298	17337
828.437	17345
828.577	17250
828.716	17326
828.855	17235
828.994	16995
829.134	17098
829.273	17014
829.412	16968
829.551	16965
829.69	17006
829.829	16995
829.968	17166
830.107	17048
830.246	17003
830.385	16927
830.524	16847
830.663	16831
830.802	16778
830.941	16702
831.08	16538
831.219	16645
831.357	16740
831.496	16767
831.635	16675
831.774	16535
831.913	16603
832.051	16451
832.19	16382
832.329	16382
832.467	16390
832.606	16211
832.744	16295
832.883	16363
833.022	16341
833.16	16356
833.299	16299
833.437	16344
833.576	16348
833.714	16371
833.852	16344
833.991	16352
834.129	16280
834.267	16443
834.406	16413
834.544	16447
834.682	16455
834.821	16367
834.959	16569
835.097	16394
835.235	16569
835.373	16421
835.511	16405
835.65	16322
835.788	16215
835.926	16036
836.064	16219
836.202	16025
836.34	16363
836.478	16375
836.615	16348
836.753	16337
836.891	16466
837.029	16318
837.167	16169
837.305	16226
837.443	16253
837.58	16234
837.718	16295
837.856	16131
837.993	16166
838.131	16249
838.269	16143
838.406	16139
838.544	16067
838.681	15930
838.819	15846
838.956	15755
839.094	15755
839.231	15804
839.369	15850
839.506	16090
839.643	15911
839.781	15778
839.918	15603
840.055	15747
840.193	15667
840.33	15713
840.467	15751
840.604	15686
840.742	15835
840.879	15564
841.016	15682
841.153	15713
841.29	15857
841.427	15713
841.564	15861
841.701	15755
841.838	15778
841.975	15629
842.112	15713
842.249	15561
842.385	15542
842.522	15705
842.659	15496
842.796	15485
842.933	15595
843.069	15485
843.206	15450
843.343	15534
843.479	15481
843.616	15488
843.752	15355
843.889	15397
844.025	15466
844.162	15222
844.298	15416
844.435	15340
844.571	15264
844.708	15321
844.844	15435
844.98	15435
845.117	15382
845.253	15203
845.389	15230
845.525	15165
845.661	15123
845.798	15081
845.934	15055
846.07	15058
846.206	15188
846.342	15165
846.478	15154
846.614	14902
846.75	14769
846.886	14845
847.022	14868
847.158	14906
847.294	14880
847.429	14868
847.565	14807
847.701	15058
847.837	14651
847.972	14571
848.108	14686
848.244	14678
848.379	14545
848.515	14366
848.65	14488
848.786	14450
848.921	14503
849.057	14594
849.192	14560
849.328	14423
849.463	14507
849.598	14434
849.734	14336
849.869	14377
850.004	14290
850.14	14290
850.275	14301
850.41	14191
850.545	14130
850.68	14180
850.815	14164
850.95	14252
851.085	14438
851.22	14419
851.355	14267
851.49	14225
851.625	14176
851.76	14195
851.895	14100
852.03	14081
852.165	14286
852.299	14328
852.434	14324
852.569	14248
852.703	14263
852.838	14328
852.973	14454
853.107	14438
853.242	14202
853.376	14111
853.511	14050
853.645	14180
853.78	14225
853.914	14119
854.048	14157
854.183	14126
854.317	14123
854.451	14339
854.585	14088
854.72	14111
854.854	14172
854.988	14031
855.122	13955
855.256	13868
855.39	14107
855.524	14259
855.658	14176
855.792	14161
855.926	14206
856.06	14210
856.194	14202
856.327	14142
856.461	14035
856.595	14103
856.729	14069
856.862	14210
856.996	14096
857.13	14218
857.263	14286
857.397	14256
857.53	14058
857.664	14199
857.797	14233
857.931	14153
858.064	14221
858.197	14202
858.331	14126
858.464	14020
858.597	13978
858.731	14138
858.864	14115
858.997	14126
859.13	14039
859.263	14168
859.396	14134
859.529	14115
859.662	14027
859.795	14103
859.928	14115
860.061	14324
860.194	14282
860.327	14142
860.46	14111
860.592	14180
860.725	14187
860.858	14252
860.99	14123
861.123	14065
861.256	13967
861.388	14115
861.521	14967
861.653	13997
861.786	13944
861.918	13978
862.05	13986
862.183	13978
862.315	14187
862.447	14062
862.58	14073
862.712	13940
862.844	13864
862.976	13963
863.108	13913
863.24	14206
863.372	13803
863.504	13887
863.636	13803
863.768	14020
863.9	13837
864.032	13822
864.164	13871
864.296	13997
864.428	14050
864.559	14016
864.691	13944
864.823	13947
864.954	13967
865.086	13864
865.217	13875
865.349	13803
865.48	13826
865.612	13917
865.743	14031
865.875	13940
866.006	13864
866.137	13860
866.269	13845
866.4	13826
866.531	13814
866.662	13807
866.793	13791
866.924	13833
867.055	13909
867.186	13887
867.317	13833
867.448	13772
867.579	13868
867.71	13765
867.841	13856
867.972	13898
868.103	13906
868.233	13883
868.364	13833
868.495	13944
868.625	14145
868.756	14195
868.886	13963
869.017	14142
869.147	14237
869.278	14263
869.408	14187
869.539	14084
869.669	14229
869.799	14092
869.929	14218
870.06	14282
870.19	14537
870.32	14358
870.45	14522
870.58	14511
870.71	14674
870.84	14629
870.97	14499
871.1	14511
871.23	14655
871.36	14735
871.489	14629
871.619	14651
871.749	14750
871.879	14727
872.008	14842
872.138	14777
872.267	14697
872.397	14724
872.526	14579
872.656	14587
872.785	14579
872.915	14758
873.044	14788
873.173	14727
873.303	14823
873.432	14807
873.561	14880
873.69	14868
873.819	14739
873.948	14899
874.077	14693
874.206	14830
874.335	14750
874.464	14967
874.593	15089
874.722	15036
874.851	15157
874.979	15089
875.108	15165
875.237	15043
875.365	15062
875.494	15161
875.623	15195
875.751	15077
875.88	15146
876.008	15245
876.136	15329
876.265	15507
876.393	15629
876.521	15538
876.65	15663
876.778	15595
876.906	15401
877.034	15401
877.162	15511
877.29	15454
877.418	15542
877.546	15481
877.674	15523
877.802	15549
877.93	15580
878.058	15473
878.185	15355
878.313	15469
878.441	15572
878.568	15382
878.696	15549
878.824	15542
878.951	15656
879.079	15629
879.206	15823
879.333	15637
879.461	15595
879.588	15568
879.715	15660
879.842	15808
879.97	15557
880.097	15340
880.224	15306
880.351	15496
880.478	15431
880.605	15386
880.732	15370
880.859	15542
880.986	15424
881.112	15435
881.239	15389
881.366	15180
881.493	15032
881.619	14967
881.746	15039
881.872	15032
881.999	15051
882.125	14918
882.252	15047
882.378	15131
882.505	15146
882.631	15028
882.757	14910
882.883	14849
883.01	14819
883.136	14902
883.262	14765
883.388	14708
883.514	14838
883.64	14986
883.766	14743
883.892	14693
884.018	14724
884.143	14891
884.269	14956
884.395	14602
884.52	14503
884.646	14678
884.772	14499
884.897	14454
885.023	14518
885.148	14670
885.274	14663
885.399	14613
885.524	14560
885.65	14579
885.775	14621
885.9	14488
886.025	14606
886.15	14621
886.275	14514
886.4	14427
886.525	14537
886.65	14495
886.775	14514
886.9	14613
887.025	14777
887.149	14503
887.274	14320
887.399	14347
887.523	14385
887.648	14263
887.773	14278
887.897	14385
888.021	14446
888.146	14343
888.27	14488
888.395	14533
888.519	14347
888.643	14457
888.767	14400
888.891	14294
889.015	14237
889.139	14332
889.263	14271
889.387	14438
889.511	14461
889.635	14412
889.759	14282
889.883	14347
890.006	14271
890.13	14362
890.254	14157
890.377	14263
890.501	14031
890.624	14046
890.748	14134
890.871	13989
890.995	13852
891.118	13932
891.241	13909
891.364	14077
891.488	14084
891.611	13989
891.734	13978
891.857	14123
891.98	13974
892.103	14077
892.226	13959
892.349	13970
892.471	13845
892.594	13890
892.717	14046
892.839	13902
892.962	13963
893.085	13970
893.207	13864
893.33	13890
893.452	13913
893.575	14069
893.697	13898
893.819	14157
893.941	14233
894.064	14115
894.186	13925
894.308	13947
894.43	14069
894.552	14157
894.674	14130
894.796	13887
894.918	14065
895.04	13967
895.161	14077
895.283	14027
895.405	14039
895.526	14027
895.648	14088
895.769	14115
895.891	14172
896.012	14187
896.134	14237
896.255	14145
896.376	14008
896.498	14183
896.619	14191
896.74	14161
896.861	14199
896.982	14488
897.103	14644
897.224	14484
897.345	14427
897.466	14336
897.587	14393
897.708	14476
897.828	14461
897.949	14393
898.07	14252
898.19	14298
898.311	14564
898.431	14446
898.552	14431
898.672	14514
898.792	14480
898.913	14469
899.033	14473
899.153	14389
899.273	14298
899.393	14328
899.513	14305
899.633	14278
899.753	14336
899.873	14324
899.993	14412
900.113	14275
900.232	14290
900.352	14328
900.472	14298
900.591	14157
900.711	14225
900.83	14149
900.95	14271
901.069	14396
901.189	14161
901.308	13978
901.427	13868
901.546	13890
901.665	13928
901.784	13928
901.904	13689
902.023	13655
902.141	13567
902.26	13449
902.379	13495
902.498	13521
902.617	13430
902.735	13468
902.854	13381
902.973	13403
903.091	13225
903.21	13190
903.328	13206
903.446	13042
903.565	12966
903.683	12966
903.801	12951
903.919	13042
904.038	12943
904.156	12814
904.274	13069
904.392	12848
904.51	12814
904.627	12817
904.745	12867
904.863	12932
904.981	12665
905.098	12559
905.216	12547
905.334	12601
905.451	12544
905.569	12578
905.686	12563
905.803	12608
905.921	12384
906.038	12456
906.155	12300
906.272	12281
906.389	12262
906.506	12144
906.623	12129
906.74	12114
906.857	11992
906.974	11961
907.091	12155
907.208	12258
907.324	12136
907.441	12053
907.557	11912
907.674	11923
907.79	11912
907.907	11809
908.023	11889
908.139	11889
908.256	11824
908.372	11836
908.488	11695
908.604	11657
908.72	11688
908.836	11668
908.952	11699
909.068	11596
909.184	11726
909.3	11585
909.415	11649
909.531	11649
909.647	11414
909.762	11425
909.878	11387
909.993	11391
910.108	11368
910.224	11440
910.339	11364
910.454	11284
910.57	11284
910.685	11185
910.8	11440
910.915	11364
911.03	11227
911.145	11045
911.259	11064
911.374	11136
911.489	10965
911.604	10885
911.718	10896
911.833	10930
911.947	10702
912.062	10702
912.176	10847
912.291	10839
912.405	10862
912.519	11090
912.633	11105
912.748	10995
912.862	10869
912.976	10835
913.09	10634
913.204	10729
913.318	10793
913.431	10752
913.545	10858
913.659	10877
913.772	10725
913.886	10603
914	10626
914.113	10706
914.226	10793
914.34	10790
914.453	10516
914.566	10687
914.68	10618
914.793	10596
914.906	10356
915.019	10348
915.132	10360
915.245	10398
915.358	10405
915.47	10436
915.583	10402
915.696	10417
915.809	10497
915.921	10519
916.034	10341
916.146	10276
916.259	10272
916.371	10481
916.483	10398
916.595	10287
916.708	10337
916.82	10333
916.932	10261
917.044	10299
917.156	10188
917.268	10169
917.38	10246
917.491	10238
917.603	10173
917.715	10318
917.826	10375
917.938	10188
918.049	10150
918.161	10234
918.272	10318
918.384	10318
918.495	10135
918.606	10059
918.717	10021
918.828	10063
918.939	10112
919.05	9968
919.161	10120
919.272	9838
919.383	10017
919.494	10196
919.604	10337
919.715	10105
919.826	9987
919.936	10071
920.047	10196
920.157	10071
920.267	10352
920.378	10112
920.488	10101
920.598	10306
920.708	10462
920.818	10318
920.928	10299
921.038	10405
921.148	10523
921.258	10200
921.368	10158
921.477	10021
921.587	9972
921.697	9903
921.806	10040
921.916	9869
922.025	9747
922.134	9724
922.244	9679
922.353	9667
922.462	9530
922.571	9488
922.68	9435
922.789	9386
922.898	9382
923.007	9325
923.116	9428
923.224	9344
923.333	9329
923.442	9359
923.55	9249
923.659	9275
923.767	9321
923.876	9241
923.984	9279
924.092	9195
924.201	9218
924.309	9306
924.417	9260
924.525	9173
924.633	9272
924.741	9892
924.849	9009
924.956	9230
925.064	9081
925.172	8929
925.279	9055
925.387	9093
925.494	9066
925.602	9218
925.709	9230
925.816	9032
925.924	9097
926.031	9154
926.138	9119
926.245	9161
926.352	9024
926.459	9131
926.566	9237
926.673	8979
926.779	8941
926.886	8849
926.993	8788
927.099	8785
927.206	8823
927.312	8689
927.419	8845
927.525	8739
927.631	8876
927.737	8693
927.843	8674
927.95	8579
928.056	8720
928.162	8727
928.267	8777
928.373	9321
928.479	8731
928.585	8583
928.69	8674
928.796	8697
928.901	8560
929.007	8446
929.112	8625
929.218	8499
929.323	8552
929.428	8526
929.533	8689
929.638	8434
929.743	8465
929.848	8518
929.953	8492
930.058	8412
930.163	8221
930.267	8301
930.372	8427
930.477	8263
930.581	8549
930.685	8332
930.79	8256
930.894	8275
930.998	8240
931.103	8385
931.207	8012
931.311	7936
931.415	7906
931.519	7708
931.623	7738
