Data from test_V78500241_3102.txt Node
Date: Fri Mar 25 14:55:18 CST 2022
User: usil
Spectrometer: V785-0024
Trigger mode: 0
Integration Time (sec): 4.000000E-1
Scans to average: 1
Nonlinearity correction enabled: false
Boxcar width: 0
Storing dark spectrum: false
XAxis mode: Wavelengths
Number of Pixels in Spectrum: 1024
>>>>>Begin Spectral Data<<<<<
801.071	21949
801.214	21926
801.356	21671
801.499	21606
801.641	21439
801.783	21378
801.926	21443
802.068	21306
802.211	21294
802.353	21260
802.496	21055
802.638	20880
802.78	20963
802.923	20705
803.065	20648
803.208	20682
803.35	20667
803.492	20792
803.635	20990
803.777	20800
803.919	20842
804.061	21154
804.204	20811
804.346	20708
804.488	20560
804.63	20705
804.773	20644
804.915	20720
805.057	20800
805.199	20697
805.341	20632
805.483	20838
805.626	20819
805.768	20625
805.91	20629
806.052	20705
806.194	20526
806.336	20876
806.478	20724
806.62	20632
806.762	20716
806.904	20895
807.046	21085
807.188	20937
807.33	20948
807.472	21085
807.614	20998
807.756	21077
807.898	20800
808.04	20602
808.182	20636
808.324	20857
808.465	20609
808.607	20986
808.749	20967
808.891	21173
809.033	21184
809.174	21245
809.316	21039
809.458	21100
809.6	21055
809.741	21058
809.883	21100
810.025	21260
810.166	21222
810.308	21264
810.45	21256
810.591	21017
810.733	20937
810.875	20811
811.016	20739
811.158	20678
811.299	20937
811.441	20880
811.582	20956
811.724	20746
811.865	20773
812.007	20918
812.148	20819
812.29	20868
812.431	20994
812.573	21100
812.714	21256
812.855	21195
812.997	21378
813.138	21622
813.279	21538
813.421	21428
813.562	21131
813.703	21104
813.845	20899
813.986	20644
814.127	20492
814.268	20393
814.41	20374
814.551	20336
814.692	20393
814.833	20263
814.974	20294
815.115	20328
815.256	20233
815.397	20336
815.539	20195
815.68	20027
815.821	19974
815.962	20218
816.103	20122
816.244	19921
816.385	19864
816.526	19753
816.666	19765
816.807	19540
816.948	19582
817.089	19712
817.23	19487
817.371	19502
817.512	19445
817.653	19415
817.793	19464
817.934	19510
818.075	19453
818.216	19400
818.356	19407
818.497	19316
818.638	19206
818.778	19137
818.919	19133
819.06	19145
819.2	19400
819.341	19392
819.481	19285
819.622	19552
819.762	19674
819.903	19556
820.043	19525
820.184	19426
820.324	19529
820.465	19415
820.605	19476
820.746	19343
820.886	19369
821.026	19518
821.167	19487
821.307	19369
821.447	19274
821.588	19346
821.728	19080
821.868	19057
822.008	18817
822.149	18924
822.289	18776
822.429	18547
822.569	18502
822.709	18483
822.849	18300
822.99	18361
823.13	18346
823.27	18308
823.41	18102
823.55	18102
823.69	18125
823.83	18213
823.97	18079
824.11	17946
824.25	17904
824.389	17984
824.529	18003
824.669	18003
824.809	18019
824.949	17958
825.089	17851
825.228	17973
825.368	17901
825.508	17756
825.648	17722
825.787	17653
825.927	17718
826.067	17733
826.206	17737
826.346	17573
826.485	17707
826.625	17653
826.765	17836
826.904	17783
827.044	17528
827.183	17406
827.323	17349
827.462	17417
827.601	17414
827.741	17387
827.88	17395
828.02	17292
828.159	17326
828.298	17368
828.437	17497
828.577	17349
828.716	17429
828.855	17296
828.994	17185
829.134	17128
829.273	17212
829.412	17094
829.551	17041
829.69	17155
829.829	17143
829.968	17178
830.107	17197
830.246	17132
830.385	17159
830.524	17014
830.663	16904
830.802	16942
830.941	16805
831.08	16752
831.219	16835
831.357	16877
831.496	16938
831.635	16717
831.774	16615
831.913	16736
832.051	16535
832.19	16565
832.329	16584
832.467	16497
832.606	16478
832.744	16363
832.883	16375
833.022	16432
833.16	16447
833.299	16447
833.437	16485
833.576	16512
833.714	16485
833.852	16462
833.991	16584
834.129	16519
834.267	16531
834.406	16516
834.544	16546
834.682	16535
834.821	16424
834.959	16672
835.097	16405
835.235	16565
835.373	16470
835.511	16603
835.65	16432
835.788	16402
835.926	16158
836.064	16310
836.202	16226
836.34	16379
836.478	16500
836.615	16230
836.753	16402
836.891	16447
837.029	16451
837.167	16276
837.305	16314
837.443	16287
837.58	16181
837.718	16265
837.856	16295
837.993	16147
838.131	16166
838.269	16071
838.406	16238
838.544	16143
838.681	16086
838.819	15964
838.956	15861
839.094	15759
839.231	15941
839.369	15869
839.506	16177
839.643	16021
839.781	15778
839.918	15770
840.055	15895
840.193	15770
840.33	15755
840.467	15762
840.604	15778
840.742	15983
840.879	15690
841.016	15770
841.153	15690
841.29	15987
841.427	15812
841.564	15751
841.701	15835
841.838	15808
841.975	15774
842.112	15800
842.249	15675
842.385	15420
842.522	15713
842.659	15553
842.796	15469
842.933	15610
843.069	15424
843.206	15488
843.343	15576
843.479	15507
843.616	15660
843.752	15325
843.889	15378
844.025	15519
844.162	15195
844.298	15424
844.435	15283
844.571	15245
844.708	15447
844.844	15557
844.98	15515
845.117	15428
845.253	15306
845.389	15275
845.525	15336
845.661	15211
845.798	15154
845.934	15245
846.07	15062
846.206	15211
846.342	15275
846.478	15131
846.614	14979
846.75	14880
846.886	14819
847.022	15017
847.158	15024
847.294	15013
847.429	14902
847.565	15013
847.701	15165
847.837	14746
847.972	14644
848.108	14758
848.244	14708
848.379	14617
848.515	14552
848.65	14488
848.786	14522
848.921	14560
849.057	14693
849.192	14651
849.328	14575
849.463	14613
849.598	14408
849.734	14358
849.869	14412
850.004	14271
850.14	14301
850.275	14301
850.41	14149
850.545	14301
850.68	14286
850.815	14412
850.95	14324
851.085	14427
851.22	14450
851.355	14385
851.49	14278
851.625	14229
851.76	14195
851.895	14218
852.03	14164
852.165	14248
852.299	14358
852.434	14381
852.569	14320
852.703	14377
852.838	14423
852.973	14396
853.107	14457
853.242	14282
853.376	14225
853.511	14043
853.645	14107
853.78	14237
853.914	14218
854.048	14199
854.183	14008
854.317	14164
854.451	14278
854.585	14073
854.72	14119
854.854	14210
854.988	13997
855.122	14161
855.256	13993
855.39	14123
855.524	14244
855.658	14218
855.792	14240
855.926	14286
856.06	14225
856.194	14271
856.327	14233
856.461	14138
856.595	14103
856.729	14103
856.862	14225
856.996	14145
857.13	14336
857.263	14313
857.397	14214
857.53	14218
857.664	14225
857.797	14202
857.931	14347
858.064	14210
858.197	14282
858.331	14153
858.464	14069
858.597	14073
858.731	14168
858.864	14138
858.997	14035
859.13	14199
859.263	14282
859.396	14221
859.529	14176
859.662	14157
859.795	14100
859.928	14164
860.061	14267
860.194	14320
860.327	14263
860.46	14153
860.592	14271
860.725	14317
860.858	14339
860.99	14138
861.123	14134
861.256	14134
861.388	14176
861.521	14838
861.653	14050
861.786	14088
861.918	13932
862.05	14126
862.183	14195
862.315	14187
862.447	14183
862.58	14138
862.712	14005
862.844	13852
862.976	14054
863.108	13978
863.24	14271
863.372	13898
863.504	13921
863.636	13947
863.768	14001
863.9	13940
864.032	13906
864.164	13947
864.296	13982
864.428	14084
864.559	14046
864.691	13997
864.823	14062
864.954	14008
865.086	13947
865.217	13982
865.349	13750
865.48	14024
865.612	13928
865.743	14069
865.875	13883
866.006	13879
866.137	13982
866.269	13921
866.4	13852
866.531	13833
866.662	13909
866.793	13936
866.924	13784
867.055	13944
867.186	14008
867.317	13826
867.448	13833
867.579	13883
867.71	13913
867.841	13860
867.972	13940
868.103	13898
868.233	13875
868.364	13913
868.495	13928
868.625	14172
868.756	14282
868.886	14035
869.017	14138
869.147	14290
869.278	14240
869.408	14157
869.539	14119
869.669	14256
869.799	14332
869.929	14263
870.06	14294
870.19	14503
870.32	14377
870.45	14545
870.58	14617
870.71	14724
870.84	14735
870.97	14701
871.1	14541
871.23	14811
871.36	14754
871.489	14651
871.619	14868
871.749	14811
871.879	14804
872.008	14819
872.138	14792
872.267	14689
872.397	14610
872.526	14629
872.656	14537
872.785	14689
872.915	14792
873.044	14849
873.173	14731
873.303	14842
873.432	14906
873.561	14929
873.69	14819
873.819	14937
873.948	14944
874.077	14876
874.206	14807
874.335	14956
874.464	14956
874.593	15055
874.722	15039
874.851	15138
874.979	15180
875.108	15192
875.237	15081
875.365	15100
875.494	15097
875.623	15142
875.751	15093
875.88	15188
876.008	15256
876.136	15424
876.265	15603
876.393	15656
876.521	15526
876.65	15526
876.778	15629
876.906	15561
877.034	15526
877.162	15568
877.29	15519
877.418	15481
877.546	15530
877.674	15523
877.802	15545
877.93	15488
878.058	15473
878.185	15443
878.313	15591
878.441	15469
878.568	15397
878.696	15580
878.824	15488
878.951	15694
879.079	15713
879.206	15869
879.333	15774
879.461	15572
879.588	15686
879.715	15816
879.842	15808
879.97	15652
880.097	15382
880.224	15420
880.351	15523
880.478	15435
880.605	15462
880.732	15435
880.859	15648
880.986	15477
881.112	15401
881.239	15340
881.366	15150
881.493	15150
881.619	14982
881.746	15176
881.872	15047
881.999	15001
882.125	15104
882.252	15089
882.378	15180
882.505	15146
882.631	14906
882.757	14899
882.883	15001
883.01	14891
883.136	14902
883.262	14705
883.388	14773
883.514	14921
883.64	14960
883.766	14906
883.892	14655
884.018	14686
884.143	14857
884.269	14960
884.395	14754
884.52	14484
884.646	14598
884.772	14488
884.897	14549
885.023	14594
885.148	14651
885.274	14762
885.399	14705
885.524	14568
885.65	14625
885.775	14644
885.9	14590
886.025	14594
886.15	14674
886.275	14518
886.4	14575
886.525	14655
886.65	14484
886.775	14552
886.9	14735
887.025	14883
887.149	14644
887.274	14339
887.399	14366
887.523	14370
887.648	14396
887.773	14305
887.897	14461
888.021	14522
888.146	14427
888.27	14503
888.395	14507
888.519	14518
888.643	14492
888.767	14518
888.891	14282
889.015	14343
889.139	14412
889.263	14240
889.387	14381
889.511	14488
889.635	14320
889.759	14183
889.883	14278
890.006	14385
890.13	14290
890.254	14313
890.377	14252
890.501	14035
890.624	14058
890.748	14111
890.871	14012
890.995	13989
891.118	13875
891.241	14069
891.364	14016
891.488	14088
891.611	13997
891.734	13955
891.857	14107
891.98	13940
892.103	14084
892.226	13936
892.349	13959
892.471	13795
892.594	13963
892.717	14050
892.839	13997
892.962	13997
893.085	13967
893.207	14069
893.33	13826
893.452	14012
893.575	14046
893.697	13978
893.819	14202
893.941	14206
894.064	14191
894.186	14005
894.308	13982
894.43	14134
894.552	14328
894.674	14092
894.796	13921
894.918	13978
895.04	14024
895.161	14149
895.283	14199
895.405	13963
895.526	14134
895.648	14199
895.769	14142
895.891	14119
896.012	14149
896.134	14145
896.255	14176
896.376	14183
896.498	14134
896.619	14218
896.74	14111
896.861	14240
896.982	14617
897.103	14689
897.224	14476
897.345	14404
897.466	14370
897.587	14427
897.708	14629
897.828	14434
897.949	14396
898.07	14320
898.19	14454
898.311	14587
898.431	14389
898.552	14484
898.672	14629
898.792	14556
898.913	14590
899.033	14473
899.153	14419
899.273	14275
899.393	14355
899.513	14526
899.633	14320
899.753	14351
899.873	14328
899.993	14469
900.113	14408
900.232	14427
900.352	14412
900.472	14317
900.591	14168
900.711	14305
900.83	14225
900.95	14271
901.069	14374
901.189	14210
901.308	14031
901.427	13860
901.546	13906
901.665	13997
901.784	13902
901.904	13849
902.023	13700
902.141	13563
902.26	13552
902.379	13559
902.498	13468
902.617	13521
902.735	13552
902.854	13548
902.973	13480
903.091	13282
903.21	13183
903.328	13278
903.446	13160
903.565	13126
903.683	13050
903.801	12966
903.919	13065
904.038	13031
904.156	12875
904.274	12905
904.392	12829
904.51	12867
904.627	12837
904.745	12901
904.863	12848
904.981	12646
905.098	12532
905.216	12612
905.334	12597
905.451	12578
905.569	12536
905.686	12631
905.803	12589
905.921	12437
906.038	12471
906.155	12437
906.272	12224
906.389	12315
906.506	12098
906.623	12220
906.74	12148
906.857	12022
906.974	12034
907.091	12136
907.208	12220
907.324	12232
907.441	12045
907.557	11866
907.674	11866
907.79	11912
907.907	11965
908.023	11946
908.139	11847
908.256	11908
908.372	11805
908.488	11817
908.604	11699
908.72	11585
908.836	11676
908.952	11638
909.068	11642
909.184	11786
909.3	11657
909.415	11737
909.531	11665
909.647	11486
909.762	11414
909.878	11448
909.993	11493
910.108	11433
910.224	11429
910.339	11383
910.454	11345
910.57	11318
910.685	11181
910.8	11573
910.915	11482
911.03	11288
911.145	11102
911.259	11109
911.374	11181
911.489	11132
911.604	10984
911.718	10923
911.833	10885
911.947	10809
912.062	10698
912.176	10896
912.291	10930
912.405	10854
912.519	11113
912.633	11041
912.748	10938
912.862	10953
912.976	10767
913.09	10805
913.204	10649
913.318	10771
913.431	10873
913.545	10858
913.659	10987
913.772	10828
913.886	10706
914	10645
914.113	10664
914.226	10805
914.34	10740
914.453	10561
914.566	10801
914.68	10584
914.793	10550
914.906	10497
915.019	10390
915.132	10329
915.245	10413
915.358	10436
915.47	10344
915.583	10371
915.696	10428
915.809	10580
915.921	10668
916.034	10424
916.146	10344
916.259	10352
916.371	10443
916.483	10440
916.595	10375
916.708	10318
916.82	10371
916.932	10440
917.044	10352
917.156	10306
917.268	10261
917.38	10211
917.491	10219
917.603	10352
917.715	10352
917.826	10356
917.938	10173
918.049	10158
918.161	10291
918.272	10322
918.384	10424
918.495	10303
918.606	10158
918.717	10040
918.828	10135
918.939	10234
919.05	10017
919.161	10040
919.272	9949
919.383	9983
919.494	10207
919.604	10295
919.715	10109
919.826	10040
919.936	10105
920.047	10181
920.157	10101
920.267	10303
920.378	10177
920.488	10082
920.598	10409
920.708	10451
920.818	10360
920.928	10333
921.038	10481
921.148	10481
921.258	10230
921.368	10067
921.477	10002
921.587	9956
921.697	9846
921.806	10074
921.916	9930
922.025	9740
922.134	9717
922.244	9618
922.353	9797
922.462	9694
922.571	9591
922.68	9405
922.789	9454
922.898	9454
923.007	9317
923.116	9439
923.224	9378
923.333	9450
923.442	9298
923.55	9226
923.659	9272
923.767	9317
923.876	9245
923.984	9401
924.092	9192
924.201	9298
924.309	9260
924.417	9230
924.525	9264
924.633	9294
924.741	10093
924.849	9074
924.956	9165
925.064	9009
925.172	8952
925.279	9055
925.387	9093
925.494	9097
925.602	9108
925.709	9218
925.816	9131
925.924	9150
926.031	9119
926.138	8998
926.245	9077
926.352	9005
926.459	9089
926.566	9188
926.673	8986
926.779	8963
926.886	8830
926.993	8792
927.099	8792
927.206	8735
927.312	8724
927.419	8815
927.525	8800
927.631	8754
927.737	8735
927.843	8640
927.95	8617
928.056	8655
928.162	8735
928.267	8773
928.373	9283
928.479	8777
928.585	8568
928.69	8667
928.796	8682
928.901	8560
929.007	8457
929.112	8617
929.218	8575
929.323	8511
929.428	8499
929.533	8632
929.638	8469
929.743	8427
929.848	8560
929.953	8541
930.058	8362
930.163	8339
930.267	8233
930.372	8328
930.477	8248
930.581	8473
930.685	8317
930.79	8145
930.894	8248
930.998	8263
931.103	8347
931.207	7963
931.311	7970
931.415	7894
931.519	7750
931.623	7689
