Data from test_V78500241_158.txt Node
Date: Fri Mar 25 14:34:49 CST 2022
User: usil
Spectrometer: V785-0024
Trigger mode: 0
Integration Time (sec): 4.000000E-1
Scans to average: 1
Nonlinearity correction enabled: false
Boxcar width: 0
Storing dark spectrum: false
XAxis mode: Wavelengths
Number of Pixels in Spectrum: 1024
>>>>>Begin Spectral Data<<<<<
801.071	29345
801.214	29341
801.356	29037
801.499	28995
801.641	28854
801.783	28649
801.926	28873
802.068	28736
802.211	28626
802.353	28694
802.496	28459
802.638	28398
802.78	28462
802.923	28325
803.065	28272
803.208	28257
803.35	28257
803.492	28421
803.635	28535
803.777	28382
803.919	28497
804.061	28790
804.204	28656
804.346	28478
804.488	28363
804.63	28246
804.773	28329
804.915	28348
805.057	28508
805.199	28401
805.341	28489
805.483	28668
805.626	28615
805.768	28622
805.91	28748
806.052	28748
806.194	28622
806.336	28847
806.478	28793
806.62	28869
806.762	29056
806.904	29208
807.046	29482
807.188	29512
807.33	29657
807.472	29794
807.614	29866
807.756	30064
807.898	30315
808.04	30612
808.182	31168
808.324	31780
808.465	32480
808.607	33218
808.749	34135
808.891	34466
809.033	34493
809.174	34074
809.316	33408
809.458	32461
809.6	31693
809.741	31278
809.883	30764
810.025	30346
810.166	30311
810.308	30209
810.45	29726
810.591	29676
810.733	29375
810.875	29326
811.016	29322
811.158	29075
811.299	29235
811.441	29178
811.582	29220
811.724	29003
811.865	29060
812.007	29128
812.148	29037
812.29	28911
812.431	29231
812.573	29159
812.714	29368
812.855	29509
812.997	29490
813.138	29630
813.279	29649
813.421	29387
813.562	29353
813.703	29124
813.845	29235
813.986	28752
814.127	28634
814.268	28424
814.41	28470
814.551	28379
814.692	28459
814.833	28306
814.974	28261
815.115	28493
815.256	28295
815.397	28314
815.539	28147
815.68	28036
815.821	28002
815.962	28154
816.103	28070
816.244	27960
816.385	27850
816.526	27831
816.666	27538
816.807	27485
816.948	27511
817.089	27690
817.23	27564
817.371	27439
817.512	27545
817.653	27458
817.793	27412
817.934	27363
818.075	27272
818.216	27287
818.356	27431
818.497	27176
818.638	27112
818.778	27085
818.919	27199
819.06	27112
819.2	27260
819.341	27359
819.481	27378
819.622	27439
819.762	27663
819.903	27534
820.043	27519
820.184	27397
820.324	27386
820.465	27348
820.605	27443
820.746	27344
820.886	27245
821.026	27241
821.167	27348
821.307	27416
821.447	27298
821.588	27279
821.728	26834
821.868	26880
822.008	26727
822.149	26667
822.289	26762
822.429	26457
822.569	26393
822.709	26450
822.849	26077
822.99	26370
823.13	26069
823.27	26103
823.41	25917
823.55	25841
823.69	25940
823.83	25921
823.97	25818
824.11	25772
824.25	25655
824.389	25715
824.529	25868
824.669	25685
824.809	25776
824.949	25799
825.089	25738
825.228	25757
825.368	25514
825.508	25506
825.648	25594
825.787	25407
825.927	25674
826.067	25556
826.206	25426
826.346	25544
826.485	25586
826.625	25476
826.765	25590
826.904	25529
827.044	25346
827.183	25240
827.323	25236
827.462	25274
827.601	25137
827.741	25327
827.88	25122
828.02	25088
828.159	25240
828.298	25164
828.437	25160
828.577	25133
828.716	25179
828.855	25015
828.994	24901
829.134	24913
829.273	24897
829.412	24806
829.551	24875
829.69	24791
829.829	24764
829.968	24875
830.107	24913
830.246	24882
830.385	24779
830.524	24745
830.663	24635
830.802	24627
830.941	24403
831.08	24311
831.219	24525
831.357	24513
831.496	24528
831.635	24315
831.774	24311
831.913	24224
832.051	24319
832.19	24235
832.329	24232
832.467	24133
832.606	24030
832.744	24102
832.883	24076
833.022	24034
833.16	24167
833.299	24159
833.437	24239
833.576	24292
833.714	24243
833.852	24289
833.991	24350
834.129	24327
834.267	24395
834.406	24395
834.544	24308
834.682	24209
834.821	24174
834.959	24376
835.097	24144
835.235	24140
835.373	24133
835.511	24121
835.65	23942
835.788	23912
835.926	23676
836.064	23741
836.202	23748
836.34	23767
836.478	23931
836.615	23916
836.753	23771
836.891	23908
837.029	23733
837.167	23657
837.305	23824
837.443	23760
837.58	23699
837.718	23630
837.856	23691
837.993	23535
838.131	23452
838.269	23535
838.406	23547
838.544	23417
838.681	23364
838.819	23280
838.956	23181
839.094	23056
839.231	23113
839.369	23208
839.506	23471
839.643	23143
839.781	23029
839.918	22862
840.055	22999
840.193	23090
840.33	22946
840.467	22877
840.604	22942
840.742	23132
840.879	22809
841.016	22892
841.153	22858
841.29	23090
841.427	22847
841.564	22835
841.701	22889
841.838	22725
841.975	22740
842.112	22740
842.249	22611
842.385	22569
842.522	22904
842.659	22698
842.796	22588
842.933	22683
843.069	22542
843.206	22584
843.343	22626
843.479	22615
843.616	22565
843.752	22516
843.889	22440
844.025	22599
844.162	22489
844.298	22592
844.435	22451
844.571	22622
844.708	22577
844.844	22900
844.98	22828
845.117	23018
845.253	23098
845.389	23307
845.525	24224
845.661	25430
845.798	26994
845.934	28318
846.07	28774
846.206	28516
846.342	27823
846.478	26024
846.614	24483
846.75	23406
846.886	22816
847.022	22687
847.158	22177
847.294	22154
847.429	22055
847.565	21949
847.701	22128
847.837	21732
847.972	21603
848.108	21679
848.244	21728
848.379	21530
848.515	21393
848.65	21317
848.786	21393
848.921	21363
849.057	21492
849.192	21408
849.328	21549
849.463	21389
849.598	21367
849.734	21268
849.869	21074
850.004	21077
850.14	21192
850.275	21100
850.41	21070
850.545	21074
850.68	20956
850.815	21047
850.95	21070
851.085	21173
851.22	21112
851.355	21043
851.49	21051
851.625	21028
851.76	20982
851.895	20963
852.03	20830
852.165	21096
852.299	21032
852.434	21085
852.569	21119
852.703	21013
852.838	21188
852.973	21138
853.107	21203
853.242	20979
853.376	20857
853.511	20807
853.645	20952
853.78	20952
853.914	20925
854.048	20899
854.183	20914
854.317	20902
854.451	21058
854.585	20838
854.72	20891
854.854	21032
854.988	20842
855.122	20910
855.256	20758
855.39	20910
855.524	20921
855.658	20918
855.792	20758
855.926	20960
856.06	20823
856.194	21005
856.327	20724
856.461	20819
856.595	20754
856.729	20800
856.862	20979
856.996	20819
857.13	20933
857.263	20971
857.397	20861
857.53	20804
857.664	20777
857.797	20804
857.931	20982
858.064	20906
858.197	20754
858.331	20800
858.464	20868
858.597	20667
858.731	20724
858.864	20682
858.997	20648
859.13	20739
859.263	20769
859.396	20838
859.529	20811
859.662	20792
859.795	20754
859.928	20735
860.061	20838
860.194	20948
860.327	20811
860.46	20659
860.592	20880
860.725	20853
860.858	20811
860.99	20708
861.123	20602
861.256	20629
861.388	20609
861.521	21405
861.653	20678
861.786	20625
861.918	20648
862.05	20655
862.183	20708
862.315	20735
862.447	20746
862.58	20796
862.712	20438
862.844	20469
862.976	20602
863.108	20560
863.24	20777
863.372	20431
863.504	20438
863.636	20438
863.768	20389
863.9	20457
864.032	20271
864.164	20480
864.296	20355
864.428	20541
864.559	20370
864.691	20583
864.823	20465
864.954	20522
865.086	20301
865.217	20381
865.349	20339
865.48	20412
865.612	20370
865.743	20522
865.875	20374
866.006	20305
866.137	20412
866.269	20332
866.4	20332
866.531	20187
866.662	20084
866.793	20309
866.924	20176
867.055	20229
867.186	20301
867.317	20168
867.448	20153
867.579	20225
867.71	20248
867.841	20161
867.972	20271
868.103	20248
868.233	20298
868.364	20157
868.495	20275
868.625	20412
868.756	20609
868.886	20336
869.017	20393
869.147	20564
869.278	20602
869.408	20503
869.539	20541
869.669	20651
869.799	20423
869.929	20495
870.06	20575
870.19	20769
870.32	20632
870.45	20887
870.58	20921
870.71	21017
870.84	20952
870.97	20883
871.1	20807
871.23	21074
871.36	20944
871.489	20948
871.619	21077
871.749	21184
871.879	21131
872.008	21256
872.138	21108
872.267	21093
872.397	21036
872.526	20918
872.656	21169
872.785	20921
872.915	21226
873.044	21306
873.173	21119
873.303	21230
873.432	21218
873.561	21199
873.69	21291
873.819	21165
873.948	21230
874.077	21279
874.206	21230
874.335	21207
874.464	21291
874.593	21428
874.722	21363
874.851	21595
874.979	21549
875.108	21477
875.237	21511
875.365	21450
875.494	21355
875.623	21564
875.751	21469
875.88	21694
876.008	21766
876.136	21759
876.265	22025
876.393	22128
876.521	22029
876.65	22090
876.778	22101
876.906	21972
877.034	21972
877.162	22032
877.29	21895
877.418	22006
877.546	22048
877.674	22093
877.802	22371
877.93	22367
878.058	22166
878.185	22207
878.313	22204
878.441	22382
878.568	22249
878.696	22504
878.824	22748
878.951	23124
879.079	23490
879.206	24102
879.333	24532
879.461	24833
879.588	25236
879.715	25225
879.842	25091
879.97	24532
880.097	23802
880.224	23376
880.351	23079
880.478	22866
880.605	22831
880.732	22584
880.859	22965
880.986	22649
881.112	22668
881.239	22455
881.366	22333
881.493	22295
881.619	22143
881.746	22143
881.872	22048
881.999	22109
882.125	22173
882.252	22314
882.378	22265
882.505	22234
882.631	22112
882.757	22055
882.883	22002
883.01	21994
883.136	21994
883.262	21850
883.388	21793
883.514	22044
883.64	22006
883.766	21930
883.892	21766
884.018	21679
884.143	21876
884.269	22002
884.395	21644
884.52	21610
884.646	21648
884.772	21583
884.897	21473
885.023	21652
885.148	21641
885.274	21785
885.399	21698
885.524	21633
885.65	21378
885.775	21344
885.9	21340
886.025	21534
886.15	21359
886.275	21222
886.4	21203
886.525	21222
886.65	21157
886.775	21146
886.9	21310
887.025	21226
887.149	21116
887.274	21005
887.399	20796
887.523	20883
887.648	20758
887.773	20674
887.897	20830
888.021	20849
888.146	20788
888.27	20880
888.395	20853
888.519	20781
888.643	20731
888.767	20651
888.891	20655
889.015	20442
889.139	20457
889.263	20366
889.387	20564
889.511	20693
889.635	20606
889.759	20366
889.883	20423
890.006	20339
890.13	20511
890.254	20362
890.377	20229
890.501	20122
890.624	20077
890.748	20210
890.871	20077
890.995	19894
891.118	19833
891.241	19978
891.364	20012
891.488	20111
891.611	19898
891.734	19860
891.857	19936
891.98	19997
892.103	19906
892.226	19875
892.349	19807
892.471	19788
892.594	19742
892.717	19780
892.839	19734
892.962	19719
893.085	19913
893.207	19742
893.33	19567
893.452	19666
893.575	19761
893.697	19662
893.819	19753
893.941	19875
894.064	19791
894.186	19635
894.308	19548
894.43	19803
894.552	19833
894.674	19788
894.796	19609
894.918	19788
895.04	19624
895.161	19742
895.283	19723
895.405	19548
895.526	19704
895.648	19601
895.769	19658
895.891	19715
896.012	19643
896.134	19693
896.255	19620
896.376	19639
896.498	19757
896.619	19643
896.74	19761
896.861	19772
896.982	20012
897.103	20126
897.224	19883
897.345	19940
897.466	19788
897.587	19986
897.708	19997
897.828	19932
897.949	19822
898.07	19643
898.19	19875
898.311	19970
898.431	19883
898.552	19871
898.672	19799
898.792	19784
898.913	19875
899.033	19696
899.153	19563
899.273	19502
899.393	19563
899.513	19689
899.633	19578
899.753	19597
899.873	19563
899.993	19632
900.113	19655
900.232	19605
900.352	19510
900.472	19388
900.591	19308
900.711	19346
900.83	19354
900.95	19575
901.069	19438
901.189	19266
901.308	19084
901.427	19027
901.546	19069
901.665	18996
901.784	19046
901.904	18856
902.023	18825
902.141	18570
902.26	18555
902.379	18566
902.498	18513
902.617	18418
902.735	18486
902.854	18452
902.973	18346
903.091	18114
903.21	18076
903.328	18174
903.446	17950
903.565	17901
903.683	17870
903.801	17874
903.919	17912
904.038	17889
904.156	17748
904.274	17707
904.392	17634
904.51	17615
904.627	17600
904.745	17638
904.863	17729
904.981	17452
905.098	17299
905.216	17303
905.334	17368
905.451	17216
905.569	17318
905.686	17383
905.803	17296
905.921	17155
906.038	17178
906.155	17052
906.272	16957
906.389	16976
906.506	16873
906.623	16828
906.74	16805
906.857	16664
906.974	16656
907.091	16877
907.208	16816
907.324	16862
907.441	16744
907.557	16497
907.674	16531
907.79	16356
907.907	16443
908.023	16516
908.139	16565
908.256	16459
908.372	16341
908.488	16356
908.604	16154
908.72	16124
908.836	16291
908.952	16211
909.068	16177
909.184	16246
909.3	16093
909.415	16162
909.531	16074
909.647	15884
909.762	15819
909.878	15812
909.993	15911
910.108	15747
910.224	15842
910.339	15869
910.454	15709
910.57	15633
910.685	15641
910.8	15819
910.915	15751
911.03	15660
911.145	15424
911.259	15462
911.374	15496
911.489	15408
911.604	15363
911.718	15245
911.833	15169
911.947	15066
912.062	14982
912.176	15150
912.291	15161
912.405	15127
912.519	15325
912.633	15378
912.748	15138
912.862	15176
912.976	15036
913.09	14804
913.204	14960
913.318	15036
913.431	14986
913.545	15005
913.659	15051
913.772	14971
913.886	14834
914	14762
914.113	14914
914.226	14960
914.34	14811
914.453	14674
914.566	14762
914.68	14712
914.793	14663
914.906	14518
915.019	14454
915.132	14305
915.245	14427
915.358	14560
915.47	14469
915.583	14526
915.696	14431
915.809	14533
915.921	14469
916.034	14408
916.146	14351
916.259	14366
916.371	14427
916.483	14374
916.595	14240
916.708	14298
916.82	14324
916.932	14221
917.044	14305
917.156	14221
917.268	14115
917.38	14195
917.491	13993
917.603	14088
917.715	14130
917.826	14092
917.938	14062
918.049	14024
918.161	14073
918.272	14187
918.384	14119
918.495	14020
918.606	13932
918.717	13765
918.828	13921
918.939	13898
919.05	13769
919.161	13864
919.272	13613
919.383	13734
919.494	13826
919.604	14123
919.715	13898
919.826	13715
919.936	13750
920.047	13837
920.157	13879
920.267	14043
920.378	13761
920.488	13753
920.598	13967
920.708	14111
920.818	13936
920.928	13883
921.038	14157
921.148	13940
921.258	13753
921.368	13662
921.477	13506
921.587	13502
921.697	13430
921.806	13609
921.916	13331
922.025	13301
922.134	13221
922.244	13198
922.353	13236
922.462	13076
922.571	13050
922.68	12806
922.789	12916
922.898	12848
923.007	12840
923.116	12829
923.224	12852
923.333	12791
923.442	12635
923.55	12650
923.659	12658
923.767	12684
923.876	12650
923.984	12703
924.092	12547
924.201	12639
924.309	12509
924.417	12566
924.525	12467
924.633	12544
924.741	13510
924.849	12323
924.956	12483
925.064	12304
925.172	12201
925.279	12197
925.387	12281
925.494	12281
925.602	12467
925.709	12289
925.816	12159
925.924	12266
926.031	12323
926.138	12251
926.245	12228
926.352	12110
926.459	12292
926.566	12296
926.673	12144
926.779	12110
926.886	12038
926.993	11878
927.099	11851
927.206	11843
927.312	11813
927.419	11912
927.525	11863
927.631	11859
927.737	11771
927.843	11615
927.95	11596
928.056	11657
928.162	11752
928.267	11767
928.373	12247
928.479	11745
928.585	11585
928.69	11657
928.796	11676
928.901	11562
929.007	11402
929.112	11600
929.218	11520
929.323	11436
929.428	11482
929.533	11592
929.638	11341
929.743	11414
929.848	11474
929.953	11334
930.058	11277
930.163	11094
930.267	11159
930.372	11220
930.477	11033
930.581	11288
930.685	11208
930.79	11052
930.894	11037
930.998	10995
931.103	11117
931.207	10748
931.311	10721
931.415	10660
931.519	10440
931.623	10367
