Data from test_V78500241_1322.txt Node
Date: Fri Mar 25 14:42:55 CST 2022
User: usil
Spectrometer: V785-0024
Trigger mode: 0
Integration Time (sec): 4.000000E-1
Scans to average: 1
Nonlinearity correction enabled: false
Boxcar width: 0
Storing dark spectrum: false
XAxis mode: Wavelengths
Number of Pixels in Spectrum: 1024
>>>>>Begin Spectral Data<<<<<
801.071	22443
801.214	22249
801.356	22044
801.499	21979
801.641	21694
801.783	21755
801.926	21873
802.068	21652
802.211	21557
802.353	21454
802.496	21336
802.638	21180
802.78	21146
802.923	21032
803.065	21055
803.208	21146
803.35	21173
803.492	21047
803.635	21138
803.777	21043
803.919	21047
804.061	21454
804.204	21119
804.346	21005
804.488	21047
804.63	20990
804.773	20883
804.915	21047
805.057	21051
805.199	20971
805.341	21081
805.483	21138
805.626	21081
805.768	21058
805.91	20941
806.052	21036
806.194	21001
806.336	21169
806.478	21077
806.62	21032
806.762	21013
806.904	21245
807.046	21370
807.188	21317
807.33	21473
807.472	21348
807.614	21462
807.756	21325
807.898	21313
808.04	21085
808.182	21157
808.324	21226
808.465	21283
808.607	21412
808.749	21534
808.891	21690
809.033	21732
809.174	21747
809.316	21496
809.458	21599
809.6	21549
809.741	21488
809.883	21549
810.025	21736
810.166	21595
810.308	21625
810.45	21561
810.591	21469
810.733	21313
810.875	21222
811.016	21192
811.158	21062
811.299	21294
811.441	21317
811.582	21351
811.724	21252
811.865	21074
812.007	21207
812.148	21188
812.29	21192
812.431	21344
812.573	21492
812.714	21504
812.855	21641
812.997	21637
813.138	21922
813.279	21865
813.421	21743
813.562	21622
813.703	21466
813.845	21386
813.986	21055
814.127	20823
814.268	20777
814.41	20861
814.551	20731
814.692	20857
814.833	20609
814.974	20705
815.115	20712
815.256	20545
815.397	20518
815.539	20560
815.68	20469
815.821	20385
815.962	20476
816.103	20446
816.244	20366
816.385	20362
816.526	20202
816.666	20054
816.807	19951
816.948	19978
817.089	20069
817.23	19955
817.371	19890
817.512	19894
817.653	19780
817.793	19902
817.934	19871
818.075	19986
818.216	19856
818.356	19788
818.497	19666
818.638	19495
818.778	19499
818.919	19514
819.06	19632
819.2	19685
819.341	19917
819.481	19742
819.622	19947
819.762	19967
819.903	19925
820.043	19864
820.184	19959
820.324	19849
820.465	19925
820.605	19986
820.746	19715
820.886	19628
821.026	19837
821.167	19849
821.307	19963
821.447	19784
821.588	19670
821.728	19590
821.868	19419
822.008	19289
822.149	19247
822.289	19282
822.429	19065
822.569	18993
822.709	18989
822.849	18890
822.99	18833
823.13	18646
823.27	18802
823.41	18620
823.55	18456
823.69	18589
823.83	18582
823.97	18414
824.11	18410
824.25	18330
824.389	18300
824.529	18441
824.669	18330
824.809	18456
824.949	18483
825.089	18330
825.228	18281
825.368	18174
825.508	18140
825.648	18201
825.787	18178
825.927	18178
826.067	18186
826.206	18064
826.346	18235
826.485	18152
826.625	18098
826.765	18186
826.904	18182
827.044	17901
827.183	17973
827.323	17805
827.462	17859
827.601	17779
827.741	17714
827.88	17786
828.02	17676
828.159	17832
828.298	17939
828.437	17840
828.577	17779
828.716	18053
828.855	17748
828.994	17634
829.134	17596
829.273	17653
829.412	17448
829.551	17516
829.69	17581
829.829	17581
829.968	17649
830.107	17676
830.246	17524
830.385	17436
830.524	17539
830.663	17387
830.802	17376
830.941	17155
831.08	17060
831.219	17288
831.357	17140
831.496	17406
831.635	17250
831.774	17098
831.913	17109
832.051	17048
832.19	17037
832.329	17006
832.467	17014
832.606	16843
832.744	16854
832.883	16831
833.022	16923
833.16	16961
833.299	16896
833.437	16896
833.576	16984
833.714	16942
833.852	17033
833.991	16915
834.129	17094
834.267	16991
834.406	16919
834.544	17029
834.682	16976
834.821	16923
834.959	17147
835.097	16919
835.235	17170
835.373	17006
835.511	17022
835.65	16904
835.788	16820
835.926	16797
836.064	16573
836.202	16660
836.34	16828
836.478	16968
836.615	16873
836.753	16850
836.891	16919
837.029	16850
837.167	16801
837.305	16885
837.443	16812
837.58	16710
837.718	16782
837.856	16653
837.993	16630
838.131	16721
838.269	16565
838.406	16675
838.544	16645
838.681	16360
838.819	16322
838.956	16261
839.094	16242
839.231	16462
839.369	16409
839.506	16569
839.643	16546
839.781	16249
839.918	16268
840.055	16363
840.193	16200
840.33	16265
840.467	16234
840.604	16318
840.742	16504
840.879	16261
841.016	16177
841.153	16150
841.29	16421
841.427	16367
841.564	16310
841.701	16344
841.838	16253
841.975	16192
842.112	16105
842.249	16204
842.385	16017
842.522	16276
842.659	16078
842.796	15998
842.933	16112
843.069	16006
843.206	15994
843.343	16071
843.479	15983
843.616	16086
843.752	15766
843.889	15892
844.025	15979
844.162	15930
844.298	16017
844.435	15865
844.571	15808
844.708	15869
844.844	16055
844.98	15945
845.117	15983
845.253	15766
845.389	15869
845.525	15823
845.661	15861
845.798	15732
845.934	15998
846.07	15911
846.206	15903
846.342	15968
846.478	15857
846.614	15584
846.75	15344
846.886	15363
847.022	15515
847.158	15389
847.294	15401
847.429	15370
847.565	15420
847.701	15652
847.837	15135
847.972	15112
848.108	15268
848.244	15195
848.379	15051
848.515	15028
848.65	14982
848.786	15051
848.921	14998
849.057	15077
849.192	15119
849.328	14975
849.463	15066
849.598	14918
849.734	14891
849.869	14842
850.004	14785
850.14	14689
850.275	14857
850.41	14769
850.545	14712
850.68	14739
850.815	14800
850.95	14727
851.085	14891
851.22	14842
851.355	14845
851.49	14758
851.625	14720
851.76	14716
851.895	14701
852.03	14712
852.165	14746
852.299	14880
852.434	14834
852.569	14804
852.703	14682
852.838	14876
852.973	14979
853.107	14956
853.242	14796
853.376	14674
853.511	14564
853.645	14587
853.78	14682
853.914	14651
854.048	14686
854.183	14587
854.317	14648
854.451	14887
854.585	14636
854.72	14571
854.854	14746
854.988	14522
855.122	14579
855.256	14336
855.39	14613
855.524	14670
855.658	14705
855.792	14693
855.926	14651
856.06	14724
856.194	14819
856.327	14617
856.461	14644
856.595	14602
856.729	14579
856.862	14670
856.996	14754
857.13	14689
857.263	14667
857.397	14720
857.53	14648
857.664	14777
857.797	14655
857.931	14701
858.064	14750
858.197	14735
858.331	14686
858.464	14610
858.597	14560
858.731	14644
858.864	14556
858.997	14610
859.13	14754
859.263	14678
859.396	14746
859.529	14640
859.662	14629
859.795	14598
859.928	14651
860.061	14845
860.194	14842
860.327	14716
860.46	14644
860.592	14792
860.725	14823
860.858	14720
860.99	14552
861.123	14648
861.256	14632
861.388	14689
861.521	15370
861.653	14610
861.786	14434
861.918	14492
862.05	14594
862.183	14629
862.315	14598
862.447	14693
862.58	14648
862.712	14514
862.844	14412
862.976	14457
863.108	14495
863.24	14929
863.372	14328
863.504	14396
863.636	14446
863.768	14545
863.9	14393
864.032	14240
864.164	14415
864.296	14320
864.428	14560
864.559	14480
864.691	14632
864.823	14511
864.954	14446
865.086	14514
865.217	14427
865.349	14351
865.48	14541
865.612	14457
865.743	14549
865.875	14358
866.006	14385
866.137	14427
866.269	14355
866.4	14377
866.531	14434
866.662	14404
866.793	14290
866.924	14328
867.055	14404
867.186	14336
867.317	14389
867.448	14290
867.579	14419
867.71	14412
867.841	14370
867.972	14499
868.103	14427
868.233	14415
868.364	14514
868.495	14507
868.625	14606
868.756	14697
868.886	14613
869.017	14568
869.147	14842
869.278	14765
869.408	14610
869.539	14716
869.669	14765
869.799	14651
869.929	14796
870.06	14876
870.19	14944
870.32	14864
870.45	14990
870.58	15062
870.71	15180
870.84	15119
870.97	15066
871.1	15013
871.23	15294
871.36	15272
871.489	15146
871.619	15241
871.749	15241
871.879	15329
872.008	15340
872.138	15313
872.267	15207
872.397	15142
872.526	15142
872.656	15062
872.785	15119
872.915	15249
873.044	15389
873.173	15245
873.303	15268
873.432	15378
873.561	15268
873.69	15237
873.819	15245
873.948	15389
874.077	15230
874.206	15241
874.335	15416
874.464	15466
874.593	15614
874.722	15530
874.851	15755
874.979	15603
875.108	15637
875.237	15595
875.365	15534
875.494	15622
875.623	15679
875.751	15591
875.88	15641
876.008	15701
876.136	15762
876.265	16048
876.393	16166
876.521	16097
876.65	16082
876.778	15960
876.906	16040
877.034	15941
877.162	16032
877.29	15892
877.418	16086
877.546	16071
877.674	16082
877.802	16051
877.93	16059
878.058	16067
878.185	15907
878.313	15956
878.441	16135
878.568	15835
878.696	15949
878.824	16055
878.951	16150
879.079	16261
879.206	16424
879.333	16299
879.461	16154
879.588	16295
879.715	16322
879.842	16371
879.97	16131
880.097	15911
880.224	15960
880.351	15876
880.478	16021
880.605	15854
880.732	15922
880.859	16226
880.986	15846
881.112	15953
881.239	15842
881.366	15694
881.493	15614
881.619	15629
881.746	15568
881.872	15622
881.999	15557
882.125	15496
882.252	15743
882.378	15591
882.505	15720
882.631	15534
882.757	15401
882.883	15389
883.01	15416
883.136	15344
883.262	15249
883.388	15165
883.514	15389
883.64	15405
883.766	15313
883.892	15135
884.018	15165
884.143	15386
884.269	15393
884.395	15226
884.52	15013
884.646	15093
884.772	14994
884.897	15009
885.023	15058
885.148	15173
885.274	15161
885.399	15173
885.524	15116
885.65	14948
885.775	15062
885.9	15062
886.025	15245
886.15	15108
886.275	14998
886.4	14948
886.525	15116
886.65	14914
886.775	14967
886.9	15089
887.025	15294
887.149	15001
887.274	15005
887.399	14864
887.523	14826
887.648	14883
887.773	14689
887.897	14906
888.021	15036
888.146	14826
888.27	14986
888.395	15066
888.519	15039
888.643	14861
888.767	14899
888.891	14819
889.015	14765
889.139	14743
889.263	14731
889.387	14864
889.511	14937
889.635	14906
889.759	14682
889.883	14621
890.006	14796
890.13	14842
890.254	14682
890.377	14617
890.501	14492
890.624	14499
890.748	14701
890.871	14450
890.995	14507
891.118	14336
891.241	14450
891.364	14480
891.488	14564
891.611	14492
891.734	14408
891.857	14404
891.98	14396
892.103	14442
892.226	14438
892.349	14412
892.471	14290
892.594	14389
892.717	14469
892.839	14362
892.962	14412
893.085	14583
893.207	14446
893.33	14286
893.452	14317
893.575	14473
893.697	14362
893.819	14541
893.941	14625
894.064	14571
894.186	14389
894.308	14336
894.43	14492
894.552	14583
894.674	14579
894.796	14355
894.918	14465
895.04	14423
895.161	14503
895.283	14469
895.405	14480
895.526	14533
895.648	14583
895.769	14575
895.891	14549
896.012	14629
896.134	14541
896.255	14651
896.376	14636
896.498	14602
896.619	14579
896.74	14507
896.861	14617
896.982	14986
897.103	15119
897.224	14762
897.345	14823
897.466	14807
897.587	14807
897.708	14967
897.828	14811
897.949	14720
898.07	14667
898.19	14746
898.311	14967
898.431	14864
898.552	14857
898.672	15017
898.792	14971
898.913	14929
899.033	14838
899.153	14670
899.273	14682
899.393	14754
899.513	14773
899.633	14823
899.753	14800
899.873	14720
899.993	14838
900.113	14758
900.232	14777
900.352	14792
900.472	14625
900.591	14610
900.711	14678
900.83	14568
900.95	14697
901.069	14689
901.189	14507
901.308	14438
901.427	14259
901.546	14191
901.665	14336
901.784	14290
901.904	14164
902.023	14111
902.141	13845
902.26	13875
902.379	13974
902.498	13841
902.617	13814
902.735	13947
902.854	13875
902.973	13807
903.091	13556
903.21	13582
903.328	13563
903.446	13563
903.565	13449
903.683	13457
903.801	13365
903.919	13396
904.038	13339
904.156	13274
904.274	13365
904.392	13236
904.51	13088
904.627	13228
904.745	13221
904.863	13274
904.981	13076
905.098	12920
905.216	12901
905.334	12954
905.451	13012
905.569	12856
905.686	12989
905.803	12996
905.921	12726
906.038	12837
906.155	12791
906.272	12551
906.389	12654
906.506	12532
906.623	12631
906.74	12464
906.857	12342
906.974	12426
907.091	12445
907.208	12662
907.324	12597
907.441	12506
907.557	12338
907.674	12209
907.79	12209
907.907	12262
908.023	12258
908.139	12190
908.256	12292
908.372	12125
908.488	12121
908.604	11950
908.72	11958
908.836	11961
908.952	11958
909.068	12068
909.184	12053
909.3	11984
909.415	12026
909.531	12083
909.647	11809
909.762	11752
909.878	11851
909.993	11828
910.108	11714
910.224	11794
910.339	11794
910.454	11718
910.57	11630
910.685	11577
910.8	11893
910.915	11707
911.03	11646
911.145	11497
911.259	11493
911.374	11528
911.489	11387
911.604	11330
911.718	11227
911.833	11299
911.947	11201
912.062	10987
912.176	11227
912.291	11189
912.405	11269
912.519	11364
912.633	11406
912.748	11250
912.862	11250
912.976	11067
913.09	10965
913.204	11090
913.318	11098
913.431	11204
913.545	11159
913.659	11235
913.772	11151
913.886	10968
914	11014
914.113	10976
914.226	11029
914.34	11102
914.453	10976
914.566	11048
914.68	10949
914.793	10938
914.906	10668
915.019	10725
915.132	10622
915.245	10748
915.358	10759
915.47	10774
915.583	10714
915.696	10759
915.809	10831
915.921	10786
916.034	10717
916.146	10668
916.259	10611
916.371	10752
916.483	10744
916.595	10596
916.708	10691
916.82	10714
916.932	10683
917.044	10603
917.156	10569
917.268	10508
917.38	10580
917.491	10500
917.603	10561
917.715	10694
917.826	10660
917.938	10611
918.049	10405
918.161	10599
918.272	10607
918.384	10733
918.495	10580
918.606	10417
918.717	10409
918.828	10462
918.939	10516
919.05	10367
919.161	10352
919.272	10169
919.383	10200
919.494	10470
919.604	10660
919.715	10455
919.826	10318
919.936	10455
920.047	10542
920.157	10519
920.267	10721
920.378	10489
920.488	10409
920.598	10592
920.708	10740
920.818	10607
920.928	10618
921.038	10824
921.148	10759
921.258	10455
921.368	10402
921.477	10287
921.587	10291
921.697	10090
921.806	10337
921.916	10139
922.025	9956
922.134	9994
922.244	9953
922.353	9979
922.462	9934
922.571	9808
922.68	9679
922.789	9637
922.898	9705
923.007	9629
923.116	9637
923.224	9728
923.333	9667
923.442	9564
923.55	9553
923.659	9572
923.767	9610
923.876	9523
923.984	9561
924.092	9435
924.201	9557
924.309	9591
924.417	9519
924.525	9534
924.633	9500
924.741	10428
924.849	9363
924.956	9428
925.064	9325
925.172	9256
925.279	9233
925.387	9344
925.494	9268
925.602	9500
925.709	9397
925.816	9249
925.924	9279
926.031	9355
926.138	9317
926.245	9329
926.352	9256
926.459	9382
926.566	9393
926.673	9302
926.779	9176
926.886	9138
926.993	8986
927.099	8982
927.206	8963
927.312	8967
927.419	9070
927.525	9032
927.631	9112
927.737	8902
927.843	8963
927.95	8861
928.056	8914
928.162	8918
928.267	8960
928.373	9603
928.479	9039
928.585	8804
928.69	8925
928.796	8944
928.901	8853
929.007	8663
929.112	8872
929.218	8769
929.323	8724
929.428	8689
929.533	8819
929.638	8689
929.743	8720
929.848	8796
929.953	8727
930.058	8606
930.163	8511
930.267	8503
930.372	8579
930.477	8492
930.581	8693
930.685	8549
930.79	8396
930.894	8412
930.998	8457
931.103	8571
931.207	8229
931.311	8168
931.415	8062
931.519	7967
931.623	7955
