Data from test_V78500241_2665.txt Node
Date: Fri Mar 25 14:52:16 CST 2022
User: usil
Spectrometer: V785-0024
Trigger mode: 0
Integration Time (sec): 4.000000E-1
Scans to average: 1
Nonlinearity correction enabled: false
Boxcar width: 0
Storing dark spectrum: false
XAxis mode: Wavelengths
Number of Pixels in Spectrum: 1024
>>>>>Begin Spectral Data<<<<<
801.071	22040
801.214	21861
801.356	21739
801.499	21606
801.641	21378
801.783	21359
801.926	21340
802.068	21344
802.211	21249
802.353	21157
802.496	20925
802.638	20868
802.78	20804
802.923	20750
803.065	20739
803.208	20727
803.35	20743
803.492	20727
803.635	20811
803.777	20667
803.919	20777
804.061	21100
804.204	20838
804.346	20598
804.488	20590
804.63	20674
804.773	20454
804.915	20625
805.057	20568
805.199	20476
805.341	20621
805.483	20819
805.626	20689
805.768	20495
805.91	20556
806.052	20609
806.194	20495
806.336	20804
806.478	20609
806.62	20530
806.762	20716
806.904	20617
807.046	20967
807.188	20933
807.33	21112
807.472	21047
807.614	20777
807.756	20845
807.898	20674
808.04	20632
808.182	20484
808.324	20686
808.465	20739
808.607	20921
808.749	20921
808.891	21058
809.033	21135
809.174	21005
809.316	20902
809.458	20925
809.6	20929
809.741	20876
809.883	21066
810.025	21135
810.166	21138
810.308	21093
810.45	20864
810.591	20891
810.733	20811
810.875	20731
811.016	20629
811.158	20625
811.299	20826
811.441	20796
811.582	20769
811.724	20811
811.865	20670
812.007	20594
812.148	20788
812.29	20731
812.431	20906
812.573	20998
812.714	21146
812.855	21203
812.997	21393
813.138	21420
813.279	21272
813.421	21252
813.562	21085
813.703	20971
813.845	20891
813.986	20655
814.127	20488
814.268	20328
814.41	20282
814.551	20237
814.692	20301
814.833	20164
814.974	20324
815.115	20298
815.256	20130
815.397	20084
815.539	20229
815.68	20050
815.821	19974
815.962	20027
816.103	20031
816.244	19906
816.385	19620
816.526	19738
816.666	19628
816.807	19506
816.948	19495
817.089	19552
817.23	19605
817.371	19335
817.512	19362
817.653	19586
817.793	19335
817.934	19396
818.075	19445
818.216	19411
818.356	19343
818.497	19187
818.638	19057
818.778	19171
818.919	19148
819.06	19187
819.2	19331
819.341	19316
819.481	19316
819.622	19369
819.762	19578
819.903	19578
820.043	19396
820.184	19495
820.324	19388
820.465	19521
820.605	19388
820.746	19327
820.886	19282
821.026	19388
821.167	19289
821.307	19343
821.447	19278
821.588	19213
821.728	19110
821.868	19012
822.008	18840
822.149	18817
822.289	18734
822.429	18646
822.569	18521
822.709	18566
822.849	18251
822.99	18296
823.13	18273
823.27	18224
823.41	18171
823.55	18098
823.69	18174
823.83	18136
823.97	18064
824.11	17855
824.25	17866
824.389	18003
824.529	18019
824.669	17866
824.809	18068
824.949	17897
825.089	17855
825.228	17942
825.368	17718
825.508	17775
825.648	17710
825.787	17714
825.927	17668
826.067	17680
826.206	17672
826.346	17722
826.485	17680
826.625	17680
826.765	17786
826.904	17745
827.044	17493
827.183	17379
827.323	17311
827.462	17372
827.601	17387
827.741	17280
827.88	17368
828.02	17277
828.159	17341
828.298	17402
828.437	17532
828.577	17455
828.716	17444
828.855	17265
828.994	17083
829.134	17147
829.273	17121
829.412	17117
829.551	17064
829.69	17083
829.829	17166
829.968	17296
830.107	17109
830.246	17223
830.385	17052
830.524	17003
830.663	17010
830.802	16847
830.941	16713
831.08	16744
831.219	16793
831.357	16763
831.496	16995
831.635	16767
831.774	16573
831.913	16683
832.051	16561
832.19	16558
832.329	16603
832.467	16542
832.606	16367
832.744	16394
832.883	16474
833.022	16367
833.16	16550
833.299	16462
833.437	16485
833.576	16561
833.714	16432
833.852	16569
833.991	16554
834.129	16497
834.267	16565
834.406	16542
834.544	16573
834.682	16527
834.821	16447
834.959	16626
835.097	16542
835.235	16694
835.373	16611
835.511	16626
835.65	16440
835.788	16390
835.926	16352
836.064	16272
836.202	16329
836.34	16447
836.478	16569
836.615	16489
836.753	16421
836.891	16493
837.029	16459
837.167	16443
837.305	16344
837.443	16272
837.58	16249
837.718	16451
837.856	16299
837.993	16253
838.131	16325
838.269	16211
838.406	16101
838.544	16143
838.681	16143
838.819	16017
838.956	15934
839.094	15857
839.231	15873
839.369	16055
839.506	16352
839.643	16116
839.781	15816
839.918	15766
840.055	15915
840.193	15831
840.33	15911
840.467	15774
840.604	15922
840.742	16109
840.879	15819
841.016	15789
841.153	15808
841.29	15983
841.427	15934
841.564	15850
841.701	15911
841.838	15869
841.975	15778
842.112	15793
842.249	15720
842.385	15618
842.522	15838
842.659	15694
842.796	15694
842.933	15629
843.069	15504
843.206	15542
843.343	15732
843.479	15641
843.616	15717
843.752	15443
843.889	15462
844.025	15488
844.162	15450
844.298	15625
844.435	15523
844.571	15443
844.708	15561
844.844	15591
844.98	15530
845.117	15454
845.253	15424
845.389	15310
845.525	15283
845.661	15344
845.798	15169
845.934	15317
846.07	15142
846.206	15298
846.342	15374
846.478	15123
846.614	15062
846.75	14998
846.886	14960
847.022	15150
847.158	15028
847.294	15070
847.429	15089
847.565	14982
847.701	15222
847.837	14800
847.972	14682
848.108	14826
848.244	14781
848.379	14731
848.515	14606
848.65	14587
848.786	14632
848.921	14648
849.057	14708
849.192	14781
849.328	14727
849.463	14640
849.598	14556
849.734	14530
849.869	14537
850.004	14484
850.14	14412
850.275	14473
850.41	14393
850.545	14385
850.68	14454
850.815	14358
850.95	14328
851.085	14606
851.22	14492
851.355	14366
851.49	14381
851.625	14389
851.76	14336
851.895	14206
852.03	14191
852.165	14351
852.299	14484
852.434	14362
852.569	14343
852.703	14461
852.838	14583
852.973	14495
853.107	14484
853.242	14400
853.376	14244
853.511	14115
853.645	14183
853.78	14423
853.914	14317
854.048	14240
854.183	14233
854.317	14164
854.451	14427
854.585	14199
854.72	14195
854.854	14317
854.988	14100
855.122	14240
855.256	14043
855.39	14187
855.524	14362
855.658	14328
855.792	14248
855.926	14282
856.06	14244
856.194	14473
856.327	14332
856.461	14058
856.595	14157
856.729	14237
856.862	14313
856.996	14374
857.13	14366
857.263	14389
857.397	14389
857.53	14233
857.664	14377
857.797	14332
857.931	14332
858.064	14339
858.197	14408
858.331	14244
858.464	14142
858.597	14164
858.731	14153
858.864	14237
858.997	14153
859.13	14263
859.263	14290
859.396	14298
859.529	14267
859.662	14244
859.795	14187
859.928	14301
860.061	14351
860.194	14454
860.327	14263
860.46	14301
860.592	14332
860.725	14374
860.858	14290
860.99	14252
861.123	14168
861.256	14157
861.388	14286
861.521	14823
861.653	14202
861.786	14024
861.918	14065
862.05	14157
862.183	14206
862.315	14267
862.447	14294
862.58	14195
862.712	14084
862.844	13982
862.976	14092
863.108	13982
863.24	14454
863.372	13947
863.504	14043
863.636	14008
863.768	14062
863.9	14035
864.032	13830
864.164	14001
864.296	14039
864.428	14149
864.559	14142
864.691	14164
864.823	14043
864.954	14020
865.086	14069
865.217	14077
865.349	13856
865.48	13989
865.612	13982
865.743	14195
865.875	13970
866.006	14008
866.137	14039
866.269	14164
866.4	14050
866.531	13852
866.662	13906
866.793	13940
866.924	13940
867.055	14020
867.186	13997
867.317	14008
867.448	13959
867.579	13970
867.71	13967
867.841	13963
867.972	13928
868.103	14050
868.233	14065
868.364	14020
868.495	14027
868.625	14313
868.756	14305
868.886	14149
869.017	14267
869.147	14355
869.278	14412
869.408	14237
869.539	14290
869.669	14298
869.799	14286
869.929	14305
870.06	14366
870.19	14575
870.32	14640
870.45	14659
870.58	14705
870.71	14823
870.84	14731
870.97	14754
871.1	14590
871.23	14743
871.36	14895
871.489	14800
871.619	14804
871.749	14895
871.879	14914
872.008	14960
872.138	14925
872.267	14826
872.397	14610
872.526	14674
872.656	14693
872.785	14735
872.915	14796
873.044	14918
873.173	14899
873.303	14918
873.432	15001
873.561	14925
873.69	14925
873.819	15024
873.948	14883
874.077	14925
874.206	14845
874.335	14861
874.464	15100
874.593	15245
874.722	15218
874.851	15256
874.979	15302
875.108	15321
875.237	15249
875.365	15066
875.494	15256
875.623	15264
875.751	15195
875.88	15226
876.008	15401
876.136	15435
876.265	15603
876.393	15690
876.521	15667
876.65	15755
876.778	15774
876.906	15690
877.034	15564
877.162	15538
877.29	15515
877.418	15755
877.546	15793
877.674	15652
877.802	15618
877.93	15652
878.058	15637
878.185	15462
878.313	15671
878.441	15538
878.568	15428
878.696	15545
878.824	15717
878.951	15705
879.079	15880
879.206	15937
879.333	15846
879.461	15622
879.588	15713
879.715	15793
879.842	15854
879.97	15732
880.097	15519
880.224	15439
880.351	15553
880.478	15466
880.605	15557
880.732	15408
880.859	15800
880.986	15538
881.112	15523
881.239	15340
881.366	15351
881.493	15184
881.619	15097
881.746	15207
881.872	15176
881.999	15024
882.125	15127
882.252	15203
882.378	15222
882.505	15321
882.631	15116
882.757	14956
882.883	15001
883.01	15013
883.136	15001
883.262	14788
883.388	14834
883.514	15055
883.64	14971
883.766	14918
883.892	14762
884.018	14758
884.143	15001
884.269	15146
884.395	14731
884.52	14636
884.646	14693
884.772	14689
884.897	14469
885.023	14697
885.148	14739
885.274	14941
885.399	14746
885.524	14651
885.65	14640
885.775	14712
885.9	14697
886.025	14648
886.15	14819
886.275	14552
886.4	14560
886.525	14632
886.65	14594
886.775	14602
886.9	14750
887.025	14960
887.149	14686
887.274	14518
887.399	14412
887.523	14431
887.648	14454
887.773	14389
887.897	14537
888.021	14556
888.146	14450
888.27	14552
888.395	14526
888.519	14613
888.643	14590
888.767	14594
888.891	14427
889.015	14374
889.139	14381
889.263	14271
889.387	14438
889.511	14571
889.635	14469
889.759	14332
889.883	14313
890.006	14370
890.13	14457
890.254	14263
890.377	14313
890.501	14103
890.624	14176
890.748	14267
890.871	14134
890.995	14062
891.118	13986
891.241	14084
891.364	14176
891.488	14153
891.611	13982
891.734	14050
891.857	14111
891.98	14077
892.103	14115
892.226	14096
892.349	14005
892.471	13970
892.594	14016
892.717	14130
892.839	14008
892.962	14172
893.085	14062
893.207	14058
893.33	14062
893.452	13989
893.575	14115
893.697	14024
893.819	14164
893.941	14267
894.064	14240
894.186	14031
894.308	14020
894.43	14248
894.552	14282
894.674	14252
894.796	14008
894.918	14103
895.04	14054
895.161	14176
895.283	14164
895.405	14142
895.526	14100
895.648	14123
895.769	14278
895.891	14225
896.012	14278
896.134	14313
896.255	14233
896.376	14153
896.498	14199
896.619	14271
896.74	14187
896.861	14259
896.982	14537
897.103	14720
897.224	14537
897.345	14492
897.466	14442
897.587	14499
897.708	14670
897.828	14560
897.949	14476
898.07	14362
898.19	14446
898.311	14670
898.431	14537
898.552	14564
898.672	14701
898.792	14610
898.913	14648
899.033	14537
899.153	14355
899.273	14328
899.393	14393
899.513	14457
899.633	14461
899.753	14469
899.873	14332
899.993	14488
900.113	14415
900.232	14450
900.352	14423
900.472	14305
900.591	14210
900.711	14286
900.83	14248
900.95	14309
901.069	14370
901.189	14237
901.308	13997
901.427	14035
901.546	14012
901.665	13989
901.784	14005
901.904	13860
902.023	13795
902.141	13647
902.26	13495
902.379	13559
902.498	13613
902.617	13514
902.735	13639
902.854	13514
902.973	13575
903.091	13225
903.21	13141
903.328	13270
903.446	13183
903.565	13088
903.683	13110
903.801	13050
903.919	13149
904.038	13099
904.156	12989
904.274	12913
904.392	12958
904.51	12871
904.627	12920
904.745	12996
904.863	12977
904.981	12757
905.098	12593
905.216	12604
905.334	12612
905.451	12559
905.569	12570
905.686	12665
905.803	12654
905.921	12441
906.038	12517
906.155	12486
906.272	12338
906.389	12323
906.506	12277
906.623	12323
906.74	12205
906.857	12007
906.974	12125
907.091	12277
907.208	12399
907.324	12235
907.441	12095
907.557	12022
907.674	11999
907.79	11897
907.907	11912
908.023	12030
908.139	11984
908.256	11847
908.372	11767
908.488	11889
908.604	11786
908.72	11752
908.836	11775
908.952	11680
909.068	11737
909.184	11809
909.3	11832
909.415	11760
909.531	11653
909.647	11509
909.762	11509
909.878	11463
909.993	11562
910.108	11478
910.224	11452
910.339	11558
910.454	11425
910.57	11379
910.685	11284
910.8	11592
910.915	11463
911.03	11410
911.145	11151
911.259	11162
911.374	11250
911.489	11132
911.604	11090
911.718	10927
911.833	11018
911.947	10824
912.062	10866
912.176	10949
912.291	10934
912.405	11006
912.519	11212
912.633	11151
912.748	11052
912.862	10987
912.976	10843
913.09	10755
913.204	10816
913.318	10824
913.431	10904
913.545	10831
913.659	10904
913.772	10843
913.886	10714
914	10694
914.113	10869
914.226	10885
914.34	10725
914.453	10653
914.566	10801
914.68	10630
914.793	10596
914.906	10569
915.019	10386
915.132	10356
915.245	10424
915.358	10455
915.47	10519
915.583	10478
915.696	10588
915.809	10611
915.921	10569
916.034	10421
916.146	10337
916.259	10310
916.371	10443
916.483	10413
916.595	10363
916.708	10424
916.82	10382
916.932	10390
917.044	10428
917.156	10352
917.268	10287
917.38	10428
917.491	10261
917.603	10348
917.715	10333
917.826	10367
917.938	10284
918.049	10169
918.161	10295
918.272	10451
918.384	10447
918.495	10329
918.606	10139
918.717	10093
918.828	10131
918.939	10196
919.05	10158
919.161	10082
919.272	9991
919.383	10048
919.494	10329
919.604	10390
919.715	10131
919.826	10112
919.936	10169
920.047	10204
920.157	10215
920.267	10375
920.378	10268
920.488	10230
920.598	10421
920.708	10546
920.818	10352
920.928	10398
921.038	10546
921.148	10596
921.258	10207
921.368	10169
921.477	10067
921.587	9998
921.697	9876
921.806	10055
921.916	9884
922.025	9770
922.134	9728
922.244	9743
922.353	9774
922.462	9614
922.571	9580
922.68	9420
922.789	9492
922.898	9416
923.007	9450
923.116	9507
923.224	9450
923.333	9443
923.442	9313
923.55	9268
923.659	9336
923.767	9424
923.876	9348
923.984	9469
924.092	9237
924.201	9306
924.309	9245
924.417	9378
924.525	9264
924.633	9306
924.741	10044
924.849	9081
924.956	9188
925.064	9074
925.172	9062
925.279	9005
925.387	9173
925.494	9081
925.602	9195
925.709	9180
925.816	9085
925.924	9127
926.031	9119
926.138	9138
926.245	9138
926.352	9051
926.459	9207
926.566	9230
926.673	9077
926.779	8960
926.886	8952
926.993	8880
927.099	8739
927.206	8754
927.312	8823
927.419	8823
927.525	8868
927.631	8861
927.737	8788
927.843	8724
927.95	8648
928.056	8621
928.162	8773
928.267	8750
928.373	9401
928.479	8781
928.585	8636
928.69	8781
928.796	8724
928.901	8617
929.007	8457
929.112	8670
929.218	8613
929.323	8602
929.428	8511
929.533	8621
929.638	8454
929.743	8507
929.848	8530
929.953	8495
930.058	8423
930.163	8298
930.267	8324
930.372	8419
930.477	8267
930.581	8507
930.685	8355
930.79	8301
930.894	8248
930.998	8286
931.103	8370
931.207	8058
931.311	8020
931.415	7894
931.519	7734
931.623	7757
