Data from test_V78500241_2546.txt Node
Date: Fri Mar 25 14:51:26 CST 2022
User: usil
Spectrometer: V785-0024
Trigger mode: 0
Integration Time (sec): 4.000000E-1
Scans to average: 1
Nonlinearity correction enabled: false
Boxcar width: 0
Storing dark spectrum: false
XAxis mode: Wavelengths
Number of Pixels in Spectrum: 1024
>>>>>Begin Spectral Data<<<<<
801.071	22090
801.214	21956
801.356	21766
801.499	21656
801.641	21492
801.783	21405
801.926	21488
802.068	21310
802.211	21393
802.353	21135
802.496	21028
802.638	20914
802.78	20925
802.923	20788
803.065	20602
803.208	20720
803.35	20708
803.492	20857
803.635	20906
803.777	20693
803.919	20724
804.061	21047
804.204	20838
804.346	20746
804.488	20629
804.63	20785
804.773	20594
804.915	20640
805.057	20594
805.199	20670
805.341	20598
805.483	20792
805.626	20800
805.768	20594
805.91	20625
806.052	20689
806.194	20655
806.336	20830
806.478	20590
806.62	20564
806.762	20682
806.904	20872
807.046	21051
807.188	20956
807.33	20971
807.472	21020
807.614	20849
807.756	20815
807.898	20849
808.04	20701
808.182	20606
808.324	20857
808.465	20667
808.607	21001
808.749	21157
808.891	21085
809.033	21192
809.174	21192
809.316	20948
809.458	21108
809.6	20849
809.741	21081
809.883	21089
810.025	21195
810.166	21089
810.308	21237
810.45	21009
810.591	21077
810.733	20796
810.875	20792
811.016	20663
811.158	20629
811.299	20796
811.441	21005
811.582	20914
811.724	20853
811.865	20705
812.007	20807
812.148	20724
812.29	20758
812.431	21047
812.573	21074
812.714	21131
812.855	21317
812.997	21386
813.138	21545
813.279	21348
813.421	21207
813.562	21135
813.703	21039
813.845	21051
813.986	20682
814.127	20484
814.268	20400
814.41	20396
814.551	20343
814.692	20412
814.833	20240
814.974	20259
815.115	20351
815.256	20130
815.397	20259
815.539	20138
815.68	20100
815.821	20046
815.962	20062
816.103	20027
816.244	19997
816.385	19856
816.526	19868
816.666	19601
816.807	19480
816.948	19544
817.089	19700
817.23	19586
817.371	19472
817.512	19369
817.653	19419
817.793	19438
817.934	19419
818.075	19472
818.216	19384
818.356	19422
818.497	19282
818.638	19034
818.778	19308
818.919	19236
819.06	19160
819.2	19263
819.341	19354
819.481	19297
819.622	19510
819.762	19666
819.903	19552
820.043	19525
820.184	19575
820.324	19487
820.465	19392
820.605	19369
820.746	19350
820.886	19183
821.026	19339
821.167	19415
821.307	19457
821.447	19373
821.588	19377
821.728	19088
821.868	19015
822.008	18833
822.149	18878
822.289	18806
822.429	18684
822.569	18547
822.709	18544
822.849	18357
822.99	18311
823.13	18285
823.27	18418
823.41	18178
823.55	18091
823.69	18197
823.83	18171
823.97	17988
824.11	18015
824.25	17935
824.389	17946
824.529	17996
824.669	18003
824.809	18079
824.949	18003
825.089	18049
825.228	17920
825.368	17691
825.508	17585
825.648	17764
825.787	17733
825.927	17722
826.067	17665
826.206	17638
826.346	17703
826.485	17783
826.625	17707
826.765	17836
826.904	17684
827.044	17478
827.183	17474
827.323	17345
827.462	17596
827.601	17360
827.741	17292
827.88	17440
828.02	17337
828.159	17360
828.298	17391
828.437	17509
828.577	17376
828.716	17490
828.855	17379
828.994	17193
829.134	17136
829.273	17204
829.412	17098
829.551	17025
829.69	17136
829.829	17098
829.968	17170
830.107	17052
830.246	17143
830.385	17132
830.524	16999
830.663	16938
830.802	16892
830.941	16725
831.08	16740
831.219	16938
831.357	16786
831.496	16930
831.635	16649
831.774	16740
831.913	16592
832.051	16611
832.19	16523
832.329	16607
832.467	16561
832.606	16424
832.744	16451
832.883	16466
833.022	16451
833.16	16470
833.299	16519
833.437	16504
833.576	16519
833.714	16459
833.852	16535
833.991	16447
834.129	16561
834.267	16607
834.406	16618
834.544	16405
834.682	16504
834.821	16580
834.959	16672
835.097	16455
835.235	16596
835.373	16622
835.511	16565
835.65	16405
835.788	16481
835.926	16272
836.064	16207
836.202	16367
836.34	16523
836.478	16599
836.615	16466
836.753	16443
836.891	16447
837.029	16470
837.167	16314
837.305	16276
837.443	16246
837.58	16322
837.718	16341
837.856	16318
837.993	16200
838.131	16272
838.269	16303
838.406	16185
838.544	16211
838.681	16025
838.819	15987
838.956	15888
839.094	15926
839.231	15915
839.369	16059
839.506	16246
839.643	16101
839.781	15793
839.918	15831
840.055	15831
840.193	15846
840.33	15873
840.467	15857
840.604	15789
840.742	16128
840.879	15625
841.016	15804
841.153	15808
841.29	16048
841.427	15911
841.564	15892
841.701	15865
841.838	15827
841.975	15797
842.112	15800
842.249	15709
842.385	15595
842.522	15846
842.659	15564
842.796	15694
842.933	15584
843.069	15606
843.206	15545
843.343	15724
843.479	15660
843.616	15720
843.752	15496
843.889	15485
844.025	15648
844.162	15351
844.298	15412
844.435	15439
844.571	15408
844.708	15389
844.844	15500
844.98	15587
845.117	15701
845.253	15408
845.389	15317
845.525	15454
845.661	15283
845.798	15165
845.934	15214
846.07	15154
846.206	15192
846.342	15401
846.478	15211
846.614	15055
846.75	14948
846.886	14918
847.022	15055
847.158	15036
847.294	15036
847.429	15051
847.565	15043
847.701	15249
847.837	14773
847.972	14731
848.108	14807
848.244	14849
848.379	14632
848.515	14575
848.65	14495
848.786	14545
848.921	14560
849.057	14682
849.192	14682
849.328	14610
849.463	14583
849.598	14541
849.734	14450
849.869	14446
850.004	14374
850.14	14366
850.275	14400
850.41	14309
850.545	14404
850.68	14355
850.815	14396
850.95	14366
851.085	14545
851.22	14404
851.355	14290
851.49	14248
851.625	14343
851.76	14381
851.895	14267
852.03	14294
852.165	14385
852.299	14351
852.434	14507
852.569	14393
852.703	14457
852.838	14370
852.973	14526
853.107	14415
853.242	14358
853.376	14233
853.511	14138
853.645	14214
853.78	14328
853.914	14259
854.048	14157
854.183	14183
854.317	14244
854.451	14374
854.585	14206
854.72	14084
854.854	14282
854.988	14134
855.122	14107
855.256	14119
855.39	14191
855.524	14347
855.658	14248
855.792	14195
855.926	14313
856.06	14423
856.194	14438
856.327	14164
856.461	14191
856.595	14164
856.729	14126
856.862	14374
856.996	14317
857.13	14298
857.263	14305
857.397	14377
857.53	14252
857.664	14309
857.797	14271
857.931	14317
858.064	14290
858.197	14336
858.331	14259
858.464	14161
858.597	14088
858.731	14233
858.864	14199
858.997	14263
859.13	14233
859.263	14218
859.396	14374
859.529	14298
859.662	14214
859.795	14218
859.928	14240
860.061	14438
860.194	14438
860.327	14286
860.46	14206
860.592	14366
860.725	14358
860.858	14450
860.99	14218
861.123	14180
861.256	14195
861.388	14298
861.521	14705
861.653	14043
861.786	14123
861.918	14046
862.05	14153
862.183	14202
862.315	14149
862.447	14381
862.58	14168
862.712	14005
862.844	13978
862.976	14046
863.108	14123
863.24	14495
863.372	14065
863.504	13986
863.636	14077
863.768	14058
863.9	14035
864.032	13925
864.164	13913
864.296	14016
864.428	14115
864.559	14103
864.691	14062
864.823	14039
864.954	14050
865.086	14111
865.217	14069
865.349	13944
865.48	14077
865.612	14046
865.743	14134
865.875	14001
866.006	13993
866.137	13967
866.269	14031
866.4	13947
866.531	13997
866.662	13967
866.793	13887
866.924	13967
867.055	13940
867.186	13970
867.317	13944
867.448	13925
867.579	13947
867.71	13868
867.841	13947
867.972	13906
868.103	13951
868.233	14039
868.364	14043
868.495	14103
868.625	14267
868.756	14351
868.886	14199
869.017	14210
869.147	14370
869.278	14419
869.408	14298
869.539	14298
869.669	14309
869.799	14256
869.929	14408
870.06	14328
870.19	14549
870.32	14533
870.45	14632
870.58	14621
870.71	14769
870.84	14720
870.97	14697
871.1	14716
871.23	14872
871.36	14895
871.489	14735
871.619	14724
871.749	14864
871.879	14785
872.008	14906
872.138	14880
872.267	14765
872.397	14705
872.526	14697
872.656	14583
872.785	14765
872.915	14918
873.044	14925
873.173	14880
873.303	14914
873.432	14891
873.561	15017
873.69	14998
873.819	14899
873.948	14948
874.077	14868
874.206	14872
874.335	14876
874.464	15097
874.593	15226
874.722	15104
874.851	15199
874.979	15226
875.108	15241
875.237	15173
875.365	15169
875.494	15142
875.623	15298
875.751	15165
875.88	15268
876.008	15443
876.136	15526
876.265	15778
876.393	15778
876.521	15755
876.65	15838
876.778	15652
876.906	15542
877.034	15557
877.162	15584
877.29	15519
877.418	15663
877.546	15644
877.674	15618
877.802	15671
877.93	15656
878.058	15515
878.185	15564
878.313	15557
878.441	15701
878.568	15473
878.696	15515
878.824	15690
878.951	15622
879.079	15812
879.206	15937
879.333	15869
879.461	15766
879.588	15827
879.715	15739
879.842	15823
879.97	15652
880.097	15485
880.224	15412
880.351	15507
880.478	15557
880.605	15443
880.732	15481
880.859	15618
880.986	15488
881.112	15443
881.239	15393
881.366	15317
881.493	15173
881.619	15100
881.746	15211
881.872	15116
881.999	15055
882.125	15157
882.252	15150
882.378	15150
882.505	15329
882.631	15108
882.757	14956
882.883	14998
883.01	14967
883.136	14933
883.262	14899
883.388	14834
883.514	15066
883.64	14887
883.766	14910
883.892	14758
884.018	14754
884.143	14876
884.269	15047
884.395	14735
884.52	14697
884.646	14659
884.772	14636
884.897	14648
885.023	14678
885.148	14754
885.274	14834
885.399	14758
885.524	14724
885.65	14678
885.775	14663
885.9	14720
886.025	14773
886.15	14758
886.275	14556
886.4	14545
886.525	14583
886.65	14552
886.775	14537
886.9	14754
887.025	14902
887.149	14651
887.274	14431
887.399	14393
887.523	14457
887.648	14355
887.773	14396
887.897	14545
888.021	14476
888.146	14484
888.27	14560
888.395	14613
888.519	14636
888.643	14530
888.767	14560
888.891	14431
889.015	14278
889.139	14389
889.263	14446
889.387	14480
889.511	14545
889.635	14518
889.759	14271
889.883	14389
890.006	14358
890.13	14450
890.254	14267
890.377	14263
890.501	14187
890.624	14111
890.748	14233
890.871	14130
890.995	14035
891.118	14001
891.241	14176
891.364	14058
891.488	14168
891.611	13993
891.734	14123
891.857	14100
891.98	14062
892.103	14149
892.226	14077
892.349	14100
892.471	13967
892.594	14115
892.717	14103
892.839	13997
892.962	14043
893.085	14123
893.207	14126
893.33	14005
893.452	14005
893.575	14077
893.697	14062
893.819	14248
893.941	14267
894.064	14237
894.186	14073
894.308	14039
894.43	14195
894.552	14237
894.674	14214
894.796	14084
894.918	14027
895.04	14115
895.161	14233
895.283	14206
895.405	14119
895.526	14111
895.648	14149
895.769	14233
895.891	14191
896.012	14275
896.134	14168
896.255	14271
896.376	14142
896.498	14252
896.619	14259
896.74	14275
896.861	14362
896.982	14602
897.103	14773
897.224	14606
897.345	14545
897.466	14438
897.587	14446
897.708	14514
897.828	14564
897.949	14461
898.07	14404
898.19	14495
898.311	14788
898.431	14450
898.552	14522
898.672	14632
898.792	14644
898.913	14575
899.033	14434
899.153	14571
899.273	14313
899.393	14404
899.513	14381
899.633	14393
899.753	14431
899.873	14320
899.993	14442
900.113	14480
900.232	14408
900.352	14374
900.472	14343
900.591	14233
900.711	14355
900.83	14191
900.95	14374
901.069	14404
901.189	14324
901.308	14062
901.427	13955
901.546	13932
901.665	13959
901.784	14077
901.904	13818
902.023	13753
902.141	13544
902.26	13544
902.379	13578
902.498	13613
902.617	13502
902.735	13616
902.854	13563
902.973	13480
903.091	13331
903.21	13255
903.328	13293
903.446	13282
903.565	13114
903.683	13031
903.801	12920
903.919	13152
904.038	13091
904.156	12958
904.274	13072
904.392	12973
904.51	12833
904.627	12856
904.745	12932
904.863	12966
904.981	12764
905.098	12593
905.216	12639
905.334	12631
905.451	12627
905.569	12551
905.686	12635
905.803	12566
905.921	12429
906.038	12536
906.155	12456
906.272	12391
906.389	12300
906.506	12258
906.623	12159
906.74	12205
906.857	12079
906.974	12133
907.091	12327
907.208	12361
907.324	12251
907.441	12182
907.557	11988
907.674	11965
907.79	11904
907.907	11939
908.023	11984
908.139	12026
908.256	11908
908.372	11908
908.488	11836
908.604	11771
908.72	11695
908.836	11729
908.952	11672
909.068	11748
909.184	11843
909.3	11630
909.415	11779
909.531	11726
909.647	11486
909.762	11478
909.878	11558
909.993	11493
910.108	11402
910.224	11471
910.339	11497
910.454	11326
910.57	11334
910.685	11261
910.8	11630
910.915	11524
911.03	11337
911.145	11223
911.259	11277
911.374	11159
911.489	11143
911.604	11098
911.718	10934
911.833	10991
911.947	10809
912.062	10759
912.176	10999
912.291	10976
912.405	11025
912.519	11124
912.633	11261
912.748	11056
912.862	11022
912.976	10896
913.09	10736
913.204	10835
913.318	10877
913.431	10869
913.545	10934
913.659	10904
913.772	10854
913.886	10725
914	10755
914.113	10854
914.226	10790
914.34	10828
914.453	10569
914.566	10790
914.68	10675
914.793	10565
914.906	10535
915.019	10466
915.132	10382
915.245	10379
915.358	10455
915.47	10481
915.583	10489
915.696	10630
915.809	10580
915.921	10675
916.034	10386
916.146	10466
916.259	10432
916.371	10481
916.483	10459
916.595	10341
916.708	10363
916.82	10379
916.932	10379
917.044	10367
917.156	10341
917.268	10280
917.38	10303
917.491	10268
917.603	10402
917.715	10421
917.826	10459
917.938	10261
918.049	10185
918.161	10207
918.272	10424
918.384	10489
918.495	10325
918.606	10166
918.717	10177
918.828	10200
918.939	10143
919.05	10063
919.161	10082
919.272	9968
919.383	10032
919.494	10249
919.604	10394
919.715	10128
919.826	10128
919.936	10124
920.047	10265
920.157	10261
920.267	10375
920.378	10215
920.488	10166
920.598	10363
920.708	10489
920.818	10337
920.928	10367
921.038	10573
921.148	10558
921.258	10261
921.368	10097
921.477	10200
921.587	10040
921.697	9899
921.806	10067
921.916	9960
922.025	9755
922.134	9789
922.244	9675
922.353	9785
922.462	9667
922.571	9587
922.68	9485
922.789	9469
922.898	9439
923.007	9431
923.116	9458
923.224	9359
923.333	9443
923.442	9397
923.55	9264
923.659	9310
923.767	9348
923.876	9344
923.984	9363
924.092	9237
924.201	9256
924.309	9332
924.417	9241
924.525	9294
924.633	9306
924.741	10188
924.849	9062
924.956	9214
925.064	9123
925.172	9005
925.279	9051
925.387	9123
925.494	9146
925.602	9154
925.709	9203
925.816	9013
925.924	9131
926.031	9214
926.138	9169
926.245	9192
926.352	9074
926.459	9108
926.566	9226
926.673	8990
926.779	8914
926.886	8990
926.993	8876
927.099	8826
927.206	8807
927.312	8750
927.419	8815
927.525	8788
927.631	8891
927.737	8686
927.843	8716
927.95	8583
928.056	8724
928.162	8712
928.267	8731
928.373	9321
928.479	8682
928.585	8526
928.69	8655
928.796	8754
928.901	8594
929.007	8549
929.112	8636
929.218	8606
929.323	8583
929.428	8579
929.533	8636
929.638	8461
929.743	8412
929.848	8484
929.953	8495
930.058	8408
930.163	8275
930.267	8256
930.372	8427
930.477	8286
930.581	8518
930.685	8377
930.79	8218
930.894	8214
930.998	8206
931.103	8438
931.207	8081
931.311	8031
931.415	7925
931.519	7803
931.623	7776
