Data from test_V78500241_2649.txt Node
Date: Fri Mar 25 14:52:09 CST 2022
User: usil
Spectrometer: V785-0024
Trigger mode: 0
Integration Time (sec): 4.000000E-1
Scans to average: 1
Nonlinearity correction enabled: false
Boxcar width: 0
Storing dark spectrum: false
XAxis mode: Wavelengths
Number of Pixels in Spectrum: 1024
>>>>>Begin Spectral Data<<<<<
801.071	21930
801.214	21850
801.356	21622
801.499	21519
801.641	21363
801.783	21344
801.926	21408
802.068	21287
802.211	21401
802.353	21226
802.496	20872
802.638	20918
802.78	20754
802.923	20758
803.065	20655
803.208	20705
803.35	20853
803.492	20697
803.635	20765
803.777	20648
803.919	20872
804.061	21013
804.204	20758
804.346	20746
804.488	20564
804.63	20727
804.773	20495
804.915	20670
805.057	20830
805.199	20632
805.341	20674
805.483	20705
805.626	20727
805.768	20655
805.91	20579
806.052	20552
806.194	20495
806.336	20769
806.478	20602
806.62	20560
806.762	20674
806.904	20727
807.046	20952
807.188	20891
807.33	20963
807.472	20990
807.614	20921
807.756	20902
807.898	20743
808.04	20678
808.182	20644
808.324	20621
808.465	20716
808.607	20906
808.749	21036
808.891	21116
809.033	21077
809.174	21055
809.316	20830
809.458	20948
809.6	20880
809.741	21070
809.883	21017
810.025	21036
810.166	21074
810.308	21192
810.45	21070
810.591	20944
810.733	20815
810.875	20796
811.016	20693
811.158	20606
811.299	20796
811.441	20830
811.582	20762
811.724	20716
811.865	20655
812.007	20629
812.148	20697
812.29	20625
812.431	20956
812.573	21017
812.714	21119
812.855	21237
812.997	21302
813.138	21363
813.279	21355
813.421	21245
813.562	21157
813.703	21051
813.845	20815
813.986	20636
814.127	20423
814.268	20419
814.41	20210
814.551	20286
814.692	20282
814.833	20199
814.974	20107
815.115	20328
815.256	20027
815.397	20142
815.539	20001
815.68	20012
815.821	19989
815.962	20039
816.103	19913
816.244	19894
816.385	19700
816.526	19681
816.666	19556
816.807	19441
816.948	19445
817.089	19609
817.23	19430
817.371	19419
817.512	19430
817.653	19468
817.793	19270
817.934	19365
818.075	19365
818.216	19521
818.356	19362
818.497	19183
818.638	19038
818.778	19095
818.919	19091
819.06	19091
819.2	19297
819.341	19362
819.481	19213
819.622	19468
819.762	19639
819.903	19601
820.043	19457
820.184	19441
820.324	19529
820.465	19377
820.605	19499
820.746	19381
820.886	19259
821.026	19343
821.167	19312
821.307	19400
821.447	19343
821.588	19171
821.728	19236
821.868	18962
822.008	18844
822.149	18867
822.289	18734
822.429	18585
822.569	18437
822.709	18471
822.849	18418
822.99	18384
823.13	18308
823.27	18239
823.41	18133
823.55	18045
823.69	18064
823.83	18197
823.97	18022
824.11	17912
824.25	17779
824.389	17927
824.529	17999
824.669	17824
824.809	17950
824.949	18003
825.089	18003
825.228	17828
825.368	17646
825.508	17722
825.648	17676
825.787	17676
825.927	17767
826.067	17573
826.206	17665
826.346	17756
826.485	17805
826.625	17767
826.765	17741
826.904	17718
827.044	17452
827.183	17474
827.323	17254
827.462	17467
827.601	17387
827.741	17303
827.88	17353
828.02	17277
828.159	17322
828.298	17414
828.437	17349
828.577	17330
828.716	17467
828.855	17216
828.994	17212
829.134	17124
829.273	17170
829.412	17014
829.551	17102
829.69	17006
829.829	17147
829.968	17299
830.107	17181
830.246	17261
830.385	17022
830.524	17025
830.663	16911
830.802	16831
830.941	16675
831.08	16725
831.219	16835
831.357	16793
831.496	17010
831.635	16736
831.774	16656
831.913	16702
832.051	16641
832.19	16645
832.329	16622
832.467	16443
832.606	16352
832.744	16466
832.883	16436
833.022	16512
833.16	16462
833.299	16451
833.437	16478
833.576	16466
833.714	16459
833.852	16485
833.991	16409
834.129	16577
834.267	16554
834.406	16428
834.544	16550
834.682	16474
834.821	16527
834.959	16630
835.097	16466
835.235	16588
835.373	16558
835.511	16580
835.65	16390
835.788	16440
835.926	16261
836.064	16242
836.202	16234
836.34	16421
836.478	16447
836.615	16341
836.753	16474
836.891	16531
837.029	16390
837.167	16333
837.305	16287
837.443	16325
837.58	16166
837.718	16371
837.856	16291
837.993	16253
838.131	16276
838.269	16200
838.406	16276
838.544	16128
838.681	16074
838.819	15945
838.956	15816
839.094	15903
839.231	15899
839.369	16002
839.506	16219
839.643	16048
839.781	15884
839.918	15759
840.055	15846
840.193	15827
840.33	15781
840.467	15812
840.604	15838
840.742	16074
840.879	15679
841.016	15698
841.153	15694
841.29	15991
841.427	15819
841.564	15835
841.701	15869
841.838	15808
841.975	15827
842.112	15778
842.249	15599
842.385	15599
842.522	15800
842.659	15675
842.796	15618
842.933	15663
843.069	15644
843.206	15694
843.343	15671
843.479	15614
843.616	15610
843.752	15378
843.889	15454
844.025	15610
844.162	15454
844.298	15526
844.435	15416
844.571	15363
844.708	15370
844.844	15584
844.98	15561
845.117	15530
845.253	15329
845.389	15176
845.525	15412
845.661	15298
845.798	15150
845.934	15256
846.07	15131
846.206	15302
846.342	15195
846.478	15123
846.614	15024
846.75	14971
846.886	14963
847.022	15024
847.158	15001
847.294	15009
847.429	14963
847.565	14994
847.701	15291
847.837	14792
847.972	14682
848.108	14880
848.244	14724
848.379	14575
848.515	14640
848.65	14674
848.786	14670
848.921	14590
849.057	14640
849.192	14613
849.328	14678
849.463	14598
849.598	14541
849.734	14518
849.869	14514
850.004	14351
850.14	14454
850.275	14332
850.41	14332
850.545	14237
850.68	14286
850.815	14240
850.95	14339
851.085	14522
851.22	14389
851.355	14415
851.49	14393
851.625	14259
851.76	14240
851.895	14248
852.03	14275
852.165	14298
852.299	14317
852.434	14454
852.569	14362
852.703	14427
852.838	14423
852.973	14492
853.107	14461
853.242	14244
853.376	14221
853.511	14103
853.645	14119
853.78	14328
853.914	14290
854.048	14202
854.183	14161
854.317	14294
854.451	14457
854.585	14301
854.72	14157
854.854	14252
854.988	14142
855.122	14187
855.256	14176
855.39	14168
855.524	14305
855.658	14309
855.792	14195
855.926	14233
856.06	14305
856.194	14278
856.327	14237
856.461	14164
856.595	14206
856.729	14199
856.862	14374
856.996	14324
857.13	14282
857.263	14404
857.397	14343
857.53	14168
857.664	14294
857.797	14320
857.931	14362
858.064	14294
858.197	14317
858.331	14107
858.464	14149
858.597	14164
858.731	14237
858.864	14210
858.997	14214
859.13	14092
859.263	14286
859.396	14259
859.529	14161
859.662	14145
859.795	14126
859.928	14221
860.061	14358
860.194	14419
860.327	14240
860.46	14172
860.592	14336
860.725	14298
860.858	14328
860.99	14225
861.123	14077
861.256	14153
861.388	14259
861.521	14872
861.653	14111
861.786	14050
861.918	14092
862.05	14073
862.183	14130
862.315	14199
862.447	14240
862.58	14123
862.712	14092
862.844	13841
862.976	14043
863.108	14115
863.24	14393
863.372	13951
863.504	14043
863.636	13982
863.768	14081
863.9	14088
864.032	13951
864.164	14020
864.296	14084
864.428	14107
864.559	14115
864.691	14111
864.823	14096
864.954	14039
865.086	14050
865.217	14016
865.349	13898
865.48	13963
865.612	14065
865.743	14145
865.875	14065
866.006	13894
866.137	13993
866.269	13974
866.4	14005
866.531	14039
866.662	13955
866.793	13887
866.924	13875
867.055	14001
867.186	13978
867.317	13902
867.448	13955
867.579	13940
867.71	13978
867.841	13841
867.972	13993
868.103	13921
868.233	14046
868.364	14024
868.495	14092
868.625	14180
868.756	14298
868.886	14119
869.017	14244
869.147	14271
869.278	14278
869.408	14263
869.539	14233
869.669	14301
869.799	14324
869.929	14233
870.06	14336
870.19	14549
870.32	14511
870.45	14530
870.58	14655
870.71	14769
870.84	14670
870.97	14663
871.1	14636
871.23	14781
871.36	14868
871.489	14678
871.619	14769
871.749	14804
871.879	14914
872.008	14914
872.138	14872
872.267	14876
872.397	14762
872.526	14686
872.656	14575
872.785	14537
872.915	14853
873.044	14868
873.173	14891
873.303	14883
873.432	14845
873.561	15039
873.69	14986
873.819	14906
873.948	14979
874.077	14960
874.206	14979
874.335	14921
874.464	14975
874.593	15138
874.722	15119
874.851	15184
874.979	15211
875.108	15272
875.237	15192
875.365	15116
875.494	15233
875.623	15260
875.751	15192
875.88	15241
876.008	15294
876.136	15469
876.265	15614
876.393	15819
876.521	15732
876.65	15686
876.778	15713
876.906	15671
877.034	15625
877.162	15553
877.29	15450
877.418	15686
877.546	15599
877.674	15469
877.802	15561
877.93	15599
878.058	15481
878.185	15542
878.313	15743
878.441	15606
878.568	15481
878.696	15545
878.824	15599
878.951	15667
879.079	15759
879.206	15907
879.333	15827
879.461	15774
879.588	15656
879.715	15899
879.842	15888
879.97	15720
880.097	15439
880.224	15454
880.351	15511
880.478	15485
880.605	15450
880.732	15458
880.859	15717
880.986	15435
881.112	15485
881.239	15397
881.366	15283
881.493	15161
881.619	15020
881.746	15199
881.872	15165
881.999	15173
882.125	15024
882.252	15165
882.378	15085
882.505	15367
882.631	15123
882.757	14914
882.883	14979
883.01	14963
883.136	14914
883.262	14910
883.388	14826
883.514	14963
883.64	14941
883.766	14800
883.892	14811
884.018	14830
884.143	14925
884.269	15047
884.395	14731
884.52	14655
884.646	14701
884.772	14575
884.897	14549
885.023	14674
885.148	14731
885.274	14769
885.399	14807
885.524	14636
885.65	14640
885.775	14686
885.9	14617
886.025	14796
886.15	14769
886.275	14606
886.4	14484
886.525	14629
886.65	14552
886.775	14636
886.9	14811
887.025	14975
887.149	14606
887.274	14454
887.399	14419
887.523	14438
887.648	14366
887.773	14389
887.897	14530
888.021	14598
888.146	14434
888.27	14583
888.395	14644
888.519	14537
888.643	14488
888.767	14575
888.891	14393
889.015	14381
889.139	14404
889.263	14351
889.387	14514
889.511	14537
889.635	14434
889.759	14301
889.883	14355
890.006	14370
890.13	14438
890.254	14263
890.377	14320
890.501	14161
890.624	14172
890.748	14290
890.871	14088
890.995	14024
891.118	13928
891.241	14058
891.364	14130
891.488	14134
891.611	14016
891.734	14088
891.857	14103
891.98	14039
892.103	14161
892.226	14096
892.349	14012
892.471	13890
892.594	14123
892.717	14050
892.839	14035
892.962	14027
893.085	14111
893.207	14020
893.33	14016
893.452	13951
893.575	14065
893.697	14020
893.819	14221
893.941	14240
894.064	14256
894.186	14016
894.308	14180
894.43	14237
894.552	14233
894.674	14218
894.796	13978
894.918	14126
895.04	14092
895.161	14294
895.283	14210
895.405	14126
895.526	14008
895.648	14229
895.769	14275
895.891	14191
896.012	14259
896.134	14275
896.255	14153
896.376	14145
896.498	14294
896.619	14275
896.74	14256
896.861	14252
896.982	14533
897.103	14781
897.224	14533
897.345	14423
897.466	14427
897.587	14446
897.708	14583
897.828	14465
897.949	14492
898.07	14332
898.19	14465
898.311	14625
898.431	14492
898.552	14495
898.672	14644
898.792	14693
898.913	14587
899.033	14503
899.153	14526
899.273	14396
899.393	14343
899.513	14495
899.633	14408
899.753	14431
899.873	14446
899.993	14427
900.113	14336
900.232	14465
900.352	14336
900.472	14362
900.591	14263
900.711	14263
900.83	14195
900.95	14290
901.069	14438
901.189	14153
901.308	14035
901.427	13974
901.546	13993
901.665	14084
901.784	13970
901.904	13849
902.023	13765
902.141	13537
902.26	13537
902.379	13624
902.498	13480
902.617	13460
902.735	13620
902.854	13529
902.973	13480
903.091	13293
903.21	13270
903.328	13289
903.446	13152
903.565	13110
903.683	13072
903.801	13019
903.919	13122
904.038	13004
904.156	12943
904.274	13012
904.392	12859
904.51	12875
904.627	12996
904.745	13023
904.863	12897
904.981	12722
905.098	12684
905.216	12692
905.334	12585
905.451	12593
905.569	12601
905.686	12734
905.803	12669
905.921	12506
906.038	12441
906.155	12441
906.272	12384
906.389	12346
906.506	12197
906.623	12258
906.74	12270
906.857	12121
906.974	12152
907.091	12308
907.208	12338
907.324	12285
907.441	12087
907.557	11870
907.674	11958
907.79	11840
907.907	11904
908.023	12030
908.139	11977
908.256	11992
908.372	11889
908.488	11828
908.604	11794
908.72	11695
908.836	11714
908.952	11695
909.068	11733
909.184	11813
909.3	11726
909.415	11741
909.531	11646
909.647	11543
909.762	11429
909.878	11482
909.993	11524
910.108	11448
910.224	11589
910.339	11471
910.454	11414
910.57	11345
910.685	11265
910.8	11589
910.915	11486
911.03	11360
911.145	11189
911.259	11151
911.374	11162
911.489	11178
911.604	11079
911.718	10972
911.833	10877
911.947	10809
912.062	10721
912.176	10965
912.291	10915
912.405	10946
912.519	11208
912.633	11117
912.748	11060
912.862	10972
912.976	10911
913.09	10755
913.204	10790
913.318	10778
913.431	10965
913.545	10828
913.659	10858
913.772	10885
913.886	10736
914	10710
914.113	10858
914.226	10869
914.34	10755
914.453	10626
914.566	10733
914.68	10683
914.793	10596
914.906	10436
915.019	10386
915.132	10375
915.245	10394
915.358	10519
915.47	10535
915.583	10478
915.696	10485
915.809	10577
915.921	10630
916.034	10402
916.146	10375
916.259	10363
916.371	10523
916.483	10512
916.595	10402
916.708	10451
916.82	10421
916.932	10382
917.044	10413
917.156	10348
917.268	10257
917.38	10367
917.491	10306
917.603	10276
917.715	10356
917.826	10382
917.938	10249
918.049	10128
918.161	10310
918.272	10417
918.384	10455
918.495	10310
918.606	10166
918.717	10135
918.828	10204
918.939	10169
919.05	10029
919.161	10135
919.272	9972
919.383	10040
919.494	10204
919.604	10405
919.715	10200
919.826	10101
919.936	10177
920.047	10249
920.157	10173
920.267	10421
920.378	10234
920.488	10200
920.598	10394
920.708	10493
920.818	10310
920.928	10451
921.038	10519
921.148	10481
921.258	10284
921.368	10166
921.477	10059
921.587	10063
921.697	9922
921.806	10082
921.916	9964
922.025	9705
922.134	9728
922.244	9698
922.353	9743
922.462	9614
922.571	9561
922.68	9485
922.789	9420
922.898	9481
923.007	9367
923.116	9496
923.224	9424
923.333	9466
923.442	9340
923.55	9317
923.659	9344
923.767	9370
923.876	9332
923.984	9340
924.092	9199
924.201	9298
924.309	9226
924.417	9332
924.525	9294
924.633	9298
924.741	10093
924.849	9203
924.956	9173
925.064	9039
925.172	9024
925.279	9066
925.387	9100
925.494	9093
925.602	9176
925.709	9089
925.816	9055
925.924	9017
926.031	9161
926.138	9097
926.245	9157
926.352	9051
926.459	9097
926.566	9188
926.673	9062
926.779	8975
926.886	8971
926.993	8800
927.099	8773
927.206	8781
927.312	8876
927.419	8883
927.525	8830
927.631	8864
927.737	8716
927.843	8697
927.95	8583
928.056	8659
928.162	8758
928.267	8807
928.373	9443
928.479	8773
928.585	8587
928.69	8773
928.796	8708
928.901	8602
929.007	8522
929.112	8621
929.218	8552
929.323	8617
929.428	8514
929.533	8648
929.638	8431
929.743	8530
929.848	8560
929.953	8511
930.058	8461
930.163	8290
930.267	8351
930.372	8476
930.477	8282
930.581	8514
930.685	8423
930.79	8206
930.894	8240
930.998	8240
931.103	8343
931.207	8024
931.311	7932
931.415	8005
931.519	7765
931.623	7772
