Data from test_V78500241_679.txt Node
Date: Fri Mar 25 14:38:26 CST 2022
User: usil
Spectrometer: V785-0024
Trigger mode: 0
Integration Time (sec): 4.000000E-1
Scans to average: 1
Nonlinearity correction enabled: false
Boxcar width: 0
Storing dark spectrum: false
XAxis mode: Wavelengths
Number of Pixels in Spectrum: 1024
>>>>>Begin Spectral Data<<<<<
801.071	28185
801.214	27941
801.356	27816
801.499	27819
801.641	27603
801.783	27545
801.926	27561
802.068	27427
802.211	27260
802.353	27325
802.496	27154
802.638	27032
802.78	26876
802.923	27081
803.065	27001
803.208	26998
803.35	27039
803.492	27180
803.635	27047
803.777	27230
803.919	27028
804.061	27504
804.204	27424
804.346	27287
804.488	27283
804.63	27405
804.773	27260
804.915	27363
805.057	27580
805.199	27545
805.341	27660
805.483	27698
805.626	27869
805.768	27755
805.91	27930
806.052	28215
806.194	28177
806.336	28538
806.478	28462
806.62	28584
806.762	28885
806.904	29459
807.046	29847
807.188	30254
807.33	30661
807.472	31251
807.614	31868
807.756	32826
807.898	34021
808.04	35383
808.182	37472
808.324	39914
808.465	43057
808.607	46272
808.749	49107
808.891	51058
809.033	51268
809.174	49479
809.316	46721
809.458	43126
809.6	39728
809.741	37232
809.883	34953
810.025	33473
810.166	32237
810.308	31563
810.45	30867
810.591	30285
810.733	29722
810.875	29356
811.016	29010
811.158	28858
811.299	28790
811.441	28721
811.582	28592
811.724	28375
811.865	28169
812.007	28074
812.148	27899
812.29	27987
812.431	27987
812.573	28196
812.714	28177
812.855	28013
812.997	28200
813.138	28226
813.279	28116
813.421	28029
813.562	27911
813.703	27709
813.845	27606
813.986	27252
814.127	27043
814.268	26788
814.41	26944
814.551	26842
814.692	26823
814.833	26659
814.974	26701
815.115	26750
815.256	26674
815.397	26556
815.539	26423
815.68	26530
815.821	26282
815.962	26404
816.103	26294
816.244	26244
816.385	26119
816.526	26084
816.666	25704
816.807	25674
816.948	25700
817.089	25708
817.23	25605
817.371	25655
817.512	25605
817.653	25476
817.793	25479
817.934	25578
818.075	25632
818.216	25525
818.356	25373
818.497	25495
818.638	25228
818.778	25240
818.919	25228
819.06	25270
819.2	25316
819.341	25464
819.481	25518
819.622	25666
819.762	25731
819.903	25521
820.043	25567
820.184	25514
820.324	25571
820.465	25571
820.605	25411
820.746	25365
820.886	25247
821.026	25422
821.167	25293
821.307	25388
821.447	25206
821.588	25266
821.728	25072
821.868	24753
822.008	24654
822.149	24639
822.289	24681
822.429	24311
822.569	24334
822.709	24315
822.849	24186
822.99	24064
823.13	24057
823.27	24049
823.41	23832
823.55	23748
823.69	23866
823.83	23843
823.97	23832
824.11	23672
824.25	23592
824.389	23619
824.529	23615
824.669	23619
824.809	23748
824.949	23707
825.089	23611
825.228	23653
825.368	23387
825.508	23486
825.648	23524
825.787	23398
825.927	23482
826.067	23311
826.206	23433
826.346	23528
826.485	23360
826.625	23364
826.765	23547
826.904	23387
827.044	23151
827.183	23181
827.323	23124
827.462	23166
827.601	23064
827.741	23067
827.88	23117
828.02	23006
828.159	23041
828.298	23003
828.437	23140
828.577	22957
828.716	23155
828.855	22915
828.994	22797
829.134	22793
829.273	22816
829.412	22748
829.551	22630
829.69	22725
829.829	22668
829.968	22744
830.107	22786
830.246	22721
830.385	22622
830.524	22683
830.663	22516
830.802	22531
830.941	22386
831.08	22295
831.219	22291
831.357	22466
831.496	22455
831.635	22432
831.774	22230
831.913	22204
832.051	22162
832.19	22265
832.329	22306
832.467	22070
832.606	22086
832.744	22226
832.883	22215
833.022	22341
833.16	22413
833.299	22504
833.437	22744
833.576	22858
833.714	22987
833.852	23086
833.991	23048
834.129	23372
834.267	23337
834.406	23143
834.544	23102
834.682	23124
834.821	22995
834.959	22968
835.097	22729
835.235	22653
835.373	22603
835.511	22470
835.65	22246
835.788	22166
835.926	22090
836.064	21903
836.202	21850
836.34	21930
836.478	21964
836.615	21888
836.753	21907
836.891	21895
837.029	21899
837.167	21720
837.305	21747
837.443	21561
837.58	21629
837.718	21762
837.856	21663
837.993	21622
838.131	21675
838.269	21488
838.406	21553
838.544	21481
838.681	21272
838.819	21241
838.956	21127
839.094	21017
839.231	21051
839.369	21302
839.506	21378
839.643	21382
839.781	20952
839.918	20941
840.055	21077
840.193	21051
840.33	21036
840.467	21108
840.604	20975
840.742	21363
840.879	20811
841.016	21089
841.153	20697
841.29	21047
841.427	20925
841.564	21066
841.701	21055
841.838	21051
841.975	20937
842.112	21055
842.249	20834
842.385	20769
842.522	21062
842.659	20887
842.796	20891
842.933	20975
843.069	20826
843.206	20785
843.343	20925
843.479	20933
843.616	21020
843.752	20937
843.889	20986
844.025	21116
844.162	21005
844.298	21233
844.435	21317
844.571	21401
844.708	21739
844.844	22226
844.98	22653
845.117	23162
845.253	24098
845.389	26020
845.525	29779
845.661	35634
845.798	42437
845.934	47611
846.07	49518
846.206	47977
846.342	43137
846.478	36262
846.614	30369
846.75	26602
846.886	24247
847.022	22980
847.158	22166
847.294	21568
847.429	21230
847.565	20952
847.701	21028
847.837	20324
847.972	20168
848.108	20229
848.244	20225
848.379	19898
848.515	19887
848.65	19852
848.786	19807
848.921	19742
849.057	19894
849.192	19750
849.328	19700
849.463	19772
849.598	19693
849.734	19666
849.869	19510
850.004	19491
850.14	19464
850.275	19540
850.41	19487
850.545	19308
850.68	19411
850.815	19438
850.95	19293
851.085	19544
851.22	19434
851.355	19304
851.49	19449
851.625	19320
851.76	19331
851.895	19350
852.03	19339
852.165	19422
852.299	19563
852.434	19445
852.569	19403
852.703	19487
852.838	19601
852.973	19628
853.107	19658
853.242	19529
853.376	19441
853.511	19251
853.645	19362
853.78	19632
853.914	19620
854.048	19647
854.183	19544
854.317	19712
854.451	19871
854.585	19495
854.72	19597
854.854	19674
854.988	19453
855.122	19483
855.256	19422
855.39	19457
855.524	19506
855.658	19422
855.792	19487
855.926	19236
856.06	19320
856.194	19278
856.327	19312
856.461	19209
856.595	19194
856.729	19244
856.862	19403
856.996	19392
857.13	19244
857.263	19312
857.397	19266
857.53	19255
857.664	19270
857.797	19152
857.931	19285
858.064	19339
858.197	19285
858.331	19129
858.464	19008
858.597	19038
858.731	19046
858.864	19091
858.997	19129
859.13	19129
859.263	19187
859.396	19148
859.529	18993
859.662	19080
859.795	19023
859.928	19027
860.061	19179
860.194	19137
860.327	18985
860.46	19012
860.592	19114
860.725	19179
860.858	19107
860.99	19038
861.123	18920
861.256	18871
861.388	18890
861.521	19647
861.653	18878
861.786	18890
861.918	18863
862.05	18966
862.183	18977
862.315	18909
862.447	18966
862.58	18913
862.712	18783
862.844	18639
862.976	18806
863.108	18719
863.24	19008
863.372	18559
863.504	18715
863.636	18715
863.768	18859
863.9	18696
864.032	18544
864.164	18612
864.296	18563
864.428	18741
864.559	18726
864.691	18734
864.823	18749
864.954	18620
865.086	18608
865.217	18585
865.349	18502
865.48	18547
865.612	18593
865.743	18661
865.875	18623
866.006	18509
866.137	18658
866.269	18589
866.4	18612
866.531	18540
866.662	18456
866.793	18517
866.924	18563
867.055	18570
867.186	18631
867.317	18566
867.448	18528
867.579	18570
867.71	18513
867.841	18426
867.972	18593
868.103	18612
868.233	18494
868.364	18604
868.495	18688
868.625	18890
868.756	18795
868.886	18741
869.017	18738
869.147	18981
869.278	18932
869.408	18817
869.539	18776
869.669	18871
869.799	18852
869.929	18947
870.06	18859
870.19	19126
870.32	19107
870.45	19206
870.58	19251
870.71	19362
870.84	19499
870.97	19297
871.1	19339
871.23	19430
871.36	19381
871.489	19316
871.619	19472
871.749	19491
871.879	19499
872.008	19662
872.138	19556
872.267	19624
872.397	19533
872.526	19495
872.656	19445
872.785	19445
872.915	19601
873.044	19868
873.173	19696
873.303	19769
873.432	19769
873.561	19871
873.69	19807
873.819	19799
873.948	19871
874.077	19753
874.206	19784
874.335	19993
874.464	20092
874.593	20218
874.722	20161
874.851	20324
874.979	20385
875.108	20374
875.237	20263
875.365	20278
875.494	20590
875.623	20659
875.751	20450
875.88	20598
876.008	20693
876.136	20830
876.265	21051
876.393	21329
876.521	21272
876.65	21348
876.778	21313
876.906	21272
877.034	21397
877.162	21431
877.29	21428
877.418	21671
877.546	21766
877.674	21812
877.802	21903
877.93	22116
878.058	22253
878.185	22440
878.313	22733
878.441	23071
878.568	23356
878.696	24083
878.824	24859
878.951	25822
879.079	27576
879.206	29524
879.333	31601
879.461	33462
879.588	34360
879.715	34550
879.842	33599
879.97	31681
880.097	29497
880.224	27831
880.351	26636
880.478	25883
880.605	25171
880.732	24829
880.859	24916
880.986	24350
881.112	24391
881.239	24030
881.366	23999
881.493	23889
881.619	23904
881.746	23977
881.872	23996
881.999	24072
882.125	23980
882.252	24117
882.378	24106
882.505	24281
882.631	23961
882.757	23897
882.883	24087
883.01	24007
883.136	23847
883.262	23623
883.388	23783
883.514	23786
883.64	24007
883.766	23809
883.892	23703
884.018	23707
884.143	23840
884.269	24083
884.395	23665
884.52	23592
884.646	23589
884.772	23566
884.897	23600
885.023	23718
885.148	23794
885.274	23767
885.399	23520
885.524	23246
885.65	23246
885.775	23155
885.9	22999
886.025	22976
886.15	22805
886.275	22474
886.4	22314
886.525	22291
886.65	22055
886.775	21907
886.9	22032
887.025	22006
887.149	21759
887.274	21492
887.399	21382
887.523	21336
887.648	21062
887.773	20986
887.897	21252
888.021	20994
888.146	20899
888.27	20830
888.395	20929
888.519	20693
888.643	20750
888.767	20746
888.891	20568
889.015	20438
889.139	20396
889.263	20240
889.387	20317
889.511	20442
889.635	20400
889.759	20191
889.883	20130
890.006	20084
890.13	20126
890.254	19944
890.377	19951
890.501	19708
890.624	19757
890.748	19742
890.871	19639
890.995	19396
891.118	19556
891.241	19495
891.364	19457
891.488	19480
891.611	19377
891.734	19304
891.857	19365
891.98	19255
892.103	19301
892.226	19164
892.349	19190
892.471	18894
892.594	18989
892.717	19114
892.839	19004
892.962	19038
893.085	19012
893.207	18897
893.33	18806
893.452	18856
893.575	18932
893.697	18852
893.819	18981
893.941	18882
894.064	18886
894.186	18639
894.308	18601
894.43	18779
894.552	18806
894.674	18821
894.796	18585
894.918	18536
895.04	18547
895.161	18772
895.283	18639
895.405	18517
895.526	18513
895.648	18574
895.769	18445
895.891	18646
896.012	18623
896.134	18555
896.255	18578
896.376	18486
896.498	18521
896.619	18528
896.74	18525
896.861	18494
896.982	18848
897.103	18825
897.224	18703
897.345	18661
897.466	18593
897.587	18730
897.708	18753
897.828	18711
897.949	18521
898.07	18521
898.19	18521
898.311	18726
898.431	18608
898.552	18585
898.672	18608
898.792	18669
898.913	18673
899.033	18570
899.153	18502
899.273	18319
899.393	18433
899.513	18456
899.633	18418
899.753	18338
899.873	18334
899.993	18471
900.113	18346
900.232	18361
900.352	18391
900.472	18281
900.591	18213
900.711	18186
900.83	18117
900.95	18239
901.069	18350
901.189	18083
901.308	17836
901.427	17832
901.546	17764
901.665	17775
901.784	17745
901.904	17501
902.023	17440
902.141	17280
902.26	17372
902.379	17277
902.498	17269
902.617	17098
902.735	17231
902.854	17166
902.973	17117
903.091	16889
903.21	16786
903.328	16767
903.446	16618
903.565	16592
903.683	16504
903.801	16508
903.919	16622
904.038	16481
904.156	16436
904.274	16409
904.392	16424
904.51	16329
904.627	16303
904.745	16390
904.863	16436
904.981	16101
905.098	15960
905.216	16036
905.334	15922
905.451	16002
905.569	15903
905.686	16013
905.803	16006
905.921	15709
906.038	15899
906.155	15892
906.272	15675
906.389	15690
906.506	15599
906.623	15584
906.74	15397
906.857	15378
906.974	15401
907.091	15553
907.208	15663
907.324	15500
907.441	15374
907.557	15214
907.674	15169
907.79	15104
907.907	15173
908.023	15165
908.139	15161
908.256	15192
908.372	15108
908.488	15024
908.604	15036
908.72	14876
908.836	14952
908.952	14872
909.068	14975
909.184	14982
909.3	14883
909.415	14902
909.531	14838
909.647	14659
909.762	14613
909.878	14526
909.993	14716
910.108	14682
910.224	14636
910.339	14636
910.454	14571
910.57	14446
910.685	14400
910.8	14769
910.915	14678
911.03	14457
911.145	14336
911.259	14275
911.374	14256
911.489	14278
911.604	14077
911.718	14005
911.833	14001
911.947	13993
912.062	13833
912.176	13944
912.291	14043
912.405	13989
912.519	14161
912.633	14252
912.748	13974
912.862	13970
912.976	13803
913.09	13693
913.204	13826
913.318	13883
913.431	14024
913.545	13902
913.659	13967
913.772	13742
913.886	13719
914	13750
914.113	13761
914.226	13898
914.34	13791
914.453	13620
914.566	13746
914.68	13578
914.793	13552
914.906	13464
915.019	13346
915.132	13263
915.245	13365
915.358	13438
915.47	13396
915.583	13312
915.696	13369
915.809	13422
915.921	13464
916.034	13358
916.146	13282
916.259	13274
916.371	13438
916.483	13453
916.595	13316
916.708	13255
916.82	13308
916.932	13304
917.044	13282
917.156	13225
917.268	13065
917.38	13152
917.491	13038
917.603	13095
917.715	13168
917.826	13190
917.938	13069
918.049	12958
918.161	13057
918.272	13217
918.384	13076
918.495	13019
918.606	12856
918.717	12852
918.828	12840
918.939	12844
919.05	12711
919.161	12802
919.272	12570
919.383	12711
919.494	12909
919.604	13012
919.715	12886
919.826	12677
919.936	12783
920.047	12894
920.157	12753
920.267	12981
920.378	12932
920.488	12833
920.598	12928
920.708	13149
920.818	12916
920.928	13027
921.038	13057
921.148	13088
921.258	12791
921.368	12776
921.477	12578
921.587	12532
921.697	12414
921.806	12521
921.916	12410
922.025	12296
922.134	12197
922.244	12209
922.353	12251
922.462	12129
922.571	12060
922.68	11912
922.789	11904
922.898	11885
923.007	11843
923.116	11946
923.224	11866
923.333	11882
923.442	11832
923.55	11779
923.659	11771
923.767	11783
923.876	11729
923.984	11783
924.092	11619
924.201	11718
924.309	11668
924.417	11703
924.525	11562
924.633	11714
924.741	12551
924.849	11528
924.956	11619
925.064	11425
925.172	11356
925.279	11440
925.387	11387
925.494	11467
925.602	11490
925.709	11444
925.816	11341
925.924	11284
926.031	11444
926.138	11299
926.245	11414
926.352	11258
926.459	11296
926.566	11421
926.673	11341
926.779	11174
926.886	11269
926.993	11071
927.099	10987
927.206	11033
927.312	10949
927.419	11086
927.525	11029
927.631	11014
927.737	10995
927.843	10942
927.95	10740
928.056	10847
928.162	10847
928.267	11003
928.373	11440
928.479	10927
928.585	10759
928.69	10831
928.796	10850
928.901	10797
929.007	10622
929.112	10755
929.218	10740
929.323	10615
929.428	10618
929.533	10721
929.638	10626
929.743	10558
929.848	10721
929.953	10622
930.058	10447
930.163	10421
930.267	10424
930.372	10569
930.477	10272
930.581	10516
930.685	10516
930.79	10265
930.894	10272
930.998	10234
931.103	10363
931.207	10032
931.311	9953
931.415	9800
931.519	9747
931.623	9663
