Data from test_V78500241_313.txt Node
Date: Fri Mar 25 14:35:54 CST 2022
User: usil
Spectrometer: V785-0024
Trigger mode: 0
Integration Time (sec): 4.000000E-1
Scans to average: 1
Nonlinearity correction enabled: false
Boxcar width: 0
Storing dark spectrum: false
XAxis mode: Wavelengths
Number of Pixels in Spectrum: 1024
>>>>>Begin Spectral Data<<<<<
801.071	27116
801.214	27062
801.356	26724
801.499	26629
801.641	26514
801.783	26423
801.926	26522
802.068	26412
802.211	26381
802.353	26259
802.496	26195
802.638	25989
802.78	26088
802.923	26122
803.065	25868
803.208	25947
803.35	26081
803.492	26275
803.635	26229
803.777	25974
803.919	26164
804.061	26366
804.204	26126
804.346	26050
804.488	25963
804.63	26081
804.773	25879
804.915	26054
805.057	26069
805.199	25940
805.341	26088
805.483	26016
805.626	26065
805.768	25974
805.91	26172
806.052	26145
806.194	26073
806.336	26218
806.478	25947
806.62	26035
806.762	26202
806.904	26317
807.046	26488
807.188	26568
807.33	26366
807.472	26446
807.614	26537
807.756	26324
807.898	26381
808.04	26343
808.182	26195
808.324	26320
808.465	26351
808.607	26328
808.749	26716
808.891	26777
809.033	26682
809.174	26727
809.316	26526
809.458	26606
809.6	26541
809.741	26594
809.883	26587
810.025	26735
810.166	26644
810.308	26678
810.45	26693
810.591	26571
810.733	26492
810.875	26404
811.016	26370
811.158	26362
811.299	26507
811.441	26503
811.582	26511
811.724	26343
811.865	26313
812.007	26408
812.148	26438
812.29	26404
812.431	26651
812.573	26785
812.714	26769
812.855	26887
812.997	26861
813.138	27001
813.279	27112
813.421	27020
813.562	26815
813.703	26655
813.845	26678
813.986	26362
814.127	26199
814.268	25947
814.41	26100
814.551	25955
814.692	26115
814.833	25978
814.974	26100
815.115	25871
815.256	25841
815.397	25845
815.539	25822
815.68	25864
815.821	25658
815.962	25704
816.103	25731
816.244	25514
816.385	25529
816.526	25476
816.666	25293
816.807	25114
816.948	25232
817.089	25179
817.23	25179
817.371	25148
817.512	25171
817.653	24981
817.793	24966
817.934	25061
818.075	25004
818.216	25126
818.356	25012
818.497	24981
818.638	24734
818.778	24833
818.919	24783
819.06	24745
819.2	25004
819.341	24882
819.481	24882
819.622	25179
819.762	25403
819.903	25301
820.043	25141
820.184	25164
820.324	25206
820.465	25217
820.605	25027
820.746	25057
820.886	24977
821.026	25034
821.167	25000
821.307	24973
821.447	24943
821.588	24867
821.728	24700
821.868	24620
822.008	24437
822.149	24547
822.289	24471
822.429	24133
822.569	24072
822.709	24095
822.849	23870
822.99	23821
823.13	23863
823.27	23885
823.41	23668
823.55	23547
823.69	23726
823.83	23581
823.97	23623
824.11	23387
824.25	23455
824.389	23398
824.529	23455
824.669	23322
824.809	23478
824.949	23463
825.089	23376
825.228	23528
825.368	23261
825.508	23246
825.648	23121
825.787	23341
825.927	23303
826.067	23239
826.206	23181
826.346	23235
826.485	23261
826.625	23315
826.765	23273
826.904	23151
827.044	23060
827.183	22900
827.323	22858
827.462	22900
827.601	22809
827.741	22938
827.88	22919
828.02	22790
828.159	22805
828.298	22927
828.437	22972
828.577	22835
828.716	22965
828.855	22786
828.994	22763
829.134	22481
829.273	22607
829.412	22626
829.551	22519
829.69	22462
829.829	22550
829.968	22569
830.107	22599
830.246	22603
830.385	22489
830.524	22455
830.663	22379
830.802	22371
830.941	22310
831.08	22150
831.219	22325
831.357	22162
831.496	22337
831.635	22238
831.774	22139
831.913	21941
832.051	22048
832.19	21899
832.329	21964
832.467	21800
832.606	21743
832.744	21705
832.883	21762
833.022	21812
833.16	21728
833.299	21850
833.437	21854
833.576	21865
833.714	21953
833.852	21846
833.991	21926
834.129	21930
834.267	21865
834.406	21808
834.544	21675
834.682	21797
834.821	21732
834.959	21972
835.097	21743
835.235	21888
835.373	21648
835.511	21793
835.65	21568
835.788	21606
835.926	21629
836.064	21504
836.202	21549
836.34	21629
836.478	21793
836.615	21553
836.753	21610
836.891	21625
837.029	21713
837.167	21686
837.305	21542
837.443	21542
837.58	21538
837.718	21523
837.856	21526
837.993	21363
838.131	21344
838.269	21355
838.406	21424
838.544	21272
838.681	21241
838.819	21146
838.956	20994
839.094	20994
839.231	20887
839.369	21077
839.506	21268
839.643	21104
839.781	20941
839.918	20880
840.055	20811
840.193	20845
840.33	20921
840.467	20792
840.604	20830
840.742	21036
840.879	20731
841.016	20693
841.153	20617
841.29	20883
841.427	20849
841.564	20857
841.701	20845
841.838	20739
841.975	20617
842.112	20743
842.249	20609
842.385	20564
842.522	20804
842.659	20530
842.796	20518
842.933	20575
843.069	20530
843.206	20450
843.343	20583
843.479	20518
843.616	20568
843.752	20294
843.889	20317
844.025	20404
844.162	20328
844.298	20351
844.435	20320
844.571	20351
844.708	20389
844.844	20507
844.98	20476
845.117	20446
845.253	20309
845.389	20130
845.525	20126
845.661	20138
845.798	20176
845.934	20202
846.07	20183
846.206	20237
846.342	20320
846.478	20077
846.614	19864
846.75	19784
846.886	19841
847.022	19811
847.158	19795
847.294	19761
847.429	19791
847.565	19746
847.701	19944
847.837	19533
847.972	19483
848.108	19559
848.244	19609
848.379	19384
848.515	19289
848.65	19259
848.786	19316
848.921	19331
849.057	19529
849.192	19270
849.328	19316
849.463	19346
849.598	19316
849.734	19293
849.869	19240
850.004	19225
850.14	19072
850.275	19194
850.41	19057
850.545	19095
850.68	18989
850.815	19225
850.95	18928
851.085	19202
851.22	19126
851.355	19034
851.49	19053
851.625	19122
851.76	19099
851.895	18924
852.03	18920
852.165	19057
852.299	19076
852.434	19126
852.569	18966
852.703	18989
852.838	19080
852.973	19194
853.107	19145
853.242	19122
853.376	18821
853.511	18768
853.645	18757
853.78	18958
853.914	18878
854.048	18833
854.183	18871
854.317	18875
854.451	19012
854.585	18932
854.72	18844
854.854	18871
854.988	18719
855.122	18924
855.256	18753
855.39	18856
855.524	18981
855.658	18928
855.792	18814
855.926	18890
856.06	18840
856.194	19012
856.327	18878
856.461	18779
856.595	18639
856.729	18890
856.862	18913
856.996	18928
857.13	18985
857.263	18863
857.397	18909
857.53	18821
857.664	18920
857.797	19046
857.931	18981
858.064	19012
858.197	18989
858.331	18833
858.464	18764
858.597	18844
858.731	18757
858.864	18779
858.997	18776
859.13	18943
859.263	18856
859.396	18844
859.529	18734
859.662	18825
859.795	18760
859.928	18665
860.061	18951
860.194	18909
860.327	18852
860.46	18837
860.592	18848
860.725	18878
860.858	18954
860.99	18802
861.123	18760
861.256	18863
861.388	18833
861.521	19491
861.653	18703
861.786	18681
861.918	18639
862.05	18764
862.183	18753
862.315	18901
862.447	18932
862.58	18829
862.712	18665
862.844	18612
862.976	18631
863.108	18593
863.24	18852
863.372	18513
863.504	18525
863.636	18517
863.768	18566
863.9	18528
864.032	18395
864.164	18467
864.296	18578
864.428	18597
864.559	18574
864.691	18688
864.823	18509
864.954	18563
865.086	18525
865.217	18414
865.349	18357
865.48	18426
865.612	18502
865.743	18669
865.875	18502
866.006	18441
866.137	18494
866.269	18551
866.4	18433
866.531	18502
866.662	18448
866.793	18372
866.924	18445
867.055	18448
867.186	18506
867.317	18273
867.448	18384
867.579	18376
867.71	18395
867.841	18330
867.972	18407
868.103	18346
868.233	18456
868.364	18418
868.495	18517
868.625	18707
868.756	18646
868.886	18585
869.017	18673
869.147	18810
869.278	18734
869.408	18665
869.539	18623
869.669	18684
869.799	18741
869.929	18673
870.06	18787
870.19	19000
870.32	18951
870.45	19004
870.58	19069
870.71	19183
870.84	19152
870.97	19050
871.1	19027
871.23	19190
871.36	19327
871.489	19171
871.619	19240
871.749	19297
871.879	19190
872.008	19270
872.138	19244
872.267	19217
872.397	19072
872.526	19171
872.656	19129
872.785	19084
872.915	19206
873.044	19168
873.173	19148
873.303	19270
873.432	19308
873.561	19327
873.69	19335
873.819	19362
873.948	19426
874.077	19164
874.206	19278
874.335	19187
874.464	19388
874.593	19483
874.722	19559
874.851	19658
874.979	19655
875.108	19594
875.237	19487
875.365	19445
875.494	19529
875.623	19540
875.751	19552
875.88	19521
876.008	19540
876.136	19696
876.265	19928
876.393	20027
876.521	20016
876.65	20008
876.778	19974
876.906	20016
877.034	19852
877.162	19898
877.29	19928
877.418	20031
877.546	19883
877.674	19883
877.802	19974
877.93	20069
878.058	19780
878.185	19811
878.313	19890
878.441	19959
878.568	19704
878.696	19928
878.824	19913
878.951	20065
879.079	20126
879.206	20176
879.333	20126
879.461	20043
879.588	20039
879.715	20244
879.842	20294
879.97	19989
880.097	19753
880.224	19845
880.351	19822
880.478	19715
880.605	19879
880.732	19765
880.859	20046
880.986	19761
881.112	19898
881.239	19670
881.366	19533
881.493	19457
881.619	19324
881.746	19354
881.872	19468
881.999	19407
882.125	19301
882.252	19495
882.378	19499
882.505	19544
882.631	19232
882.757	19126
882.883	19179
883.01	19236
883.136	19061
883.262	19133
883.388	19019
883.514	19168
883.64	19217
883.766	19141
883.892	18913
884.018	18875
884.143	19160
884.269	19156
884.395	18863
884.52	18798
884.646	18875
884.772	18730
884.897	18734
885.023	18878
885.148	18989
885.274	19069
885.399	18871
885.524	18844
885.65	18821
885.775	18817
885.9	18825
886.025	18928
886.15	18825
886.275	18745
886.4	18722
886.525	18681
886.65	18722
886.775	18787
886.9	18730
887.025	18958
887.149	18776
887.274	18661
887.399	18654
887.523	18559
887.648	18502
887.773	18475
887.897	18578
888.021	18601
888.146	18502
888.27	18563
888.395	18544
888.519	18715
888.643	18604
888.767	18570
888.891	18418
889.015	18353
889.139	18532
889.263	18388
889.387	18452
889.511	18745
889.635	18593
889.759	18319
889.883	18232
890.006	18403
890.13	18490
890.254	18346
890.377	18315
890.501	18110
890.624	18068
890.748	18216
890.871	18087
890.995	17996
891.118	17882
891.241	18019
891.364	17920
891.488	18057
891.611	18053
891.734	18003
891.857	17939
891.98	17946
892.103	18049
892.226	17942
892.349	17950
892.471	17821
892.594	17961
892.717	17973
892.839	17904
892.962	17855
893.085	17961
893.207	17912
893.33	17779
893.452	17866
893.575	17904
893.697	17916
893.819	18117
893.941	18087
894.064	17965
894.186	17786
894.308	17859
894.43	18007
894.552	18095
894.674	18003
894.796	17840
894.918	17866
895.04	17954
895.161	17958
895.283	17942
895.405	17874
895.526	17824
895.648	17946
895.769	18060
895.891	18034
896.012	18155
896.134	18038
896.255	17954
896.376	17973
896.498	18019
896.619	18022
896.74	17999
896.861	18038
896.982	18266
897.103	18502
897.224	18281
897.345	18251
897.466	18174
897.587	18186
897.708	18330
897.828	18258
897.949	18182
898.07	18072
898.19	18140
898.311	18277
898.431	18159
898.552	18174
898.672	18289
898.792	18277
898.913	18289
899.033	18098
899.153	17988
899.273	17961
899.393	17961
899.513	18106
899.633	17954
899.753	17885
899.873	17977
899.993	18034
900.113	17950
900.232	17916
900.352	17954
900.472	17859
900.591	17737
900.711	17764
900.83	17775
900.95	17996
901.069	18060
901.189	17714
901.308	17596
901.427	17474
901.546	17452
901.665	17524
901.784	17395
901.904	17341
902.023	17174
902.141	17064
902.26	17006
902.379	17037
902.498	16987
902.617	16911
902.735	17033
902.854	16984
902.973	16835
903.091	16752
903.21	16672
903.328	16755
903.446	16500
903.565	16554
903.683	16527
903.801	16276
903.919	16405
904.038	16485
904.156	16234
904.274	16333
904.392	16196
904.51	16162
904.627	16215
904.745	16280
904.863	16204
904.981	16059
905.098	15892
905.216	15907
905.334	15907
905.451	15983
905.569	15819
905.686	15991
905.803	15968
905.921	15743
906.038	15861
906.155	15739
906.272	15629
906.389	15572
906.506	15386
906.623	15401
906.74	15542
906.857	15351
906.974	15416
907.091	15549
907.208	15580
907.324	15530
907.441	15416
907.557	15218
907.674	15154
907.79	15116
907.907	15131
908.023	15199
908.139	15173
908.256	15093
908.372	14971
908.488	15017
908.604	14937
908.72	14781
908.836	14872
908.952	14823
909.068	14781
909.184	14994
909.3	14834
909.415	14925
909.531	14838
909.647	14571
909.762	14541
909.878	14450
909.993	14556
910.108	14469
910.224	14552
910.339	14571
910.454	14423
910.57	14339
910.685	14267
910.8	14533
910.915	14507
911.03	14412
911.145	14176
911.259	14176
911.374	14126
911.489	14058
911.604	14088
911.718	13993
911.833	14001
911.947	13833
912.062	13670
912.176	13856
912.291	13963
912.405	13769
912.519	14107
912.633	14119
912.748	13970
912.862	13947
912.976	13791
913.09	13734
913.204	13761
913.318	13784
913.431	13849
913.545	13906
913.659	13833
913.772	13765
913.886	13700
914	13636
914.113	13670
914.226	13647
914.34	13753
914.453	13540
914.566	13704
914.68	13491
914.793	13533
914.906	13320
915.019	13335
915.132	13369
915.245	13255
915.358	13266
915.47	13259
915.583	13149
915.696	13251
915.809	13422
915.921	13457
916.034	13156
916.146	13236
916.259	13122
916.371	13244
916.483	13190
916.595	13183
916.708	13099
916.82	13065
916.932	13088
917.044	13114
917.156	13061
917.268	12924
917.38	12977
917.491	12943
917.603	13027
917.715	13122
917.826	12985
917.938	12779
918.049	12817
918.161	12894
918.272	13046
918.384	13057
918.495	12947
918.606	12779
918.717	12719
918.828	12741
918.939	12814
919.05	12711
919.161	12738
919.272	12460
919.383	12597
919.494	12875
919.604	12924
919.715	12696
919.826	12521
919.936	12726
920.047	12829
920.157	12772
920.267	12958
920.378	12719
920.488	12688
920.598	12977
920.708	13080
920.818	12852
920.928	12814
921.038	13027
921.148	12913
921.258	12730
921.368	12585
921.477	12544
921.587	12471
921.697	12384
921.806	12563
921.916	12467
922.025	12171
922.134	12205
922.244	12136
922.353	12102
922.462	11984
922.571	11977
922.68	11813
922.789	11786
922.898	11908
923.007	11729
923.116	11798
923.224	11794
923.333	11840
923.442	11729
923.55	11642
923.659	11722
923.767	11767
923.876	11608
923.984	11619
924.092	11570
924.201	11691
924.309	11665
924.417	11627
924.525	11558
924.633	11676
924.741	12330
924.849	11315
924.956	11516
925.064	11311
925.172	11261
925.279	11277
925.387	11280
925.494	11360
925.602	11383
925.709	11395
925.816	11356
925.924	11345
926.031	11326
926.138	11296
926.245	11368
926.352	11155
926.459	11345
926.566	11368
926.673	11242
926.779	11121
926.886	11102
926.993	11041
927.099	10919
927.206	10889
927.312	10923
927.419	11003
927.525	10923
927.631	10911
927.737	10812
927.843	10790
927.95	10702
928.056	10675
928.162	10892
928.267	10835
928.373	11398
928.479	10869
928.585	10637
928.69	10721
928.796	10782
928.901	10622
929.007	10500
929.112	10573
929.218	10630
929.323	10641
929.428	10622
929.533	10618
929.638	10443
929.743	10561
929.848	10584
929.953	10466
930.058	10371
930.163	10246
930.267	10280
930.372	10382
930.477	10287
930.581	10500
930.685	10318
930.79	10192
930.894	10299
930.998	10185
931.103	10265
931.207	9994
931.311	9876
931.415	9812
931.519	9629
931.623	9595
