Data from test_V78500241_1494.txt Node
Date: Fri Mar 25 14:44:07 CST 2022
User: usil
Spectrometer: V785-0024
Trigger mode: 0
Integration Time (sec): 4.000000E-1
Scans to average: 1
Nonlinearity correction enabled: false
Boxcar width: 0
Storing dark spectrum: false
XAxis mode: Wavelengths
Number of Pixels in Spectrum: 1024
>>>>>Begin Spectral Data<<<<<
801.071	22504
801.214	22295
801.356	22086
801.499	22013
801.641	21785
801.783	21812
801.926	21789
802.068	21587
802.211	21698
802.353	21466
802.496	21363
802.638	21245
802.78	21329
802.923	21176
803.065	21096
803.208	21135
803.35	21085
803.492	21146
803.635	21226
803.777	21150
803.919	21214
804.061	21519
804.204	21249
804.346	21020
804.488	21039
804.63	21119
804.773	20982
804.915	21055
805.057	21283
805.199	20975
805.341	21127
805.483	21165
805.626	21157
805.768	20941
805.91	21081
806.052	21108
806.194	20902
806.336	21081
806.478	21028
806.62	20929
806.762	21154
806.904	21138
807.046	21477
807.188	21488
807.33	21431
807.472	21454
807.614	21222
807.756	21416
807.898	21226
808.04	21230
808.182	21249
808.324	21279
808.465	21310
808.607	21515
808.749	21675
808.891	21823
809.033	21869
809.174	21618
809.316	21549
809.458	21515
809.6	21526
809.741	21526
809.883	21629
810.025	21766
810.166	21720
810.308	21698
810.45	21595
810.591	21526
810.733	21389
810.875	21367
811.016	21230
811.158	21192
811.299	21344
811.441	21378
811.582	21317
811.724	21275
811.865	21146
812.007	21203
812.148	21184
812.29	21241
812.431	21363
812.573	21477
812.714	21595
812.855	21854
812.997	21888
813.138	21827
813.279	21789
813.421	21724
813.562	21603
813.703	21496
813.845	21420
813.986	21043
814.127	20880
814.268	20807
814.41	20777
814.551	20735
814.692	20891
814.833	20708
814.974	20617
815.115	20849
815.256	20579
815.397	20682
815.539	20602
815.68	20427
815.821	20450
815.962	20450
816.103	20533
816.244	20237
816.385	20225
816.526	20328
816.666	20168
816.807	19894
816.948	19970
817.089	19974
817.23	20016
817.371	19811
817.512	19955
817.653	19902
817.793	19868
817.934	19902
818.075	19936
818.216	19833
818.356	19936
818.497	19753
818.638	19674
818.778	19605
818.919	19624
819.06	19635
819.2	19677
819.341	19753
819.481	19795
819.622	19814
819.762	20027
819.903	20054
820.043	20016
820.184	19799
820.324	19868
820.465	19917
820.605	19837
820.746	19894
820.886	19818
821.026	19887
821.167	19940
821.307	19959
821.447	19769
821.588	19727
821.728	19609
821.868	19434
822.008	19240
822.149	19266
822.289	19282
822.429	18996
822.569	18791
822.709	18924
822.849	18700
822.99	18688
823.13	18798
823.27	18681
823.41	18559
823.55	18361
823.69	18547
823.83	18608
823.97	18471
824.11	18292
824.25	18384
824.389	18357
824.529	18399
824.669	18251
824.809	18452
824.949	18460
825.089	18391
825.228	18369
825.368	18140
825.508	18133
825.648	18106
825.787	18129
825.927	18213
826.067	17984
826.206	18064
826.346	18216
826.485	18190
826.625	18072
826.765	18136
826.904	18125
827.044	17942
827.183	17901
827.323	17882
827.462	17836
827.601	17790
827.741	17733
827.88	17832
828.02	17718
828.159	17783
828.298	17737
828.437	17965
828.577	17821
828.716	17939
828.855	17729
828.994	17592
829.134	17581
829.273	17566
829.412	17512
829.551	17501
829.69	17577
829.829	17520
829.968	17718
830.107	17600
830.246	17493
830.385	17543
830.524	17425
830.663	17326
830.802	17307
830.941	17212
831.08	17212
831.219	17239
831.357	17231
831.496	17474
831.635	17109
831.774	17109
831.913	17018
832.051	16961
832.19	17033
832.329	16881
832.467	16877
832.606	16854
832.744	16873
832.883	16862
833.022	16847
833.16	16877
833.299	16862
833.437	16915
833.576	16862
833.714	16953
833.852	16980
833.991	16946
834.129	16980
834.267	16889
834.406	16885
834.544	17010
834.682	17033
834.821	16946
834.959	17128
835.097	16900
835.235	16885
835.373	16904
835.511	16873
835.65	16877
835.788	16854
835.926	16691
836.064	16615
836.202	16649
836.34	16816
836.478	16923
836.615	16782
836.753	16801
836.891	16915
837.029	16755
837.167	16790
837.305	16763
837.443	16683
837.58	16694
837.718	16683
837.856	16717
837.993	16618
838.131	16672
838.269	16645
838.406	16687
838.544	16527
838.681	16432
838.819	16238
838.956	16150
839.094	16215
839.231	16154
839.369	16451
839.506	16500
839.643	16394
839.781	16322
839.918	16158
840.055	16150
840.193	16200
840.33	16200
840.467	16223
840.604	16253
840.742	16325
840.879	16093
841.016	16162
841.153	16128
841.29	16299
841.427	16322
841.564	16181
841.701	16200
841.838	16105
841.975	16097
842.112	16109
842.249	16048
842.385	15915
842.522	16162
842.659	16078
842.796	15994
842.933	15876
843.069	15979
843.206	15979
843.343	16029
843.479	16025
843.616	16032
843.752	15736
843.889	15743
844.025	15953
844.162	15770
844.298	15823
844.435	15793
844.571	15770
844.708	15854
844.844	15983
844.98	15964
845.117	15861
845.253	15705
845.389	15686
845.525	15789
845.661	15751
845.798	15709
845.934	15953
846.07	15705
846.206	15781
846.342	15850
846.478	15667
846.614	15317
846.75	15336
846.886	15363
847.022	15428
847.158	15397
847.294	15275
847.429	15306
847.565	15351
847.701	15557
847.837	15070
847.972	15123
848.108	15150
848.244	15074
848.379	15043
848.515	14811
848.65	14902
848.786	14982
848.921	14975
849.057	15131
849.192	15108
849.328	14975
849.463	14960
849.598	14895
849.734	14887
849.869	14746
850.004	14743
850.14	14743
850.275	14758
850.41	14587
850.545	14659
850.68	14617
850.815	14610
850.95	14693
851.085	14807
851.22	14800
851.355	14712
851.49	14743
851.625	14640
851.76	14693
851.895	14590
852.03	14560
852.165	14602
852.299	14682
852.434	14811
852.569	14731
852.703	14708
852.838	14701
852.973	14788
853.107	14853
853.242	14648
853.376	14568
853.511	14533
853.645	14560
853.78	14621
853.914	14533
854.048	14560
854.183	14537
854.317	14556
854.451	14762
854.585	14640
854.72	14606
854.854	14640
854.988	14457
855.122	14507
855.256	14423
855.39	14533
855.524	14651
855.658	14625
855.792	14507
855.926	14545
856.06	14670
856.194	14769
856.327	14579
856.461	14499
856.595	14503
856.729	14511
856.862	14579
856.996	14602
857.13	14571
857.263	14693
857.397	14735
857.53	14648
857.664	14727
857.797	14667
857.931	14739
858.064	14511
858.197	14594
858.331	14640
858.464	14571
858.597	14488
858.731	14568
858.864	14606
858.997	14583
859.13	14663
859.263	14579
859.396	14598
859.529	14530
859.662	14522
859.795	14469
859.928	14606
860.061	14727
860.194	14758
860.327	14594
860.46	14522
860.592	14682
860.725	14701
860.858	14720
860.99	14503
861.123	14434
861.256	14473
861.388	14564
861.521	15165
861.653	14400
861.786	14393
861.918	14473
862.05	14549
862.183	14590
862.315	14545
862.447	14579
862.58	14454
862.712	14317
862.844	14294
862.976	14419
863.108	14408
863.24	14750
863.372	14252
863.504	14328
863.636	14290
863.768	14499
863.9	14374
864.032	14214
864.164	14244
864.296	14336
864.428	14415
864.559	14412
864.691	14442
864.823	14495
864.954	14396
865.086	14431
865.217	14328
865.349	14324
865.48	14347
865.612	14252
865.743	14423
865.875	14358
866.006	14290
866.137	14355
866.269	14324
866.4	14412
866.531	14229
866.662	14317
866.793	14244
866.924	14237
867.055	14412
867.186	14336
867.317	14233
867.448	14218
867.579	14347
867.71	14309
867.841	14206
867.972	14305
868.103	14328
868.233	14282
868.364	14263
868.495	14305
868.625	14537
868.756	14697
868.886	14480
869.017	14545
869.147	14716
869.278	14731
869.408	14613
869.539	14530
869.669	14625
869.799	14495
869.929	14693
870.06	14739
870.19	14883
870.32	14834
870.45	14880
870.58	14883
870.71	15020
870.84	15047
870.97	15081
871.1	14960
871.23	15028
871.36	15268
871.489	15081
871.619	15142
871.749	15062
871.879	15222
872.008	15325
872.138	15089
872.267	15131
872.397	14982
872.526	15051
872.656	14986
872.785	15039
872.915	15211
873.044	15260
873.173	15116
873.303	15272
873.432	15188
873.561	15237
873.69	15157
873.819	15252
873.948	15260
874.077	15146
874.206	15077
874.335	15256
874.464	15336
874.593	15557
874.722	15370
874.851	15545
874.979	15462
875.108	15530
875.237	15420
875.365	15389
875.494	15526
875.623	15561
875.751	15450
875.88	15584
876.008	15701
876.136	15717
876.265	15899
876.393	16101
876.521	16101
876.65	16002
876.778	15975
876.906	15880
877.034	15865
877.162	15998
877.29	15831
877.418	15857
877.546	15926
877.674	15903
877.802	15941
877.93	15994
878.058	15797
878.185	15800
878.313	15869
878.441	15876
878.568	15812
878.696	15926
878.824	15968
878.951	16010
879.079	16112
879.206	16246
879.333	16128
879.461	16109
879.588	16192
879.715	16253
879.842	16310
879.97	16093
880.097	15953
880.224	15857
880.351	15945
880.478	15903
880.605	15720
880.732	15785
880.859	16040
880.986	15751
881.112	15911
881.239	15690
881.366	15542
881.493	15523
881.619	15526
881.746	15485
881.872	15439
881.999	15557
882.125	15420
882.252	15534
882.378	15549
882.505	15519
882.631	15397
882.757	15355
882.883	15405
883.01	15386
883.136	15180
883.262	15100
883.388	15051
883.514	15298
883.64	15348
883.766	15199
883.892	15001
884.018	15138
884.143	15142
884.269	15306
884.395	15005
884.52	14986
884.646	14971
884.772	14914
884.897	14963
885.023	14967
885.148	15119
885.274	15116
885.399	15085
885.524	14819
885.65	14933
885.775	15028
885.9	14906
886.025	15123
886.15	14994
886.275	14819
886.4	14910
886.525	14921
886.65	14921
886.775	14861
886.9	15081
887.025	15154
887.149	14921
887.274	14853
887.399	14845
887.523	14765
887.648	14632
887.773	14651
887.897	14849
888.021	14861
888.146	14746
888.27	14781
888.395	14918
888.519	14895
888.643	14800
888.767	14845
888.891	14712
889.015	14625
889.139	14621
889.263	14617
889.387	14693
889.511	14899
889.635	14819
889.759	14674
889.883	14716
890.006	14708
890.13	14746
890.254	14533
890.377	14590
890.501	14564
890.624	14396
890.748	14461
890.871	14374
890.995	14237
891.118	14317
891.241	14339
891.364	14317
891.488	14480
891.611	14374
891.734	14381
891.857	14423
891.98	14366
892.103	14332
892.226	14396
892.349	14336
892.471	14206
892.594	14317
892.717	14328
892.839	14248
892.962	14313
893.085	14343
893.207	14320
893.33	14275
893.452	14214
893.575	14385
893.697	14351
893.819	14503
893.941	14514
894.064	14457
894.186	14374
894.308	14298
894.43	14431
894.552	14530
894.674	14503
894.796	14389
894.918	14332
895.04	14351
895.161	14454
895.283	14351
895.405	14377
895.526	14492
895.648	14518
895.769	14434
895.891	14579
896.012	14507
896.134	14590
896.255	14571
896.376	14473
896.498	14522
896.619	14541
896.74	14503
896.861	14533
896.982	14834
897.103	14998
897.224	14762
897.345	14788
897.466	14785
897.587	14834
897.708	14849
897.828	14754
897.949	14807
898.07	14682
898.19	14708
898.311	14925
898.431	14777
898.552	14826
898.672	14933
898.792	14830
898.913	14956
899.033	14857
899.153	14807
899.273	14697
899.393	14651
899.513	14701
899.633	14651
899.753	14720
899.873	14727
899.993	14724
900.113	14629
900.232	14682
900.352	14785
900.472	14571
900.591	14514
900.711	14568
900.83	14465
900.95	14644
901.069	14693
901.189	14526
901.308	14400
901.427	14210
901.546	14195
901.665	14370
901.784	14309
901.904	14145
902.023	14005
902.141	13868
902.26	13826
902.379	13940
902.498	13814
902.617	13750
902.735	13811
902.854	13803
902.973	13689
903.091	13495
903.21	13540
903.328	13392
903.446	13434
903.565	13377
903.683	13388
903.801	13171
903.919	13308
904.038	13266
904.156	13320
904.274	13247
904.392	13080
904.51	13209
904.627	13164
904.745	13198
904.863	13251
904.981	13008
905.098	12810
905.216	12886
905.334	12787
905.451	12840
905.569	12867
905.686	12897
905.803	12939
905.921	12787
906.038	12814
906.155	12673
906.272	12566
906.389	12642
906.506	12460
906.623	12418
906.74	12483
906.857	12357
906.974	12361
907.091	12544
907.208	12525
907.324	12540
907.441	12384
907.557	12247
907.674	12251
907.79	12114
907.907	12114
908.023	12167
908.139	12163
908.256	12228
908.372	12171
908.488	12053
908.604	12060
908.72	12003
908.836	11931
908.952	11980
909.068	11996
909.184	12064
909.3	12003
909.415	11961
909.531	12007
909.647	11726
909.762	11748
909.878	11737
909.993	11767
910.108	11718
910.224	11684
910.339	11653
910.454	11573
910.57	11608
910.685	11436
910.8	11798
910.915	11771
911.03	11577
911.145	11474
911.259	11402
911.374	11398
911.489	11303
911.604	11280
911.718	11155
911.833	11189
911.947	11098
912.062	11022
912.176	11174
912.291	11197
912.405	11189
912.519	11356
912.633	11406
912.748	11284
912.862	11181
912.976	11018
913.09	10934
913.204	11029
913.318	11090
913.431	11090
913.545	11083
913.659	11098
913.772	11056
913.886	10946
914	10835
914.113	11006
914.226	11052
914.34	10961
914.453	10843
914.566	10968
914.68	10877
914.793	10923
914.906	10653
915.019	10679
915.132	10569
915.245	10615
915.358	10725
915.47	10656
915.583	10694
915.696	10694
915.809	10847
915.921	10892
916.034	10599
916.146	10615
916.259	10550
916.371	10702
916.483	10691
916.595	10508
916.708	10558
916.82	10561
916.932	10580
917.044	10588
917.156	10523
917.268	10497
917.38	10405
917.491	10474
917.603	10455
917.715	10493
917.826	10626
917.938	10432
918.049	10348
918.161	10535
918.272	10607
918.384	10630
918.495	10554
918.606	10375
918.717	10306
918.828	10413
918.939	10379
919.05	10291
919.161	10295
919.272	10090
919.383	10287
919.494	10478
919.604	10607
919.715	10322
919.826	10268
919.936	10344
920.047	10459
920.157	10421
920.267	10558
920.378	10375
920.488	10371
920.598	10512
920.708	10729
920.818	10618
920.928	10546
921.038	10763
921.148	10744
921.258	10459
921.368	10234
921.477	10280
921.587	10196
921.697	10063
921.806	10253
921.916	10154
922.025	10002
922.134	9926
922.244	9930
922.353	9983
922.462	9781
922.571	9755
922.68	9675
922.789	9564
922.898	9701
923.007	9644
923.116	9663
923.224	9538
923.333	9656
923.442	9526
923.55	9477
923.659	9500
923.767	9568
923.876	9458
923.984	9542
924.092	9473
924.201	9504
924.309	9473
924.417	9500
924.525	9424
924.633	9439
924.741	10413
924.849	9226
924.956	9492
925.064	9272
925.172	9241
925.279	9245
925.387	9321
925.494	9241
925.602	9344
925.709	9405
925.816	9207
925.924	9329
926.031	9370
926.138	9302
926.245	9256
926.352	9176
926.459	9332
926.566	9302
926.673	9253
926.779	9116
926.886	9097
926.993	9024
927.099	8982
927.206	8998
927.312	8933
927.419	9024
927.525	9005
927.631	9020
927.737	8861
927.843	8800
927.95	8773
928.056	8876
928.162	8826
928.267	8872
928.373	9523
928.479	9017
928.585	8739
928.69	8887
928.796	8887
928.901	8754
929.007	8629
929.112	8788
929.218	8754
929.323	8659
929.428	8716
929.533	8769
929.638	8617
929.743	8705
929.848	8701
929.953	8625
930.058	8579
930.163	8423
930.267	8465
930.372	8629
930.477	8461
930.581	8644
930.685	8522
930.79	8419
930.894	8332
930.998	8355
931.103	8499
931.207	8252
931.311	8206
931.415	8035
931.519	7894
931.623	7894
