Data from test_V78500241_642.txt Node
Date: Fri Mar 25 14:38:11 CST 2022
User: usil
Spectrometer: V785-0024
Trigger mode: 0
Integration Time (sec): 4.000000E-1
Scans to average: 1
Nonlinearity correction enabled: false
Boxcar width: 0
Storing dark spectrum: false
XAxis mode: Wavelengths
Number of Pixels in Spectrum: 1024
>>>>>Begin Spectral Data<<<<<
801.071	27835
801.214	27854
801.356	27454
801.499	27336
801.641	27336
801.783	27184
801.926	27249
802.068	27085
802.211	27066
802.353	27058
802.496	26724
802.638	26762
802.78	26781
802.923	26712
803.065	26511
803.208	26663
803.35	26750
803.492	26682
803.635	26918
803.777	26724
803.919	26918
804.061	27195
804.204	26960
804.346	27058
804.488	26800
804.63	26887
804.773	26975
804.915	27081
805.057	27203
805.199	27226
805.341	27283
805.483	27386
805.626	27382
805.768	27249
805.91	27332
806.052	27652
806.194	27542
806.336	27998
806.478	27892
806.62	28032
806.762	28333
806.904	28972
807.046	29204
807.188	29455
807.33	29862
807.472	30426
807.614	30897
807.756	31620
807.898	32640
808.04	33682
808.182	35391
808.324	37757
808.465	40245
808.607	42829
808.749	45485
808.891	46904
809.033	46957
809.174	45446
809.316	43065
809.458	40143
809.6	37362
809.741	35075
809.883	33378
810.025	32320
810.166	31183
810.308	30623
810.45	29927
810.591	29596
810.733	28976
810.875	28801
811.016	28417
811.158	28310
811.299	28325
811.441	28188
811.582	28109
811.724	27793
811.865	27656
812.007	27724
812.148	27530
812.29	27671
812.431	27682
812.573	27633
812.714	27831
812.855	27899
812.997	27816
813.138	28029
813.279	27823
813.421	27804
813.562	27690
813.703	27321
813.845	27230
813.986	27062
814.127	26800
814.268	26720
814.41	26606
814.551	26564
814.692	26632
814.833	26431
814.974	26473
815.115	26450
815.256	26164
815.397	26355
815.539	26244
815.68	26168
815.821	26027
815.962	25986
816.103	26016
816.244	25887
816.385	25674
816.526	25723
816.666	25670
816.807	25362
816.948	25346
817.089	25472
817.23	25400
817.371	25339
817.512	25510
817.653	25445
817.793	25343
817.934	25324
818.075	25339
818.216	25221
818.356	25206
818.497	25175
818.638	24962
818.778	24859
818.919	25084
819.06	25034
819.2	25133
819.341	25335
819.481	25122
819.622	25297
819.762	25468
819.903	25472
820.043	25346
820.184	25259
820.324	25301
820.465	25213
820.605	25175
820.746	25202
820.886	24932
821.026	25034
821.167	25084
821.307	25110
821.447	25031
821.588	24943
821.728	24779
821.868	24593
822.008	24494
822.149	24460
822.289	24407
822.429	24159
822.569	24190
822.709	24129
822.849	23859
822.99	23885
823.13	23901
823.27	23821
823.41	23634
823.55	23596
823.69	23726
823.83	23710
823.97	23653
824.11	23349
824.25	23417
824.389	23410
824.529	23509
824.669	23501
824.809	23562
824.949	23425
825.089	23585
825.228	23330
825.368	23117
825.508	23277
825.648	23250
825.787	23261
825.927	23288
826.067	23242
826.206	23208
826.346	23277
826.485	23223
826.625	23140
826.765	23364
826.904	23307
827.044	23037
827.183	22957
827.323	22763
827.462	22927
827.601	22869
827.741	22828
827.88	22824
828.02	22736
828.159	22733
828.298	22847
828.437	22915
828.577	22755
828.716	23037
828.855	22763
828.994	22611
829.134	22561
829.273	22675
829.412	22478
829.551	22546
829.69	22474
829.829	22485
829.968	22603
830.107	22481
830.246	22451
830.385	22531
830.524	22459
830.663	22348
830.802	22166
830.941	22177
831.08	22116
831.219	22093
831.357	22242
831.496	22394
831.635	22116
831.774	22021
831.913	22010
832.051	22002
832.19	22036
832.329	22070
832.467	22044
832.606	21808
832.744	21873
832.883	22139
833.022	22048
833.16	22128
833.299	22318
833.437	22367
833.576	22504
833.714	22584
833.852	22702
833.991	22923
834.129	22889
834.267	22934
834.406	22866
834.544	22896
834.682	22778
834.821	22596
834.959	22752
835.097	22318
835.235	22436
835.373	22230
835.511	22166
835.65	21934
835.788	21930
835.926	21732
836.064	21648
836.202	21629
836.34	21778
836.478	21774
836.615	21637
836.753	21534
836.891	21728
837.029	21781
837.167	21564
837.305	21515
837.443	21530
837.58	21553
837.718	21580
837.856	21549
837.993	21298
838.131	21523
838.269	21294
838.406	21428
838.544	21211
838.681	21085
838.819	21116
838.956	20902
839.094	20849
839.231	20868
839.369	20929
839.506	21306
839.643	21100
839.781	20933
839.918	20857
840.055	20876
840.193	20849
840.33	20826
840.467	20731
840.604	20899
840.742	21157
840.879	20716
841.016	20857
841.153	20716
841.29	20925
841.427	20842
841.564	21036
841.701	20979
841.838	20773
841.975	20777
842.112	20773
842.249	20724
842.385	20606
842.522	20773
842.659	20746
842.796	20621
842.933	20545
843.069	20727
843.206	20602
843.343	20708
843.479	20632
843.616	20815
843.752	20606
843.889	20655
844.025	20792
844.162	20746
844.298	20868
844.435	20971
844.571	21085
844.708	21378
844.844	21797
844.98	22154
845.117	22607
845.253	23315
845.389	24932
845.525	27800
845.661	32682
845.798	38324
845.934	42760
846.07	44358
846.206	43171
846.342	39287
846.478	33774
846.614	28706
846.75	25278
846.886	23512
847.022	22322
847.158	21534
847.294	21043
847.429	20796
847.565	20541
847.701	20651
847.837	20145
847.972	19978
848.108	19978
848.244	19978
848.379	19655
848.515	19772
848.65	19571
848.786	19620
848.921	19734
849.057	19628
849.192	19594
849.328	19537
849.463	19548
849.598	19407
849.734	19403
849.869	19327
850.004	19190
850.14	19244
850.275	19232
850.41	19232
850.545	19194
850.68	19168
850.815	19156
850.95	19251
851.085	19388
851.22	19263
851.355	19107
851.49	19103
851.625	19217
851.76	19148
851.895	19110
852.03	19110
852.165	19244
852.299	19225
852.434	19324
852.569	19202
852.703	19247
852.838	19282
852.973	19365
853.107	19495
853.242	19293
853.376	19209
853.511	19031
853.645	19194
853.78	19358
853.914	19225
854.048	19225
854.183	19365
854.317	19293
854.451	19544
854.585	19331
854.72	19396
854.854	19331
854.988	19240
855.122	19282
855.256	19122
855.39	19209
855.524	19175
855.658	19114
855.792	19148
855.926	19209
856.06	19076
856.194	19156
856.327	19053
856.461	19000
856.595	19050
856.729	19012
856.862	19072
856.996	18970
857.13	19114
857.263	19053
857.397	19122
857.53	18977
857.664	19072
857.797	19148
857.931	19122
858.064	19088
858.197	19091
858.331	18867
858.464	18829
858.597	18829
858.731	18802
858.864	18920
858.997	18840
859.13	18935
859.263	18993
859.396	18848
859.529	18875
859.662	18985
859.795	18882
859.928	18901
860.061	18901
860.194	19008
860.327	18852
860.46	18894
860.592	18973
860.725	18977
860.858	18924
860.99	18726
861.123	18700
861.256	18806
861.388	18867
861.521	19430
861.653	18684
861.786	18623
861.918	18730
862.05	18738
862.183	18871
862.315	18840
862.447	18935
862.58	18844
862.712	18688
862.844	18445
862.976	18787
863.108	18555
863.24	18947
863.372	18437
863.504	18559
863.636	18555
863.768	18707
863.9	18544
864.032	18525
864.164	18494
864.296	18570
864.428	18566
864.559	18597
864.691	18650
864.823	18582
864.954	18494
865.086	18589
865.217	18441
865.349	18369
865.48	18437
865.612	18502
865.743	18582
865.875	18410
866.006	18407
866.137	18513
866.269	18475
866.4	18547
866.531	18433
866.662	18437
866.793	18479
866.924	18414
867.055	18445
867.186	18346
867.317	18388
867.448	18330
867.579	18346
867.71	18270
867.841	18357
867.972	18426
868.103	18384
868.233	18426
868.364	18369
868.495	18433
868.625	18658
868.756	18707
868.886	18547
869.017	18631
869.147	18837
869.278	18787
869.408	18692
869.539	18764
869.669	18897
869.799	18745
869.929	18875
870.06	18688
870.19	19015
870.32	19023
870.45	19038
870.58	19084
870.71	19301
870.84	19221
870.97	19141
871.1	19240
871.23	19350
871.36	19457
871.489	19198
871.619	19335
871.749	19354
871.879	19434
872.008	19567
872.138	19407
872.267	19327
872.397	19209
872.526	19217
872.656	19247
872.785	19343
872.915	19495
873.044	19635
873.173	19396
873.303	19582
873.432	19727
873.561	19685
873.69	19540
873.819	19594
873.948	19750
874.077	19647
874.206	19677
874.335	19693
874.464	19826
874.593	20031
874.722	19986
874.851	20096
874.979	20115
875.108	20252
875.237	20138
875.365	20088
875.494	20218
875.623	20313
875.751	20157
875.88	20347
876.008	20476
876.136	20590
876.265	20864
876.393	20994
876.521	20880
876.65	21043
876.778	20967
876.906	21017
877.034	21036
877.162	21104
877.29	20994
877.418	21252
877.546	21298
877.674	21431
877.802	21428
877.93	21778
878.058	21739
878.185	21994
878.313	22150
878.441	22356
878.568	22618
878.696	23235
878.824	23882
878.951	24875
879.079	26122
879.206	27960
879.333	29649
879.461	30989
879.588	32062
879.715	32008
879.842	31426
879.97	29646
880.097	27804
880.224	26560
880.351	25529
880.478	24764
880.605	24247
880.732	23950
880.859	24022
880.986	23642
881.112	23551
881.239	23246
881.366	23208
881.493	23147
881.619	23060
881.746	23124
881.872	23197
881.999	23121
882.125	23102
882.252	23227
882.378	23155
882.505	23235
882.631	23132
882.757	23033
882.883	23124
883.01	22934
883.136	22904
883.262	22923
883.388	22930
883.514	22942
883.64	23037
883.766	22953
883.892	22645
884.018	22938
884.143	23060
884.269	22976
884.395	22767
884.52	22679
884.646	22923
884.772	22668
884.897	22542
885.023	22645
885.148	22786
885.274	22839
885.399	22717
885.524	22508
885.65	22443
885.775	22337
885.9	22166
886.025	22219
886.15	21934
886.275	21842
886.4	21770
886.525	21709
886.65	21431
886.775	21321
886.9	21439
887.025	21374
887.149	21237
887.274	20868
887.399	20731
887.523	20629
887.648	20693
887.773	20587
887.897	20651
888.021	20564
888.146	20355
888.27	20484
888.395	20457
888.519	20263
888.643	20305
888.767	20305
888.891	20077
889.015	19967
889.139	20031
889.263	19883
889.387	19970
889.511	20046
889.635	19917
889.759	19811
889.883	19746
890.006	19658
890.13	19723
890.254	19613
890.377	19578
890.501	19468
890.624	19335
890.748	19449
890.871	19247
890.995	19061
891.118	19099
891.241	19122
891.364	19057
891.488	19084
891.611	19091
891.734	19061
891.857	18970
891.98	19012
892.103	19027
892.226	18970
892.349	18905
892.471	18665
892.594	18856
892.717	18817
892.839	18745
892.962	18722
893.085	18787
893.207	18665
893.33	18604
893.452	18547
893.575	18741
893.697	18566
893.819	18798
893.941	18768
894.064	18639
894.186	18536
894.308	18365
894.43	18578
894.552	18509
894.674	18502
894.796	18300
894.918	18429
895.04	18384
895.161	18509
895.283	18285
895.405	18380
895.526	18323
895.648	18361
895.769	18342
895.891	18414
896.012	18361
896.134	18353
896.255	18342
896.376	18319
896.498	18289
896.619	18357
896.74	18334
896.861	18319
896.982	18604
897.103	18734
897.224	18639
897.345	18585
897.466	18414
897.587	18593
897.708	18642
897.828	18547
897.949	18448
898.07	18361
898.19	18513
898.311	18566
898.431	18369
898.552	18448
898.672	18502
898.792	18540
898.913	18369
899.033	18311
899.153	18376
899.273	18129
899.393	18167
899.513	18369
899.633	18319
899.753	18281
899.873	18232
899.993	18319
900.113	18296
900.232	18330
900.352	18159
900.472	18136
900.591	17984
900.711	18136
900.83	18072
900.95	18186
901.069	18091
901.189	17999
901.308	17722
901.427	17653
901.546	17684
901.665	17642
901.784	17707
901.904	17520
902.023	17448
902.141	17178
902.26	17124
902.379	17178
902.498	17109
902.617	17014
902.735	17113
902.854	16972
902.973	16961
903.091	16797
903.21	16744
903.328	16793
903.446	16683
903.565	16622
903.683	16580
903.801	16455
903.919	16390
904.038	16508
904.156	16337
904.274	16409
904.392	16219
904.51	16318
904.627	16276
904.745	16363
904.863	16284
904.981	16120
905.098	15930
905.216	15922
905.334	15956
905.451	15926
905.569	15915
905.686	16002
905.803	15823
905.921	15728
906.038	15854
906.155	15778
906.272	15473
906.389	15663
906.506	15504
906.623	15439
906.74	15416
906.857	15351
906.974	15359
907.091	15519
907.208	15610
907.324	15344
907.441	15264
907.557	15230
907.674	15195
907.79	15116
907.907	15180
908.023	15222
908.139	15203
908.256	15089
908.372	15100
908.488	15013
908.604	14861
908.72	14868
908.836	14952
908.952	14891
909.068	14849
909.184	14925
909.3	14857
909.415	14921
909.531	14826
909.647	14674
909.762	14667
909.878	14598
909.993	14526
910.108	14575
910.224	14636
910.339	14530
910.454	14450
910.57	14404
910.685	14298
910.8	14651
910.915	14610
911.03	14503
911.145	14332
911.259	14278
911.374	14377
911.489	14115
911.604	14084
911.718	14050
911.833	13997
911.947	13875
912.062	13898
912.176	13963
912.291	14012
912.405	14054
912.519	14096
912.633	14073
912.748	13959
912.862	14001
912.976	13833
913.09	13765
913.204	13746
913.318	13814
913.431	13917
913.545	13883
913.659	13955
913.772	13822
913.886	13609
914	13666
914.113	13765
914.226	13791
914.34	13734
914.453	13677
914.566	13723
914.68	13700
914.793	13525
914.906	13415
915.019	13381
915.132	13255
915.245	13362
915.358	13297
915.47	13377
915.583	13316
915.696	13365
915.809	13388
915.921	13396
916.034	13308
916.146	13263
916.259	13247
916.371	13358
916.483	13377
916.595	13259
916.708	13293
916.82	13251
916.932	13190
917.044	13324
917.156	13190
917.268	13114
917.38	13133
917.491	13046
917.603	13103
917.715	13122
917.826	13190
917.938	12993
918.049	12920
918.161	13095
918.272	13114
918.384	13118
918.495	13072
918.606	12871
918.717	12753
918.828	12897
918.939	12867
919.05	12817
919.161	12829
919.272	12513
919.383	12707
919.494	12882
919.604	13008
919.715	12840
919.826	12779
919.936	12798
920.047	12890
920.157	12833
920.267	13031
920.378	12734
920.488	12764
920.598	12962
920.708	13065
920.818	12951
920.928	12871
921.038	13042
921.148	13091
921.258	12681
921.368	12623
921.477	12486
921.587	12662
921.697	12445
921.806	12467
921.916	12475
922.025	12277
922.134	12258
922.244	12201
922.353	12323
922.462	12159
922.571	12038
922.68	11847
922.789	11897
922.898	11885
923.007	11813
923.116	11836
923.224	11779
923.333	11847
923.442	11722
923.55	11634
923.659	11726
923.767	11775
923.876	11665
923.984	11817
924.092	11577
924.201	11630
924.309	11638
924.417	11703
924.525	11592
924.633	11653
924.741	12350
924.849	11429
924.956	11573
925.064	11364
925.172	11337
925.279	11337
925.387	11467
925.494	11444
925.602	11551
925.709	11421
925.816	11254
925.924	11406
926.031	11395
926.138	11421
926.245	11387
926.352	11299
926.459	11383
926.566	11459
926.673	11326
926.779	11246
926.886	11250
926.993	10995
927.099	10953
927.206	11006
927.312	10930
927.419	11052
927.525	11067
927.631	11064
927.737	10919
927.843	10949
927.95	10847
928.056	10904
928.162	10889
928.267	10904
928.373	11318
928.479	10942
928.585	10736
928.69	10869
928.796	10938
928.901	10744
929.007	10519
929.112	10763
929.218	10706
929.323	10645
929.428	10634
929.533	10736
929.638	10645
929.743	10603
929.848	10615
929.953	10637
930.058	10519
930.163	10398
930.267	10337
930.372	10481
930.477	10341
930.581	10603
930.685	10413
930.79	10280
930.894	10287
930.998	10253
931.103	10367
931.207	10013
931.311	9960
931.415	9835
931.519	9690
931.623	9694
