Data from test_V78500241_2716.txt Node
Date: Fri Mar 25 14:52:37 CST 2022
User: usil
Spectrometer: V785-0024
Trigger mode: 0
Integration Time (sec): 4.000000E-1
Scans to average: 1
Nonlinearity correction enabled: false
Boxcar width: 0
Storing dark spectrum: false
XAxis mode: Wavelengths
Number of Pixels in Spectrum: 1024
>>>>>Begin Spectral Data<<<<<
801.071	21922
801.214	21903
801.356	21690
801.499	21587
801.641	21420
801.783	21222
801.926	21348
802.068	21329
802.211	21249
802.353	21104
802.496	20979
802.638	20941
802.78	20811
802.923	20811
803.065	20640
803.208	20693
803.35	20667
803.492	20842
803.635	20796
803.777	20720
803.919	20781
804.061	21055
804.204	20807
804.346	20716
804.488	20583
804.63	20762
804.773	20598
804.915	20549
805.057	20792
805.199	20598
805.341	20762
805.483	20746
805.626	20712
805.768	20415
805.91	20575
806.052	20648
806.194	20560
806.336	20788
806.478	20640
806.62	20636
806.762	20743
806.904	20785
807.046	20956
807.188	20842
807.33	21024
807.472	20925
807.614	20724
807.756	20838
807.898	20689
808.04	20712
808.182	20663
808.324	20708
808.465	20712
808.607	20883
808.749	21013
808.891	21070
809.033	21020
809.174	21119
809.316	20918
809.458	20918
809.6	20941
809.741	20956
809.883	21116
810.025	21260
810.166	21173
810.308	21096
810.45	21020
810.591	20925
810.733	20925
810.875	20914
811.016	20667
811.158	20598
811.299	20750
811.441	20834
811.582	20899
811.724	20880
811.865	20663
812.007	20686
812.148	20716
812.29	20834
812.431	20853
812.573	21058
812.714	21135
812.855	21233
812.997	21294
813.138	21485
813.279	21393
813.421	21195
813.562	21199
813.703	20956
813.845	20876
813.986	20533
814.127	20317
814.268	20237
814.41	20366
814.551	20362
814.692	20381
814.833	20225
814.974	20324
815.115	20298
815.256	20100
815.397	20145
815.539	20035
815.68	20016
815.821	19917
815.962	19951
816.103	19970
816.244	19906
816.385	19814
816.526	19712
816.666	19559
816.807	19381
816.948	19464
817.089	19400
817.23	19491
817.371	19441
817.512	19282
817.653	19510
817.793	19343
817.934	19236
818.075	19350
818.216	19407
818.356	19381
818.497	19339
818.638	19076
818.778	19099
818.919	19004
819.06	19099
819.2	19088
819.341	19388
819.481	19430
819.622	19411
819.762	19548
819.903	19586
820.043	19556
820.184	19449
820.324	19457
820.465	19514
820.605	19491
820.746	19434
820.886	19198
821.026	19369
821.167	19396
821.307	19491
821.447	19282
821.588	19293
821.728	19122
821.868	18981
822.008	18753
822.149	18764
822.289	18681
822.429	18601
822.569	18506
822.709	18486
822.849	18232
822.99	18243
823.13	18205
823.27	18243
823.41	18224
823.55	18007
823.69	18178
823.83	18125
823.97	17939
824.11	17866
824.25	17920
824.389	17923
824.529	17992
824.669	17802
824.809	17923
824.949	17965
825.089	17946
825.228	17912
825.368	17726
825.508	17649
825.648	17703
825.787	17729
825.927	17729
826.067	17661
826.206	17589
826.346	17733
826.485	17722
826.625	17748
826.765	17745
826.904	17843
827.044	17490
827.183	17474
827.323	17452
827.462	17349
827.601	17364
827.741	17345
827.88	17440
828.02	17109
828.159	17288
828.298	17303
828.437	17448
828.577	17398
828.716	17478
828.855	17299
828.994	17212
829.134	17067
829.273	17124
829.412	17128
829.551	17064
829.69	17113
829.829	17307
829.968	17277
830.107	17197
830.246	17159
830.385	17018
830.524	17041
830.663	16869
830.802	16759
830.941	16869
831.08	16694
831.219	16934
831.357	16847
831.496	16915
831.635	16752
831.774	16634
831.913	16687
832.051	16481
832.19	16630
832.329	16675
832.467	16394
832.606	16417
832.744	16421
832.883	16470
833.022	16497
833.16	16455
833.299	16398
833.437	16554
833.576	16447
833.714	16527
833.852	16504
833.991	16630
834.129	16554
834.267	16542
834.406	16527
834.544	16588
834.682	16516
834.821	16550
834.959	16645
835.097	16432
835.235	16618
835.373	16584
835.511	16565
835.65	16493
835.788	16382
835.926	16303
836.064	16303
836.202	16215
836.34	16466
836.478	16569
836.615	16428
836.753	16443
836.891	16500
837.029	16459
837.167	16360
837.305	16363
837.443	16219
837.58	16322
837.718	16265
837.856	16329
837.993	16204
838.131	16249
838.269	16188
838.406	16188
838.544	16295
838.681	16017
838.819	16017
838.956	15892
839.094	15797
839.231	16010
839.369	15941
839.506	16211
839.643	16120
839.781	15808
839.918	15827
840.055	15937
840.193	15884
840.33	15873
840.467	15789
840.604	15865
840.742	16048
840.879	15823
841.016	15781
841.153	15709
841.29	15937
841.427	15956
841.564	15861
841.701	15888
841.838	15686
841.975	15804
842.112	15781
842.249	15660
842.385	15561
842.522	15804
842.659	15667
842.796	15682
842.933	15637
843.069	15549
843.206	15538
843.343	15732
843.479	15652
843.616	15686
843.752	15431
843.889	15439
844.025	15675
844.162	15340
844.298	15568
844.435	15458
844.571	15355
844.708	15428
844.844	15568
844.98	15568
845.117	15443
845.253	15397
845.389	15325
845.525	15370
845.661	15298
845.798	15313
845.934	15317
846.07	15161
846.206	15180
846.342	15393
846.478	15306
846.614	15093
846.75	15024
846.886	15085
847.022	15112
847.158	15024
847.294	15058
847.429	15017
847.565	14933
847.701	15245
847.837	14826
847.972	14735
848.108	14788
848.244	14819
848.379	14705
848.515	14526
848.65	14571
848.786	14579
848.921	14571
849.057	14724
849.192	14735
849.328	14651
849.463	14613
849.598	14530
849.734	14434
849.869	14545
850.004	14431
850.14	14396
850.275	14469
850.41	14339
850.545	14351
850.68	14366
850.815	14278
850.95	14404
851.085	14549
851.22	14644
851.355	14320
851.49	14339
851.625	14355
851.76	14233
851.895	14286
852.03	14210
852.165	14305
852.299	14415
852.434	14552
852.569	14450
852.703	14339
852.838	14469
852.973	14476
853.107	14541
853.242	14389
853.376	14320
853.511	14145
853.645	14233
853.78	14377
853.914	14225
854.048	14214
854.183	14142
854.317	14233
854.451	14381
854.585	14172
854.72	14172
854.854	14366
854.988	14096
855.122	14202
855.256	14123
855.39	14233
855.524	14404
855.658	14263
855.792	14233
855.926	14282
856.06	14290
856.194	14423
856.327	14172
856.461	14225
856.595	14259
856.729	14191
856.862	14351
856.996	14229
857.13	14377
857.263	14377
857.397	14484
857.53	14218
857.664	14332
857.797	14343
857.931	14385
858.064	14267
858.197	14263
858.331	14221
858.464	14263
858.597	14172
858.731	14210
858.864	14248
858.997	14259
859.13	14259
859.263	14294
859.396	14221
859.529	14187
859.662	14168
859.795	14221
859.928	14244
860.061	14389
860.194	14423
860.327	14248
860.46	14290
860.592	14313
860.725	14317
860.858	14328
860.99	14180
861.123	14233
861.256	14138
861.388	14259
861.521	14792
861.653	14161
861.786	14012
861.918	14126
862.05	14130
862.183	14210
862.315	14172
862.447	14225
862.58	14229
862.712	14001
862.844	14008
862.976	14130
863.108	13986
863.24	14533
863.372	13936
863.504	14016
863.636	13951
863.768	14016
863.9	13982
864.032	13970
864.164	14001
864.296	14084
864.428	14001
864.559	14202
864.691	14069
864.823	14046
864.954	14054
865.086	13997
865.217	13932
865.349	14058
865.48	14012
865.612	14046
865.743	14100
865.875	13978
866.006	13982
866.137	14069
866.269	13993
866.4	14012
866.531	13970
866.662	13986
866.793	13944
866.924	13997
867.055	13913
867.186	13963
867.317	13974
867.448	13944
867.579	13955
867.71	13932
867.841	13913
867.972	13917
868.103	14096
868.233	13989
868.364	13997
868.495	14107
868.625	14157
868.756	14438
868.886	14218
869.017	14259
869.147	14370
869.278	14404
869.408	14355
869.539	14244
869.669	14298
869.799	14187
869.929	14347
870.06	14381
870.19	14598
870.32	14571
870.45	14644
870.58	14640
870.71	14693
870.84	14693
870.97	14651
871.1	14678
871.23	14861
871.36	14773
871.489	14746
871.619	14804
871.749	14811
871.879	14929
872.008	14918
872.138	14902
872.267	14914
872.397	14731
872.526	14663
872.656	14727
872.785	14735
872.915	14937
873.044	14853
873.173	14861
873.303	14956
873.432	14956
873.561	14967
873.69	14853
873.819	14925
873.948	14895
874.077	14948
874.206	14918
874.335	14895
874.464	15058
874.593	15260
874.722	15237
874.851	15249
874.979	15283
875.108	15306
875.237	15146
875.365	15104
875.494	15199
875.623	15203
875.751	15116
875.88	15237
876.008	15359
876.136	15504
876.265	15523
876.393	15876
876.521	15800
876.65	15701
876.778	15557
876.906	15633
877.034	15595
877.162	15660
877.29	15450
877.418	15553
877.546	15667
877.674	15671
877.802	15682
877.93	15644
878.058	15660
878.185	15545
878.313	15603
878.441	15690
878.568	15496
878.696	15614
878.824	15694
878.951	15713
879.079	15915
879.206	15979
879.333	15751
879.461	15663
879.588	15720
879.715	15857
879.842	15861
879.97	15732
880.097	15462
880.224	15454
880.351	15450
880.478	15553
880.605	15496
880.732	15447
880.859	15713
880.986	15538
881.112	15523
881.239	15313
881.366	15283
881.493	15112
881.619	15127
881.746	15184
881.872	15077
881.999	15180
882.125	15093
882.252	15173
882.378	15287
882.505	15275
882.631	15097
882.757	14975
882.883	15032
883.01	14975
883.136	14975
883.262	14845
883.388	14826
883.514	14937
883.64	15043
883.766	14906
883.892	14781
884.018	14716
884.143	15017
884.269	15047
884.395	14807
884.52	14663
884.646	14655
884.772	14560
884.897	14560
885.023	14682
885.148	14708
885.274	14754
885.399	14807
885.524	14655
885.65	14575
885.775	14724
885.9	14739
886.025	14746
886.15	14743
886.275	14560
886.4	14537
886.525	14807
886.65	14602
886.775	14575
886.9	14777
887.025	14838
887.149	14731
887.274	14446
887.399	14389
887.523	14484
887.648	14427
887.773	14423
887.897	14511
888.021	14564
888.146	14511
888.27	14602
888.395	14598
888.519	14480
888.643	14552
888.767	14518
888.891	14408
889.015	14320
889.139	14385
889.263	14355
889.387	14423
889.511	14579
889.635	14533
889.759	14294
889.883	14343
890.006	14305
890.13	14400
890.254	14278
890.377	14225
890.501	14126
890.624	14157
890.748	14187
890.871	14058
890.995	14016
891.118	13974
891.241	13970
891.364	14043
891.488	14145
891.611	14096
891.734	14054
891.857	14100
891.98	14153
892.103	14134
892.226	14096
892.349	14077
892.471	13970
892.594	14020
892.717	14058
892.839	13986
892.962	14016
893.085	14100
893.207	14058
893.33	13913
893.452	13906
893.575	14157
893.697	14005
893.819	14263
893.941	14275
894.064	14210
894.186	14073
894.308	14069
894.43	14172
894.552	14336
894.674	14202
894.796	14027
894.918	13986
895.04	14088
895.161	14229
895.283	14214
895.405	14176
895.526	14187
895.648	14191
895.769	14214
895.891	14244
896.012	14347
896.134	14233
896.255	14286
896.376	14176
896.498	14145
896.619	14339
896.74	14267
896.861	14324
896.982	14579
897.103	14693
897.224	14492
897.345	14362
897.466	14415
897.587	14408
897.708	14617
897.828	14545
897.949	14465
898.07	14351
898.19	14507
898.311	14610
898.431	14530
898.552	14549
898.672	14670
898.792	14659
898.913	14648
899.033	14610
899.153	14473
899.273	14301
899.393	14423
899.513	14370
899.633	14484
899.753	14476
899.873	14298
899.993	14507
900.113	14434
900.232	14358
900.352	14347
900.472	14370
900.591	14294
900.711	14278
900.83	14229
900.95	14389
901.069	14336
901.189	14275
901.308	14012
901.427	14020
901.546	14046
901.665	13944
901.784	14062
901.904	13875
902.023	13757
902.141	13521
902.26	13594
902.379	13620
902.498	13491
902.617	13533
902.735	13518
902.854	13518
902.973	13415
903.091	13316
903.21	13236
903.328	13320
903.446	13160
903.565	13061
903.683	13122
903.801	13000
903.919	13072
904.038	13038
904.156	12920
904.274	13057
904.392	12871
904.51	12913
904.627	12962
904.745	12947
904.863	12966
904.981	12779
905.098	12620
905.216	12665
905.334	12646
905.451	12582
905.569	12517
905.686	12612
905.803	12654
905.921	12410
906.038	12570
906.155	12475
906.272	12334
906.389	12365
906.506	12167
906.623	12155
906.74	12311
906.857	12144
906.974	12117
907.091	12281
907.208	12372
907.324	12262
907.441	12133
907.557	12007
907.674	11965
907.79	11942
907.907	11935
908.023	11969
908.139	11961
908.256	11836
908.372	11866
908.488	11855
908.604	11767
908.72	11813
908.836	11695
908.952	11638
909.068	11798
909.184	11802
909.3	11790
909.415	11745
909.531	11665
909.647	11562
909.762	11570
909.878	11376
909.993	11528
910.108	11398
910.224	11383
910.339	11398
910.454	11417
910.57	11307
910.685	11315
910.8	11627
910.915	11528
911.03	11467
911.145	11189
911.259	11193
911.374	11151
911.489	11083
911.604	11048
911.718	10900
911.833	10953
911.947	10896
912.062	10755
912.176	10972
912.291	10908
912.405	10991
912.519	11132
912.633	11143
912.748	11003
912.862	10972
912.976	10839
913.09	10641
913.204	10862
913.318	10858
913.431	10850
913.545	10885
913.659	11010
913.772	10892
913.886	10797
914	10694
914.113	10805
914.226	10904
914.34	10748
914.453	10691
914.566	10790
914.68	10691
914.793	10588
914.906	10424
915.019	10344
915.132	10424
915.245	10508
915.358	10512
915.47	10497
915.583	10481
915.696	10538
915.809	10599
915.921	10618
916.034	10558
916.146	10405
916.259	10394
916.371	10493
916.483	10508
916.595	10382
916.708	10436
916.82	10432
916.932	10325
917.044	10360
917.156	10394
917.268	10268
917.38	10322
917.491	10227
917.603	10314
917.715	10306
917.826	10375
917.938	10261
918.049	10204
918.161	10268
918.272	10447
918.384	10352
918.495	10322
918.606	10147
918.717	10158
918.828	10215
918.939	10162
919.05	10105
919.161	10124
919.272	9972
919.383	10090
919.494	10200
919.604	10424
919.715	10211
919.826	10101
919.936	10135
920.047	10211
920.157	10223
920.267	10375
920.378	10223
920.488	10109
920.598	10531
920.708	10497
920.818	10405
920.928	10402
921.038	10500
921.148	10485
921.258	10234
921.368	10071
921.477	10013
921.587	10021
921.697	9918
921.806	10051
921.916	9968
922.025	9713
922.134	9793
922.244	9675
922.353	9831
922.462	9580
922.571	9606
922.68	9424
922.789	9393
922.898	9424
923.007	9291
923.116	9443
923.224	9523
923.333	9431
923.442	9291
923.55	9294
923.659	9401
923.767	9435
923.876	9291
923.984	9359
924.092	9218
924.201	9275
924.309	9275
924.417	9386
924.525	9279
924.633	9268
924.741	9949
924.849	9097
924.956	9218
925.064	9032
925.172	9013
925.279	9020
925.387	9154
925.494	9116
925.602	9237
925.709	9176
925.816	9013
925.924	9074
926.031	9154
926.138	9131
926.245	9089
926.352	9066
926.459	9173
926.566	9192
926.673	9047
926.779	8906
926.886	8979
926.993	8788
927.099	8754
927.206	8807
927.312	8781
927.419	8929
927.525	8830
927.631	8815
927.737	8769
927.843	8617
927.95	8644
928.056	8659
928.162	8659
928.267	8777
928.373	9397
928.479	8811
928.585	8533
928.69	8701
928.796	8686
928.901	8594
929.007	8503
929.112	8632
929.218	8636
929.323	8568
929.428	8560
929.533	8617
929.638	8469
929.743	8454
929.848	8526
929.953	8503
930.058	8465
930.163	8248
930.267	8339
930.372	8434
930.477	8256
930.581	8507
930.685	8317
930.79	8180
930.894	8343
930.998	8267
931.103	8393
931.207	8050
931.311	7970
931.415	7906
931.519	7734
931.623	7765
