Data from test_V78500241_3340.txt Node
Date: Fri Mar 25 14:56:58 CST 2022
User: usil
Spectrometer: V785-0024
Trigger mode: 0
Integration Time (sec): 4.000000E-1
Scans to average: 1
Nonlinearity correction enabled: false
Boxcar width: 0
Storing dark spectrum: false
XAxis mode: Wavelengths
Number of Pixels in Spectrum: 1024
>>>>>Begin Spectral Data<<<<<
801.071	21934
801.214	21964
801.356	21591
801.499	21580
801.641	21466
801.783	21226
801.926	21348
802.068	21321
802.211	21264
802.353	21089
802.496	20876
802.638	20731
802.78	20777
802.923	20686
803.065	20663
803.208	20560
803.35	20587
803.492	20724
803.635	20834
803.777	20613
803.919	20792
804.061	20906
804.204	20651
804.346	20590
804.488	20552
804.63	20602
804.773	20488
804.915	20541
805.057	20568
805.199	20457
805.341	20640
805.483	20556
805.626	20667
805.768	20469
805.91	20564
806.052	20560
806.194	20446
806.336	20705
806.478	20530
806.62	20568
806.762	20602
806.904	20659
807.046	20998
807.188	20823
807.33	20956
807.472	21009
807.614	20788
807.756	20750
807.898	20693
808.04	20484
808.182	20674
808.324	20705
808.465	20606
808.607	20792
808.749	20887
808.891	21100
809.033	20914
809.174	20952
809.316	20872
809.458	20853
809.6	20868
809.741	20963
809.883	21001
810.025	21005
810.166	20982
810.308	20963
810.45	21017
810.591	20849
810.733	20788
810.875	20674
811.016	20678
811.158	20613
811.299	20735
811.441	20743
811.582	20872
811.724	20697
811.865	20579
812.007	20613
812.148	20590
812.29	20754
812.431	20746
812.573	20963
812.714	21005
812.855	21199
812.997	21230
813.138	21291
813.279	21287
813.421	21089
813.562	20941
813.703	20941
813.845	20834
813.986	20571
814.127	20381
814.268	20237
814.41	20164
814.551	20240
814.692	20164
814.833	20142
814.974	20111
815.115	20263
815.256	20012
815.397	20054
815.539	20145
815.68	19951
815.821	19845
815.962	19883
816.103	19868
816.244	19814
816.385	19776
816.526	19635
816.666	19552
816.807	19289
816.948	19400
817.089	19476
817.23	19445
817.371	19316
817.512	19358
817.653	19339
817.793	19209
817.934	19373
818.075	19445
818.216	19168
818.356	19221
818.497	19190
818.638	18939
818.778	19015
818.919	18951
819.06	19072
819.2	19209
819.341	19190
819.481	19255
819.622	19324
819.762	19556
819.903	19384
820.043	19483
820.184	19327
820.324	19377
820.465	19415
820.605	19365
820.746	19324
820.886	19080
821.026	19228
821.167	19282
821.307	19240
821.447	19350
821.588	19137
821.728	19000
821.868	18840
822.008	18741
822.149	18791
822.289	18707
822.429	18486
822.569	18319
822.709	18418
822.849	18289
822.99	18148
823.13	18254
823.27	18117
823.41	17984
823.55	18007
823.69	18022
823.83	18068
823.97	17988
824.11	17767
824.25	17809
824.389	17741
824.529	17809
824.669	17927
824.809	17893
824.949	17965
825.089	17882
825.228	17794
825.368	17585
825.508	17600
825.648	17596
825.787	17596
825.927	17707
826.067	17429
826.206	17551
826.346	17615
826.485	17585
826.625	17665
826.765	17729
826.904	17646
827.044	17356
827.183	17372
827.323	17227
827.462	17387
827.601	17349
827.741	17277
827.88	17277
828.02	17189
828.159	17254
828.298	17170
828.437	17334
828.577	17212
828.716	17402
828.855	17200
828.994	17136
829.134	17090
829.273	17094
829.412	16987
829.551	16961
829.69	16972
829.829	17083
829.968	17204
830.107	17090
830.246	17090
830.385	16999
830.524	16915
830.663	16778
830.802	16733
830.941	16706
831.08	16664
831.219	16698
831.357	16725
831.496	16786
831.635	16622
831.774	16470
831.913	16497
832.051	16322
832.19	16462
832.329	16470
832.467	16402
832.606	16314
832.744	16253
832.883	16375
833.022	16360
833.16	16466
833.299	16367
833.437	16291
833.576	16306
833.714	16413
833.852	16333
833.991	16398
834.129	16489
834.267	16504
834.406	16459
834.544	16478
834.682	16519
834.821	16432
834.959	16569
835.097	16344
835.235	16489
835.373	16386
835.511	16489
835.65	16333
835.788	16257
835.926	16257
836.064	16200
836.202	16287
836.34	16360
836.478	16447
836.615	16325
836.753	16314
836.891	16417
837.029	16356
837.167	16352
837.305	16211
837.443	16211
837.58	16169
837.718	16261
837.856	16162
837.993	16124
838.131	16287
838.269	16093
838.406	16101
838.544	16097
838.681	15873
838.819	15991
838.956	15743
839.094	15766
839.231	15899
839.369	15937
839.506	16196
839.643	16006
839.781	15774
839.918	15633
840.055	15743
840.193	15781
840.33	15709
840.467	15644
840.604	15751
840.742	15968
840.879	15504
841.016	15660
841.153	15759
841.29	15892
841.427	15835
841.564	15781
841.701	15797
841.838	15762
841.975	15568
842.112	15698
842.249	15595
842.385	15462
842.522	15759
842.659	15538
842.796	15641
842.933	15557
843.069	15488
843.206	15462
843.343	15568
843.479	15610
843.616	15599
843.752	15382
843.889	15272
844.025	15587
844.162	15241
844.298	15443
844.435	15355
844.571	15245
844.708	15393
844.844	15473
844.98	15420
845.117	15420
845.253	15233
845.389	15165
845.525	15180
845.661	15097
845.798	15184
845.934	15192
846.07	15157
846.206	15142
846.342	15313
846.478	15154
846.614	15028
846.75	14895
846.886	14826
847.022	14956
847.158	14948
847.294	14963
847.429	14982
847.565	14849
847.701	15146
847.837	14689
847.972	14568
848.108	14765
848.244	14727
848.379	14602
848.515	14552
848.65	14533
848.786	14499
848.921	14434
849.057	14610
849.192	14670
849.328	14571
849.463	14530
849.598	14412
849.734	14415
849.869	14465
850.004	14313
850.14	14324
850.275	14332
850.41	14263
850.545	14366
850.68	14256
850.815	14237
850.95	14172
851.085	14431
851.22	14404
851.355	14324
851.49	14168
851.625	14282
851.76	14183
851.895	14145
852.03	14153
852.165	14199
852.299	14324
852.434	14355
852.569	14290
852.703	14244
852.838	14313
852.973	14469
853.107	14385
853.242	14271
853.376	14107
853.511	13959
853.645	14107
853.78	14290
853.914	14180
854.048	14138
854.183	14119
854.317	14221
854.451	14282
854.585	14172
854.72	14081
854.854	14225
854.988	14001
855.122	14027
855.256	14043
855.39	14130
855.524	14126
855.658	14191
855.792	14153
855.926	14210
856.06	14237
856.194	14187
856.327	14164
856.461	14043
856.595	14214
856.729	14107
856.862	14244
856.996	14100
857.13	14248
857.263	14267
857.397	14305
857.53	14081
857.664	14195
857.797	14309
857.931	14320
858.064	14206
858.197	14286
858.331	14168
858.464	14073
858.597	14012
858.731	14115
858.864	14081
858.997	14043
859.13	14100
859.263	14100
859.396	14275
859.529	14142
859.662	14092
859.795	14123
859.928	14199
860.061	14229
860.194	14233
860.327	14168
860.46	14248
860.592	14275
860.725	14263
860.858	14256
860.99	14149
861.123	14039
861.256	14123
861.388	14191
861.521	14960
861.653	14024
861.786	14008
861.918	13970
862.05	14161
862.183	14027
862.315	14282
862.447	14195
862.58	14005
862.712	13944
862.844	13974
862.976	14027
863.108	13963
863.24	14252
863.372	13826
863.504	13913
863.636	13928
863.768	13902
863.9	13993
864.032	13879
864.164	13837
864.296	14008
864.428	14031
864.559	13879
864.691	13986
864.823	14016
864.954	13959
865.086	13940
865.217	13894
865.349	13807
865.48	13818
865.612	13780
865.743	13959
865.875	13951
866.006	13887
866.137	13963
866.269	13906
866.4	13909
866.531	13852
866.662	13909
866.793	13818
866.924	13837
867.055	13925
867.186	13860
867.317	13849
867.448	13898
867.579	13909
867.71	13860
867.841	13887
867.972	13982
868.103	13864
868.233	13925
868.364	13909
868.495	14027
868.625	14191
868.756	14142
868.886	14069
869.017	14229
869.147	14298
869.278	14244
869.408	14191
869.539	14237
869.669	14214
869.799	14244
869.929	14294
870.06	14343
870.19	14484
870.32	14518
870.45	14571
870.58	14629
870.71	14735
870.84	14701
870.97	14670
871.1	14632
871.23	14769
871.36	14853
871.489	14602
871.619	14857
871.749	14823
871.879	14849
872.008	14887
872.138	14746
872.267	14735
872.397	14644
872.526	14689
872.656	14568
872.785	14678
872.915	14868
873.044	14948
873.173	14887
873.303	14952
873.432	14845
873.561	14819
873.69	14830
873.819	14880
873.948	15005
874.077	14891
874.206	14819
874.335	14834
874.464	15013
874.593	15203
874.722	15161
874.851	15252
874.979	15100
875.108	15173
875.237	15157
875.365	15013
875.494	15135
875.623	15195
875.751	15150
875.88	15085
876.008	15325
876.136	15412
876.265	15542
876.393	15778
876.521	15637
876.65	15724
876.778	15679
876.906	15488
877.034	15553
877.162	15606
877.29	15523
877.418	15584
877.546	15698
877.674	15622
877.802	15580
877.93	15584
878.058	15644
878.185	15523
878.313	15599
878.441	15660
878.568	15526
878.696	15606
878.824	15511
878.951	15667
879.079	15770
879.206	15892
879.333	15785
879.461	15625
879.588	15732
879.715	15823
879.842	15842
879.97	15618
880.097	15454
880.224	15477
880.351	15477
880.478	15412
880.605	15401
880.732	15420
880.859	15679
880.986	15469
881.112	15485
881.239	15291
881.366	15249
881.493	15116
881.619	15070
881.746	15108
881.872	15081
881.999	15074
882.125	15157
882.252	15146
882.378	15100
882.505	15241
882.631	14967
882.757	14963
882.883	15009
883.01	14891
883.136	14883
883.262	14773
883.388	14804
883.514	14971
883.64	15013
883.766	14807
883.892	14693
884.018	14861
884.143	14899
884.269	14971
884.395	14663
884.52	14503
884.646	14606
884.772	14552
884.897	14583
885.023	14579
885.148	14648
885.274	14868
885.399	14708
885.524	14674
885.65	14583
885.775	14594
885.9	14583
886.025	14746
886.15	14689
886.275	14648
886.4	14518
886.525	14648
886.65	14610
886.775	14598
886.9	14739
887.025	14830
887.149	14621
887.274	14526
887.399	14579
887.523	14370
887.648	14347
887.773	14381
887.897	14427
888.021	14473
888.146	14476
888.27	14556
888.395	14636
888.519	14511
888.643	14541
888.767	14549
888.891	14324
889.015	14229
889.139	14400
889.263	14328
889.387	14499
889.511	14518
889.635	14511
889.759	14427
889.883	14267
890.006	14381
890.13	14450
890.254	14256
890.377	14351
890.501	14107
890.624	14145
890.748	14225
890.871	14077
890.995	13967
891.118	13947
891.241	13989
891.364	14020
891.488	14149
891.611	14050
891.734	14043
891.857	14077
891.98	14005
892.103	14164
892.226	14119
892.349	13993
892.471	13917
892.594	14035
892.717	14088
892.839	14050
892.962	13997
893.085	14065
893.207	13967
893.33	13940
893.452	14027
893.575	14092
893.697	13925
893.819	14149
893.941	14256
894.064	14183
894.186	14100
894.308	14008
894.43	14126
894.552	14233
894.674	14191
894.796	14031
894.918	14115
895.04	13993
895.161	14130
895.283	14062
895.405	14016
895.526	14149
895.648	14214
895.769	14263
895.891	14138
896.012	14240
896.134	14199
896.255	14187
896.376	14134
896.498	14195
896.619	14199
896.74	14191
896.861	14218
896.982	14541
897.103	14571
897.224	14552
897.345	14476
897.466	14427
897.587	14408
897.708	14579
897.828	14522
897.949	14427
898.07	14339
898.19	14431
898.311	14579
898.431	14396
898.552	14499
898.672	14689
898.792	14594
898.913	14575
899.033	14560
899.153	14400
899.273	14355
899.393	14275
899.513	14351
899.633	14415
899.753	14415
899.873	14480
899.993	14469
900.113	14381
900.232	14404
900.352	14313
900.472	14309
900.591	14244
900.711	14301
900.83	14153
900.95	14381
901.069	14393
901.189	14183
901.308	13978
901.427	13921
901.546	13833
901.665	13932
901.784	13883
901.904	13883
902.023	13738
902.141	13552
902.26	13518
902.379	13605
902.498	13502
902.617	13422
902.735	13624
902.854	13582
902.973	13426
903.091	13236
903.21	13251
903.328	13198
903.446	13145
903.565	13122
903.683	13076
903.801	12939
903.919	13065
904.038	12993
904.156	12852
904.274	12981
904.392	12882
904.51	12894
904.627	12829
904.745	12859
904.863	12981
904.981	12658
905.098	12673
905.216	12570
905.334	12498
905.451	12570
905.569	12601
905.686	12623
905.803	12646
905.921	12365
906.038	12532
906.155	12418
906.272	12365
906.389	12270
906.506	12114
906.623	12213
906.74	12175
906.857	12083
906.974	12121
907.091	12330
907.208	12338
907.324	12213
907.441	12171
907.557	11920
907.674	11996
907.79	11855
907.907	11912
908.023	11992
908.139	12011
908.256	11893
908.372	11923
908.488	11821
908.604	11794
908.72	11657
908.836	11634
908.952	11615
909.068	11722
909.184	11786
909.3	11714
909.415	11798
909.531	11729
909.647	11535
909.762	11364
909.878	11368
909.993	11433
910.108	11539
910.224	11429
910.339	11497
910.454	11368
910.57	11239
910.685	11197
910.8	11524
910.915	11497
911.03	11349
911.145	11201
911.259	11128
911.374	11208
911.489	11075
911.604	11075
911.718	11029
911.833	10972
911.947	10763
912.062	10755
912.176	10942
912.291	10908
912.405	10934
912.519	11090
912.633	11045
912.748	10999
912.862	10938
912.976	10831
913.09	10649
913.204	10763
913.318	10869
913.431	10881
913.545	10927
913.659	10949
913.772	10805
913.886	10664
914	10656
914.113	10763
914.226	10835
914.34	10683
914.453	10615
914.566	10729
914.68	10687
914.793	10702
914.906	10440
915.019	10398
915.132	10325
915.245	10432
915.358	10421
915.47	10466
915.583	10428
915.696	10367
915.809	10546
915.921	10634
916.034	10451
916.146	10417
916.259	10371
916.371	10504
916.483	10398
916.595	10352
916.708	10360
916.82	10405
916.932	10421
917.044	10371
917.156	10390
917.268	10280
917.38	10185
917.491	10268
917.603	10238
917.715	10352
917.826	10356
917.938	10204
918.049	10169
918.161	10280
918.272	10394
918.384	10352
918.495	10337
918.606	10143
918.717	10086
918.828	10173
918.939	10188
919.05	10067
919.161	10059
919.272	9983
919.383	10025
919.494	10249
919.604	10356
919.715	10128
919.826	10090
919.936	10078
920.047	10192
920.157	10154
920.267	10398
920.378	10215
920.488	10169
920.598	10379
920.708	10497
920.818	10379
920.928	10405
921.038	10558
921.148	10455
921.258	10215
921.368	10177
921.477	10010
921.587	10090
921.697	9953
921.806	10029
921.916	9960
922.025	9671
922.134	9705
922.244	9682
922.353	9800
922.462	9652
922.571	9481
922.68	9466
922.789	9344
922.898	9431
923.007	9412
923.116	9504
923.224	9458
923.333	9393
923.442	9344
923.55	9321
923.659	9306
923.767	9401
923.876	9195
923.984	9351
924.092	9222
924.201	9264
924.309	9287
924.417	9275
924.525	9203
924.633	9249
924.741	10147
924.849	8982
924.956	9203
925.064	9112
925.172	8982
925.279	9032
925.387	9119
925.494	9089
925.602	9192
925.709	9180
925.816	9001
925.924	9020
926.031	9275
926.138	9077
926.245	9127
926.352	9013
926.459	9100
926.566	9123
926.673	9047
926.779	8982
926.886	8941
926.993	8807
927.099	8819
927.206	8762
927.312	8739
927.419	8819
927.525	8864
927.631	8895
927.737	8693
927.843	8731
927.95	8587
928.056	8686
928.162	8708
928.267	8720
928.373	9355
928.479	8705
928.585	8530
928.69	8720
928.796	8686
928.901	8606
929.007	8488
929.112	8659
929.218	8621
929.323	8518
929.428	8514
929.533	8682
929.638	8389
929.743	8488
929.848	8537
929.953	8465
930.058	8431
930.163	8218
930.267	8301
930.372	8366
930.477	8271
930.581	8610
930.685	8305
930.79	8229
930.894	8301
930.998	8244
931.103	8351
931.207	7993
931.311	7959
931.415	7894
931.519	7753
931.623	7723
