Data from test_V78500241_431.txt Node
Date: Fri Mar 25 14:36:43 CST 2022
User: usil
Spectrometer: V785-0024
Trigger mode: 0
Integration Time (sec): 4.000000E-1
Scans to average: 1
Nonlinearity correction enabled: false
Boxcar width: 0
Storing dark spectrum: false
XAxis mode: Wavelengths
Number of Pixels in Spectrum: 1024
>>>>>Begin Spectral Data<<<<<
801.071	26739
801.214	26590
801.356	26358
801.499	26347
801.641	26180
801.783	26008
801.926	26058
802.068	26039
802.211	25830
802.353	25784
802.496	25879
802.638	25696
802.78	25670
802.923	25605
803.065	25449
803.208	25639
803.35	25696
803.492	25624
803.635	25727
803.777	25655
803.919	25582
804.061	25814
804.204	25601
804.346	25441
804.488	25312
804.63	25628
804.773	25426
804.915	25582
805.057	25651
805.199	25681
805.341	25514
805.483	25590
805.626	25578
805.768	25662
805.91	25609
806.052	25590
806.194	25453
806.336	25590
806.478	25590
806.62	25677
806.762	25731
806.904	25871
807.046	26168
807.188	25864
807.33	25814
807.472	26008
807.614	25830
807.756	25894
807.898	25833
808.04	25628
808.182	25655
808.324	25685
808.465	25708
808.607	25849
808.749	26069
808.891	26084
809.033	26332
809.174	26172
809.316	26077
809.458	25913
809.6	25963
809.741	26058
809.883	26088
810.025	26271
810.166	26317
810.308	26221
810.45	26275
810.591	26073
810.733	26001
810.875	25936
811.016	25830
811.158	25772
811.299	25913
811.441	26027
811.582	26058
811.724	25795
811.865	25944
812.007	25875
812.148	26043
812.29	25928
812.431	25966
812.573	26210
812.714	26267
812.855	26385
812.997	26423
813.138	26598
813.279	26537
813.421	26313
813.562	26237
813.703	26275
813.845	25917
813.986	25830
814.127	25624
814.268	25518
814.41	25495
814.551	25693
814.692	25502
814.833	25445
814.974	25354
815.115	25415
815.256	25221
815.397	25240
815.539	25308
815.68	25145
815.821	25198
815.962	24981
816.103	25183
816.244	24947
816.385	24810
816.526	24970
816.666	24776
816.807	24578
816.948	24658
817.089	24681
817.23	24677
817.371	24616
817.512	24540
817.653	24582
817.793	24426
817.934	24547
818.075	24654
818.216	24707
818.356	24536
818.497	24486
818.638	24292
818.778	24228
818.919	24213
819.06	24391
819.2	24330
819.341	24445
819.481	24490
819.622	24703
819.762	24768
819.903	24783
820.043	24570
820.184	24661
820.324	24528
820.465	24688
820.605	24574
820.746	24639
820.886	24429
821.026	24403
821.167	24525
821.307	24604
821.447	24445
821.588	24262
821.728	24243
821.868	24076
822.008	23889
822.149	23885
822.289	23920
822.429	23589
822.569	23570
822.709	23577
822.849	23383
822.99	23482
823.13	23471
823.27	23307
823.41	23143
823.55	23143
823.69	23235
823.83	23200
823.97	22957
824.11	22850
824.25	22923
824.389	22828
824.529	22972
824.669	22904
824.809	23003
824.949	22904
825.089	22900
825.228	22968
825.368	22626
825.508	22744
825.648	22729
825.787	22816
825.927	22694
826.067	22713
826.206	22649
826.346	22797
826.485	22725
826.625	22630
826.765	22778
826.904	22786
827.044	22489
827.183	22580
827.323	22398
827.462	22527
827.601	22325
827.741	22360
827.88	22417
828.02	22261
828.159	22360
828.298	22284
828.437	22462
828.577	22295
828.716	22344
828.855	22295
828.994	22090
829.134	22021
829.273	22230
829.412	21998
829.551	21975
829.69	22017
829.829	22051
829.968	22116
830.107	22040
830.246	22055
830.385	22082
830.524	22017
830.663	21895
830.802	21759
830.941	21728
831.08	21633
831.219	21743
831.357	21713
831.496	21869
831.635	21618
831.774	21583
831.913	21526
832.051	21545
832.19	21340
832.329	21351
832.467	21378
832.606	21298
832.744	21302
832.883	21348
833.022	21245
833.16	21344
833.299	21329
833.437	21283
833.576	21416
833.714	21332
833.852	21321
833.991	21268
834.129	21363
834.267	21412
834.406	21466
834.544	21348
834.682	21306
834.821	21135
834.959	21523
835.097	21340
835.235	21359
835.373	21264
835.511	21294
835.65	21245
835.788	21184
835.926	20925
836.064	20944
836.202	20963
836.34	21074
836.478	21214
836.615	21093
836.753	21283
836.891	21256
837.029	21146
837.167	21157
837.305	21013
837.443	20986
837.58	21077
837.718	21001
837.856	21058
837.993	21043
838.131	21013
838.269	20952
838.406	21005
838.544	20785
838.681	20701
838.819	20682
838.956	20427
839.094	20533
839.231	20587
839.369	20606
839.506	20864
839.643	20560
839.781	20473
839.918	20427
840.055	20431
840.193	20473
840.33	20381
840.467	20358
840.604	20499
840.742	20693
840.879	20275
841.016	20305
841.153	20221
841.29	20465
841.427	20396
841.564	20404
841.701	20412
841.838	20237
841.975	20252
842.112	20187
842.249	20176
842.385	20050
842.522	20309
842.659	20180
842.796	20119
842.933	20058
843.069	20027
843.206	20176
843.343	20210
843.479	20100
843.616	20092
843.752	19894
843.889	19879
844.025	20016
844.162	19814
844.298	19967
844.435	19925
844.571	19811
844.708	19970
844.844	20050
844.98	20031
845.117	19940
845.253	19864
845.389	19700
845.525	19822
845.661	19750
845.798	19708
845.934	19635
846.07	19685
846.206	19708
846.342	19734
846.478	19647
846.614	19521
846.75	19354
846.886	19232
847.022	19411
847.158	19324
847.294	19422
847.429	19392
847.565	19263
847.701	19514
847.837	19072
847.972	19015
848.108	19179
848.244	19091
848.379	18943
848.515	19004
848.65	18825
848.786	18863
848.921	18909
849.057	18989
849.192	19012
849.328	18951
849.463	18947
849.598	18856
849.734	18878
849.869	18677
850.004	18661
850.14	18631
850.275	18688
850.41	18494
850.545	18547
850.68	18722
850.815	18570
850.95	18635
851.085	18787
851.22	18768
851.355	18521
851.49	18582
851.625	18612
851.76	18555
851.895	18559
852.03	18513
852.165	18673
852.299	18639
852.434	18707
852.569	18650
852.703	18608
852.838	18798
852.973	18798
853.107	18741
853.242	18532
853.376	18559
853.511	18399
853.645	18422
853.78	18532
853.914	18426
854.048	18407
854.183	18410
854.317	18437
854.451	18616
854.585	18486
854.72	18460
854.854	18509
854.988	18380
855.122	18384
855.256	18308
855.39	18445
855.524	18464
855.658	18452
855.792	18467
855.926	18448
856.06	18369
856.194	18509
856.327	18494
856.461	18498
856.595	18479
856.729	18380
856.862	18563
856.996	18437
857.13	18532
857.263	18490
857.397	18513
857.53	18452
857.664	18365
857.797	18391
857.931	18559
858.064	18357
858.197	18544
858.331	18429
858.464	18311
858.597	18243
858.731	18376
858.864	18361
858.997	18353
859.13	18456
859.263	18456
859.396	18532
859.529	18346
859.662	18403
859.795	18323
859.928	18486
860.061	18502
860.194	18448
860.327	18391
860.46	18311
860.592	18513
860.725	18456
860.858	18460
860.99	18262
861.123	18243
861.256	18270
861.388	18311
861.521	19065
861.653	18281
861.786	18152
861.918	18277
862.05	18296
862.183	18372
862.315	18323
862.447	18479
862.58	18448
862.712	18144
862.844	18182
862.976	18148
863.108	18194
863.24	18456
863.372	18034
863.504	18243
863.636	18106
863.768	18197
863.9	18148
864.032	18034
864.164	18072
864.296	18155
864.428	18163
864.559	18262
864.691	18140
864.823	18095
864.954	18190
865.086	18083
865.217	17988
865.349	17920
865.48	18102
865.612	17999
865.743	18076
865.875	17950
866.006	17980
866.137	18015
866.269	18026
866.4	18030
866.531	17954
866.662	18011
866.793	17931
866.924	17882
867.055	17980
867.186	18007
867.317	18030
867.448	17916
867.579	17916
867.71	17851
867.841	17863
867.972	17980
868.103	17889
868.233	17954
868.364	17973
868.495	18041
868.625	18110
868.756	18304
868.886	18068
869.017	18117
869.147	18308
869.278	18254
869.408	18167
869.539	18144
869.669	18136
869.799	18273
869.929	18418
870.06	18243
870.19	18445
870.32	18498
870.45	18616
870.58	18631
870.71	18787
870.84	18665
870.97	18578
871.1	18669
871.23	18806
871.36	18692
871.489	18684
871.619	18673
871.749	18783
871.879	18795
872.008	18943
872.138	18764
872.267	18795
872.397	18696
872.526	18585
872.656	18642
872.785	18703
872.915	18779
873.044	18825
873.173	18802
873.303	18821
873.432	18844
873.561	18817
873.69	18863
873.819	18863
873.948	18935
874.077	18783
874.206	18814
874.335	18768
874.464	18935
874.593	19160
874.722	19091
874.851	19099
874.979	19031
875.108	19187
875.237	19000
875.365	19080
875.494	18966
875.623	19228
875.751	19050
875.88	19061
876.008	19232
876.136	19297
876.265	19537
876.393	19647
876.521	19556
876.65	19525
876.778	19533
876.906	19491
877.034	19403
877.162	19578
877.29	19365
877.418	19510
877.546	19468
877.674	19529
877.802	19559
877.93	19419
878.058	19457
878.185	19396
878.313	19537
878.441	19411
878.568	19400
878.696	19449
878.824	19556
878.951	19582
879.079	19742
879.206	19879
879.333	19616
879.461	19567
879.588	19655
879.715	19696
879.842	19772
879.97	19575
880.097	19457
880.224	19301
880.351	19388
880.478	19316
880.605	19400
880.732	19384
880.859	19575
880.986	19388
881.112	19457
881.239	19263
881.366	19110
881.493	19000
881.619	19004
881.746	19012
881.872	19027
881.999	19008
882.125	18943
882.252	19137
882.378	19050
882.505	19057
882.631	18981
882.757	18821
882.883	18878
883.01	18757
883.136	18776
883.262	18627
883.388	18665
883.514	18700
883.64	18802
883.766	18677
883.892	18532
884.018	18563
884.143	18753
884.269	18772
884.395	18566
884.52	18475
884.646	18426
884.772	18384
884.897	18410
885.023	18372
885.148	18464
885.274	18540
885.399	18479
885.524	18471
885.65	18498
885.775	18456
885.9	18414
886.025	18570
886.15	18300
886.275	18414
886.4	18330
886.525	18300
886.65	18281
886.775	18350
886.9	18426
887.025	18532
887.149	18346
887.274	18258
887.399	18224
887.523	18224
887.648	18102
887.773	18114
887.897	18285
888.021	18190
888.146	18022
888.27	18251
888.395	18296
888.519	18190
888.643	18213
888.767	18247
888.891	18163
889.015	18041
889.139	18098
889.263	17920
889.387	18152
889.511	18083
889.635	18091
889.759	17923
889.883	17958
890.006	18038
890.13	18057
890.254	17958
890.377	17843
890.501	17668
890.624	17707
890.748	17832
890.871	17817
890.995	17524
891.118	17539
891.241	17596
891.364	17604
891.488	17718
891.611	17710
891.734	17566
891.857	17703
891.98	17649
892.103	17707
892.226	17733
892.349	17547
892.471	17493
892.594	17539
892.717	17577
892.839	17532
892.962	17562
893.085	17570
893.207	17554
893.33	17383
893.452	17459
893.575	17585
893.697	17547
893.819	17726
893.941	17649
894.064	17745
894.186	17467
894.308	17512
894.43	17691
894.552	17764
894.674	17710
894.796	17493
894.918	17474
895.04	17440
895.161	17676
895.283	17649
895.405	17547
895.526	17505
895.648	17516
895.769	17634
895.891	17592
896.012	17653
896.134	17691
896.255	17684
896.376	17684
896.498	17592
896.619	17695
896.74	17608
896.861	17817
896.982	17958
897.103	18034
897.224	17908
897.345	17840
897.466	17805
897.587	17726
897.708	17927
897.828	17923
897.949	17748
898.07	17863
898.19	17824
898.311	17965
898.431	17828
898.552	17904
898.672	17939
898.792	17992
898.913	17950
899.033	17771
899.153	17566
899.273	17570
899.393	17630
899.513	17699
899.633	17619
899.753	17726
899.873	17497
899.993	17726
900.113	17596
900.232	17741
900.352	17634
900.472	17596
900.591	17532
900.711	17516
900.83	17410
900.95	17596
901.069	17592
901.189	17452
901.308	17292
901.427	16999
901.546	17105
901.665	17128
901.784	17045
901.904	16965
902.023	16915
902.141	16767
902.26	16637
902.379	16782
902.498	16755
902.617	16577
902.735	16721
902.854	16519
902.973	16512
903.091	16504
903.21	16375
903.328	16295
903.446	16196
903.565	16226
903.683	16177
903.801	16101
903.919	16109
904.038	16147
904.156	16044
904.274	16002
904.392	15941
904.51	15892
904.627	15899
904.745	15953
904.863	15941
904.981	15747
905.098	15644
905.216	15698
905.334	15648
905.451	15644
905.569	15542
905.686	15652
905.803	15485
905.921	15477
906.038	15564
906.155	15355
906.272	15298
906.389	15298
906.506	15154
906.623	15161
906.74	15169
906.857	15039
906.974	15123
907.091	15203
907.208	15325
907.324	15207
907.441	14967
907.557	14769
907.674	14883
907.79	14720
907.907	14823
908.023	14796
908.139	14830
908.256	14724
908.372	14807
908.488	14762
908.604	14731
908.72	14530
908.836	14606
908.952	14499
909.068	14499
909.184	14644
909.3	14583
909.415	14632
909.531	14484
909.647	14298
909.762	14294
909.878	14252
909.993	14298
910.108	14210
910.224	14172
910.339	14267
910.454	14092
910.57	14119
910.685	14027
910.8	14358
910.915	14301
911.03	14081
911.145	13967
911.259	13932
911.374	13894
911.489	13875
911.604	13799
911.718	13734
911.833	13613
911.947	13559
912.062	13381
912.176	13605
912.291	13620
912.405	13632
912.519	13830
912.633	13864
912.748	13708
912.862	13563
912.976	13480
913.09	13411
913.204	13377
913.318	13453
913.431	13563
913.545	13521
913.659	13548
913.772	13556
913.886	13354
914	13251
914.113	13422
914.226	13430
914.34	13396
914.453	13251
914.566	13301
914.68	13232
914.793	13187
914.906	13107
915.019	12977
915.132	12905
915.245	12966
915.358	13023
915.47	13046
915.583	13004
915.696	13057
915.809	13084
915.921	13080
916.034	12909
916.146	12924
916.259	12859
916.371	12970
916.483	12993
916.595	12882
916.708	12920
916.82	12875
916.932	12821
917.044	12833
917.156	12791
917.268	12734
917.38	12783
917.491	12741
917.603	12798
917.715	12798
917.826	12806
917.938	12681
918.049	12589
918.161	12677
918.272	12852
918.384	12852
918.495	12715
918.606	12570
918.717	12509
918.828	12589
918.939	12559
919.05	12429
919.161	12506
919.272	12342
919.383	12353
919.494	12464
919.604	12707
919.715	12566
919.826	12395
919.936	12426
920.047	12563
920.157	12506
920.267	12677
920.378	12559
920.488	12494
920.598	12669
920.708	12798
920.818	12681
920.928	12677
921.038	12814
921.148	12760
921.258	12525
921.368	12369
921.477	12323
921.587	12216
921.697	12110
921.806	12194
921.916	12194
922.025	12019
922.134	11935
922.244	11893
922.353	11988
922.462	11817
922.571	11668
922.68	11573
922.789	11478
922.898	11573
923.007	11562
923.116	11589
923.224	11668
923.333	11497
923.442	11501
923.55	11448
923.659	11376
923.767	11516
923.876	11398
923.984	11543
924.092	11452
924.201	11372
924.309	11315
924.417	11372
924.525	11387
924.633	11322
924.741	12216
924.849	11181
924.956	11303
925.064	11102
925.172	11079
925.279	11121
925.387	11117
925.494	11128
925.602	11337
925.709	11174
925.816	11124
925.924	11128
926.031	11242
926.138	11067
926.245	11185
926.352	10949
926.459	11193
926.566	11132
926.673	11037
926.779	10942
926.886	10987
926.993	10797
927.099	10786
927.206	10702
927.312	10763
927.419	10790
927.525	10774
927.631	10755
927.737	10687
927.843	10683
927.95	10527
928.056	10592
928.162	10573
928.267	10679
928.373	11235
928.479	10611
928.585	10485
928.69	10588
928.796	10634
928.901	10428
929.007	10325
929.112	10417
929.218	10440
929.323	10413
929.428	10341
929.533	10554
929.638	10291
929.743	10360
929.848	10402
929.953	10394
930.058	10341
930.163	10032
930.267	10090
930.372	10242
930.477	10029
930.581	10284
930.685	10128
930.79	9968
930.894	10013
930.998	10036
931.103	10131
931.207	9778
931.311	9629
931.415	9599
931.519	9454
931.623	9351
