Data from test_V78500241_2845.txt Node
Date: Fri Mar 25 14:53:31 CST 2022
User: usil
Spectrometer: V785-0024
Trigger mode: 0
Integration Time (sec): 4.000000E-1
Scans to average: 1
Nonlinearity correction enabled: false
Boxcar width: 0
Storing dark spectrum: false
XAxis mode: Wavelengths
Number of Pixels in Spectrum: 1024
>>>>>Begin Spectral Data<<<<<
801.071	22059
801.214	21911
801.356	21709
801.499	21549
801.641	21428
801.783	21458
801.926	21488
802.068	21329
802.211	21344
802.353	21249
802.496	21036
802.638	20921
802.78	21001
802.923	20853
803.065	20636
803.208	20807
803.35	20777
803.492	20785
803.635	20880
803.777	20663
803.919	20773
804.061	21100
804.204	20743
804.346	20705
804.488	20644
804.63	20686
804.773	20564
804.915	20788
805.057	20823
805.199	20663
805.341	20629
805.483	20769
805.626	20746
805.768	20549
805.91	20613
806.052	20754
806.194	20484
806.336	20819
806.478	20587
806.62	20598
806.762	20701
806.904	21039
807.046	21119
807.188	21074
807.33	21024
807.472	21070
807.614	20963
807.756	20982
807.898	20864
808.04	20667
808.182	20674
808.324	20842
808.465	20891
808.607	20868
808.749	20971
808.891	21157
809.033	21176
809.174	21009
809.316	21070
809.458	20986
809.6	20937
809.741	21077
809.883	21116
810.025	21188
810.166	21100
810.308	21211
810.45	21161
810.591	21051
810.733	20883
810.875	20834
811.016	20807
811.158	20636
811.299	20906
811.441	20998
811.582	20880
811.724	20796
811.865	20811
812.007	20670
812.148	20773
812.29	20777
812.431	20986
812.573	21001
812.714	21207
812.855	21256
812.997	21443
813.138	21583
813.279	21447
813.421	21317
813.562	21329
813.703	21089
813.845	20910
813.986	20644
814.127	20473
814.268	20336
814.41	20324
814.551	20427
814.692	20267
814.833	20183
814.974	20210
815.115	20347
815.256	20180
815.397	20199
815.539	20248
815.68	20001
815.821	20180
815.962	20149
816.103	20073
816.244	20005
816.385	19715
816.526	19814
816.666	19525
816.807	19502
816.948	19571
817.089	19613
817.23	19548
817.371	19426
817.512	19480
817.653	19381
817.793	19422
817.934	19502
818.075	19525
818.216	19468
818.356	19441
818.497	19240
818.638	19107
818.778	19141
818.919	19099
819.06	19301
819.2	19308
819.341	19434
819.481	19217
819.622	19289
819.762	19704
819.903	19476
820.043	19556
820.184	19460
820.324	19441
820.465	19495
820.605	19499
820.746	19403
820.886	19133
821.026	19430
821.167	19350
821.307	19422
821.447	19384
821.588	19354
821.728	19107
821.868	18962
822.008	18920
822.149	18913
822.289	18886
822.429	18673
822.569	18597
822.709	18513
822.849	18311
822.99	18452
823.13	18300
823.27	18186
823.41	18174
823.55	18087
823.69	18053
823.83	18205
823.97	18057
824.11	17840
824.25	17935
824.389	17927
824.529	18045
824.669	17923
824.809	18041
824.949	18045
825.089	17977
825.228	17923
825.368	17745
825.508	17668
825.648	17589
825.787	17741
825.927	17680
826.067	17695
826.206	17558
826.346	17707
826.485	17771
826.625	17764
826.765	17923
826.904	17680
827.044	17429
827.183	17444
827.323	17326
827.462	17440
827.601	17330
827.741	17417
827.88	17334
828.02	17277
828.159	17379
828.298	17395
828.437	17440
828.577	17356
828.716	17406
828.855	17410
828.994	17109
829.134	17113
829.273	17159
829.412	17094
829.551	16999
829.69	17220
829.829	17151
829.968	17223
830.107	17250
830.246	17208
830.385	17018
830.524	17025
830.663	16934
830.802	16862
830.941	16782
831.08	16698
831.219	16763
831.357	16824
831.496	16984
831.635	16744
831.774	16725
831.913	16512
832.051	16599
832.19	16577
832.329	16599
832.467	16470
832.606	16462
832.744	16390
832.883	16474
833.022	16390
833.16	16542
833.299	16489
833.437	16546
833.576	16489
833.714	16436
833.852	16516
833.991	16588
834.129	16565
834.267	16478
834.406	16523
834.544	16512
834.682	16447
834.821	16474
834.959	16759
835.097	16417
835.235	16675
835.373	16519
835.511	16542
835.65	16386
835.788	16314
835.926	16268
836.064	16154
836.202	16234
836.34	16500
836.478	16561
836.615	16352
836.753	16428
836.891	16470
837.029	16489
837.167	16386
837.305	16329
837.443	16242
837.58	16261
837.718	16447
837.856	16242
837.993	16325
838.131	16242
838.269	16211
838.406	16192
838.544	16109
838.681	16074
838.819	15918
838.956	15819
839.094	15884
839.231	15838
839.369	16029
839.506	16276
839.643	16063
839.781	15838
839.918	15812
840.055	15857
840.193	15816
840.33	15789
840.467	15812
840.604	15797
840.742	15998
840.879	15728
841.016	15717
841.153	15709
841.29	15907
841.427	15861
841.564	15876
841.701	15876
841.838	15747
841.975	15770
842.112	15755
842.249	15648
842.385	15389
842.522	15751
842.659	15690
842.796	15625
842.933	15545
843.069	15526
843.206	15553
843.343	15675
843.479	15671
843.616	15682
843.752	15443
843.889	15351
844.025	15500
844.162	15344
844.298	15485
844.435	15393
844.571	15340
844.708	15443
844.844	15591
844.98	15488
845.117	15568
845.253	15332
845.389	15218
845.525	15332
845.661	15302
845.798	15085
845.934	15252
846.07	15123
846.206	15249
846.342	15340
846.478	15184
846.614	14994
846.75	14982
846.886	14883
847.022	15020
847.158	14994
847.294	15001
847.429	14990
847.565	14998
847.701	15150
847.837	14689
847.972	14720
848.108	14876
848.244	14674
848.379	14583
848.515	14518
848.65	14503
848.786	14613
848.921	14518
849.057	14617
849.192	14659
849.328	14549
849.463	14606
849.598	14442
849.734	14537
849.869	14541
850.004	14404
850.14	14366
850.275	14286
850.41	14282
850.545	14282
850.68	14225
850.815	14393
850.95	14381
851.085	14450
851.22	14484
851.355	14408
851.49	14214
851.625	14320
851.76	14237
851.895	14301
852.03	14218
852.165	14393
852.299	14298
852.434	14370
852.569	14408
852.703	14362
852.838	14465
852.973	14450
853.107	14476
853.242	14263
853.376	14187
853.511	14195
853.645	14153
853.78	14244
853.914	14233
854.048	14153
854.183	14164
854.317	14256
854.451	14415
854.585	14202
854.72	14199
854.854	14309
854.988	14077
855.122	14126
855.256	14115
855.39	14218
855.524	14240
855.658	14214
855.792	14142
855.926	14183
856.06	14313
856.194	14305
856.327	14267
856.461	14218
856.595	14119
856.729	14221
856.862	14202
856.996	14210
857.13	14298
857.263	14381
857.397	14305
857.53	14206
857.664	14305
857.797	14263
857.931	14381
858.064	14267
858.197	14286
858.331	14278
858.464	14172
858.597	14126
858.731	14267
858.864	14164
858.997	14176
859.13	14214
859.263	14123
859.396	14263
859.529	14206
859.662	14218
859.795	14195
859.928	14339
860.061	14377
860.194	14438
860.327	14271
860.46	14187
860.592	14294
860.725	14259
860.858	14396
860.99	14195
861.123	14130
861.256	14084
861.388	14256
861.521	14765
861.653	13986
861.786	14088
861.918	14088
862.05	14107
862.183	14134
862.315	14206
862.447	14142
862.58	14180
862.712	13993
862.844	13849
862.976	14084
863.108	14008
863.24	14431
863.372	13860
863.504	13951
863.636	13970
863.768	13959
863.9	14027
864.032	13913
864.164	13921
864.296	13970
864.428	14073
864.559	14001
864.691	14065
864.823	14081
864.954	14008
865.086	14058
865.217	13894
865.349	13978
865.48	13826
865.612	13970
865.743	14069
865.875	13978
866.006	13921
866.137	13978
866.269	14001
866.4	13978
866.531	13993
866.662	13875
866.793	13871
866.924	13883
867.055	14027
867.186	13974
867.317	13932
867.448	13890
867.579	13940
867.71	13936
867.841	13913
867.972	13940
868.103	13871
868.233	14005
868.364	13974
868.495	14096
868.625	14157
868.756	14191
868.886	14172
869.017	14187
869.147	14343
869.278	14412
869.408	14218
869.539	14206
869.669	14389
869.799	14263
869.929	14366
870.06	14298
870.19	14568
870.32	14454
870.45	14613
870.58	14587
870.71	14632
870.84	14667
870.97	14594
871.1	14632
871.23	14796
871.36	14845
871.489	14689
871.619	14872
871.749	14804
871.879	14849
872.008	14986
872.138	14872
872.267	14765
872.397	14632
872.526	14575
872.656	14644
872.785	14663
872.915	14941
873.044	14918
873.173	14838
873.303	14785
873.432	14887
873.561	14960
873.69	14830
873.819	14906
873.948	15017
874.077	14902
874.206	14838
874.335	14906
874.464	15001
874.593	15207
874.722	15089
874.851	15173
874.979	15275
875.108	15260
875.237	15112
875.365	15039
875.494	15169
875.623	15165
875.751	15161
875.88	15214
876.008	15313
876.136	15408
876.265	15603
876.393	15720
876.521	15736
876.65	15633
876.778	15584
876.906	15488
877.034	15580
877.162	15637
877.29	15576
877.418	15500
877.546	15507
877.674	15530
877.802	15530
877.93	15648
878.058	15622
878.185	15523
878.313	15576
878.441	15515
878.568	15477
878.696	15431
878.824	15450
878.951	15724
879.079	15812
879.206	15960
879.333	15690
879.461	15606
879.588	15759
879.715	15701
879.842	15991
879.97	15610
880.097	15500
880.224	15405
880.351	15435
880.478	15420
880.605	15294
880.732	15477
880.859	15561
880.986	15519
881.112	15473
881.239	15325
881.366	15279
881.493	15150
881.619	15108
881.746	15150
881.872	15100
881.999	14979
882.125	14998
882.252	15142
882.378	15138
882.505	15222
882.631	14982
882.757	14914
882.883	14887
883.01	14880
883.136	14891
883.262	14739
883.388	14720
883.514	14994
883.64	14925
883.766	14853
883.892	14746
884.018	14648
884.143	14876
884.269	14986
884.395	14613
884.52	14617
884.646	14716
884.772	14571
884.897	14568
885.023	14522
885.148	14727
885.274	14811
885.399	14762
885.524	14636
885.65	14625
885.775	14602
885.9	14606
886.025	14819
886.15	14674
886.275	14514
886.4	14499
886.525	14568
886.65	14480
886.775	14545
886.9	14731
887.025	14864
887.149	14552
887.274	14438
887.399	14492
887.523	14454
887.648	14434
887.773	14309
887.897	14499
888.021	14568
888.146	14434
888.27	14507
888.395	14617
888.519	14473
888.643	14480
888.767	14465
888.891	14305
889.015	14290
889.139	14362
889.263	14256
889.387	14381
889.511	14415
889.635	14454
889.759	14301
889.883	14343
890.006	14332
890.13	14450
890.254	14290
890.377	14256
890.501	14168
890.624	14073
890.748	14176
890.871	14111
890.995	13978
891.118	14039
891.241	14096
891.364	14046
891.488	14123
891.611	14046
891.734	14054
891.857	14012
891.98	14016
892.103	14138
892.226	14039
892.349	14058
892.471	13868
892.594	14039
892.717	14084
892.839	14035
892.962	14062
893.085	14062
893.207	13967
893.33	13955
893.452	13967
893.575	14035
893.697	13982
893.819	14088
893.941	14202
894.064	14107
894.186	13951
894.308	14065
894.43	14107
894.552	14164
894.674	14183
894.796	13841
894.918	14084
895.04	13970
895.161	14138
895.283	14134
895.405	14046
895.526	14111
895.648	14138
895.769	14206
895.891	14320
896.012	14199
896.134	14252
896.255	14142
896.376	14233
896.498	14191
896.619	14263
896.74	14130
896.861	14149
896.982	14575
897.103	14659
897.224	14522
897.345	14408
897.466	14408
897.587	14469
897.708	14651
897.828	14526
897.949	14457
898.07	14366
898.19	14377
898.311	14659
898.431	14454
898.552	14541
898.672	14606
898.792	14659
898.913	14526
899.033	14503
899.153	14480
899.273	14400
899.393	14381
899.513	14457
899.633	14419
899.753	14457
899.873	14457
899.993	14415
900.113	14434
900.232	14533
900.352	14328
900.472	14343
900.591	14317
900.711	14301
900.83	14218
900.95	14389
901.069	14412
901.189	14271
901.308	14142
901.427	13967
901.546	13993
901.665	14031
901.784	14058
901.904	13974
902.023	13769
902.141	13651
902.26	13597
902.379	13628
902.498	13639
902.617	13529
902.735	13510
902.854	13559
902.973	13499
903.091	13430
903.21	13221
903.328	13312
903.446	13247
903.565	13099
903.683	13118
903.801	13080
903.919	13118
904.038	13038
904.156	13008
904.274	12981
904.392	12905
904.51	12947
904.627	12993
904.745	12993
904.863	12970
904.981	12719
905.098	12650
905.216	12635
905.334	12673
905.451	12681
905.569	12547
905.686	12635
905.803	12700
905.921	12456
906.038	12490
906.155	12517
906.272	12388
906.389	12353
906.506	12277
906.623	12205
906.74	12232
906.857	12194
906.974	12121
907.091	12285
907.208	12346
907.324	12285
907.441	12201
907.557	12038
907.674	11863
907.79	11920
907.907	11969
908.023	11980
908.139	11939
908.256	11939
908.372	11897
908.488	11859
908.604	11752
908.72	11737
908.836	11771
908.952	11684
909.068	11737
909.184	11927
909.3	11722
909.415	11783
909.531	11771
909.647	11516
909.762	11589
909.878	11440
909.993	11440
910.108	11429
910.224	11478
910.339	11516
910.454	11330
910.57	11406
910.685	11360
910.8	11577
910.915	11452
911.03	11509
911.145	11124
911.259	11151
911.374	11185
911.489	11109
911.604	11105
911.718	10991
911.833	10942
911.947	10816
912.062	10786
912.176	11006
912.291	10965
912.405	10987
912.519	11132
912.633	11094
912.748	11037
912.862	11014
912.976	10755
913.09	10748
913.204	10850
913.318	10801
913.431	10980
913.545	10850
913.659	10972
913.772	10908
913.886	10714
914	10656
914.113	10790
914.226	10889
914.34	10736
914.453	10660
914.566	10759
914.68	10656
914.793	10721
914.906	10485
915.019	10447
915.132	10424
915.245	10462
915.358	10474
915.47	10440
915.583	10504
915.696	10519
915.809	10622
915.921	10573
916.034	10398
916.146	10424
916.259	10432
916.371	10550
916.483	10519
916.595	10394
916.708	10436
916.82	10402
916.932	10341
917.044	10356
917.156	10352
917.268	10268
917.38	10314
917.491	10318
917.603	10375
917.715	10390
917.826	10417
917.938	10284
918.049	10200
918.161	10398
918.272	10440
918.384	10470
918.495	10363
918.606	10219
918.717	10120
918.828	10207
918.939	10299
919.05	10063
919.161	10169
919.272	9911
919.383	9987
919.494	10219
919.604	10371
919.715	10124
919.826	10082
919.936	10188
920.047	10246
920.157	10215
920.267	10398
920.378	10246
920.488	10234
920.598	10348
920.708	10558
920.818	10481
920.928	10379
921.038	10538
921.148	10493
921.258	10223
921.368	10238
921.477	10090
921.587	10044
921.697	9918
921.806	9994
921.916	9983
922.025	9781
922.134	9785
922.244	9797
922.353	9816
922.462	9622
922.571	9576
922.68	9530
922.789	9401
922.898	9439
923.007	9431
923.116	9454
923.224	9435
923.333	9439
923.442	9317
923.55	9218
923.659	9344
923.767	9473
923.876	9336
923.984	9435
924.092	9294
924.201	9344
924.309	9310
924.417	9378
924.525	9245
924.633	9306
924.741	10139
924.849	9116
924.956	9241
925.064	9116
925.172	8994
925.279	9066
925.387	9161
925.494	9123
925.602	9245
925.709	9150
925.816	9146
925.924	9097
926.031	9237
926.138	9055
926.245	9173
926.352	9036
926.459	9154
926.566	9199
926.673	9108
926.779	8960
926.886	8925
926.993	8842
927.099	8880
927.206	8838
927.312	8826
927.419	8830
927.525	8807
927.631	8944
927.737	8777
927.843	8739
927.95	8613
928.056	8708
928.162	8720
928.267	8800
928.373	9321
928.479	8842
928.585	8545
928.69	8724
928.796	8796
928.901	8640
929.007	8461
929.112	8629
929.218	8625
929.323	8522
929.428	8488
929.533	8648
929.638	8473
929.743	8545
929.848	8568
929.953	8495
930.058	8473
930.163	8305
930.267	8320
930.372	8465
930.477	8259
930.581	8511
930.685	8377
930.79	8244
930.894	8244
930.998	8240
931.103	8393
931.207	8005
931.311	7959
931.415	7944
931.519	7795
931.623	7780
