Data from test_V78500241_2232.txt Node
Date: Fri Mar 25 14:49:15 CST 2022
User: usil
Spectrometer: V785-0024
Trigger mode: 0
Integration Time (sec): 4.000000E-1
Scans to average: 1
Nonlinearity correction enabled: false
Boxcar width: 0
Storing dark spectrum: false
XAxis mode: Wavelengths
Number of Pixels in Spectrum: 1024
>>>>>Begin Spectral Data<<<<<
801.071	22238
801.214	22029
801.356	21766
801.499	21709
801.641	21622
801.783	21530
801.926	21481
802.068	21424
802.211	21568
802.353	21363
802.496	21116
802.638	21100
802.78	21093
802.923	20971
803.065	20937
803.208	20739
803.35	20872
803.492	20975
803.635	21093
803.777	20876
803.919	20963
804.061	21291
804.204	20967
804.346	20838
804.488	20807
804.63	20914
804.773	20845
804.915	20815
805.057	20872
805.199	20781
805.341	20887
805.483	20788
805.626	20845
805.768	20792
805.91	20849
806.052	20819
806.194	20708
806.336	20986
806.478	20773
806.62	20883
806.762	20899
806.904	20979
807.046	21241
807.188	21173
807.33	21085
807.472	21176
807.614	21036
807.756	21100
807.898	21001
808.04	20796
808.182	20933
808.324	20937
808.465	20864
808.607	21070
808.749	21146
808.891	21192
809.033	21306
809.174	21344
809.316	21169
809.458	21161
809.6	21169
809.741	21291
809.883	21302
810.025	21344
810.166	21252
810.308	21367
810.45	21336
810.591	21310
810.733	21043
810.875	20963
811.016	20777
811.158	20746
811.299	21017
811.441	21173
811.582	21039
811.724	20994
811.865	20956
812.007	20895
812.148	20963
812.29	21047
812.431	21062
812.573	21283
812.714	21382
812.855	21420
812.997	21603
813.138	21637
813.279	21587
813.421	21534
813.562	21313
813.703	21188
813.845	21138
813.986	20883
814.127	20697
814.268	20606
814.41	20537
814.551	20590
814.692	20526
814.833	20495
814.974	20522
815.115	20492
815.256	20438
815.397	20415
815.539	20446
815.68	20278
815.821	20183
815.962	20332
816.103	20081
816.244	20077
816.385	20050
816.526	19993
816.666	19811
816.807	19643
816.948	19715
817.089	19795
817.23	19845
817.371	19674
817.512	19715
817.653	19632
817.793	19567
817.934	19677
818.075	19559
818.216	19635
818.356	19624
818.497	19400
818.638	19274
818.778	19335
818.919	19274
819.06	19339
819.2	19362
819.341	19624
819.481	19476
819.622	19586
819.762	19856
819.903	19772
820.043	19681
820.184	19662
820.324	19521
820.465	19647
820.605	19712
820.746	19609
820.886	19358
821.026	19582
821.167	19624
821.307	19567
821.447	19521
821.588	19472
821.728	19263
821.868	19236
822.008	19126
822.149	19000
822.289	19019
822.429	18696
822.569	18593
822.709	18673
822.849	18479
822.99	18407
823.13	18498
823.27	18403
823.41	18239
823.55	18361
823.69	18311
823.83	18395
823.97	18270
824.11	18117
824.25	18091
824.389	18106
824.529	18209
824.669	18083
824.809	18194
824.949	18102
825.089	18159
825.228	18060
825.368	17939
825.508	17889
825.648	17866
825.787	17874
825.927	18003
826.067	17897
826.206	17767
826.346	17726
826.485	17741
826.625	17722
826.765	17935
826.904	17927
827.044	17707
827.183	17596
827.323	17596
827.462	17547
827.601	17554
827.741	17554
827.88	17459
828.02	17497
828.159	17501
828.298	17551
828.437	17672
828.577	17467
828.716	17600
828.855	17471
828.994	17254
829.134	17334
829.273	17193
829.412	17242
829.551	17185
829.69	17235
829.829	17227
829.968	17376
830.107	17391
830.246	17364
830.385	17174
830.524	17174
830.663	17071
830.802	16965
830.941	16850
831.08	16892
831.219	16995
831.357	16839
831.496	17075
831.635	16896
831.774	16797
831.913	16774
832.051	16538
832.19	16679
832.329	16615
832.467	16584
832.606	16485
832.744	16504
832.883	16558
833.022	16645
833.16	16565
833.299	16660
833.437	16706
833.576	16603
833.714	16626
833.852	16611
833.991	16596
834.129	16706
834.267	16679
834.406	16596
834.544	16660
834.682	16759
834.821	16588
834.959	16820
835.097	16565
835.235	16717
835.373	16653
835.511	16717
835.65	16474
835.788	16535
835.926	16341
836.064	16413
836.202	16318
836.34	16508
836.478	16596
836.615	16512
836.753	16615
836.891	16611
837.029	16615
837.167	16519
837.305	16504
837.443	16489
837.58	16341
837.718	16489
837.856	16341
837.993	16318
838.131	16363
838.269	16303
838.406	16402
838.544	16284
838.681	16078
838.819	16010
838.956	15922
839.094	15953
839.231	16051
839.369	16059
839.506	16314
839.643	16131
839.781	15960
839.918	15835
840.055	15964
840.193	15945
840.33	15998
840.467	15880
840.604	15888
840.742	16219
840.879	15720
841.016	15895
841.153	15861
841.29	16093
841.427	15972
841.564	16032
841.701	15892
841.838	15895
841.975	15953
842.112	15911
842.249	15869
842.385	15656
842.522	15835
842.659	15781
842.796	15667
842.933	15743
843.069	15739
843.206	15629
843.343	15728
843.479	15675
843.616	15789
843.752	15542
843.889	15538
844.025	15747
844.162	15557
844.298	15622
844.435	15591
844.571	15462
844.708	15580
844.844	15603
844.98	15713
845.117	15625
845.253	15553
845.389	15363
845.525	15511
845.661	15420
845.798	15264
845.934	15420
846.07	15321
846.206	15302
846.342	15450
846.478	15374
846.614	15100
846.75	15116
846.886	15085
847.022	15100
847.158	15017
847.294	15085
847.429	15089
847.565	15085
847.701	15252
847.837	14872
847.972	14705
848.108	14861
848.244	14792
848.379	14678
848.515	14697
848.65	14727
848.786	14701
848.921	14632
849.057	14758
849.192	14689
849.328	14640
849.463	14552
849.598	14575
849.734	14613
849.869	14507
850.004	14450
850.14	14556
850.275	14503
850.41	14412
850.545	14328
850.68	14492
850.815	14404
850.95	14351
851.085	14629
851.22	14419
851.355	14389
851.49	14366
851.625	14351
851.76	14423
851.895	14377
852.03	14351
852.165	14396
852.299	14457
852.434	14507
852.569	14518
852.703	14480
852.838	14484
852.973	14537
853.107	14526
853.242	14362
853.376	14313
853.511	14172
853.645	14286
853.78	14355
853.914	14210
854.048	14172
854.183	14248
854.317	14309
854.451	14423
854.585	14351
854.72	14263
854.854	14351
854.988	14313
855.122	14259
855.256	14145
855.39	14358
855.524	14385
855.658	14336
855.792	14328
855.926	14332
856.06	14355
856.194	14393
856.327	14210
856.461	14195
856.595	14202
856.729	14313
856.862	14423
856.996	14366
857.13	14370
857.263	14377
857.397	14446
857.53	14244
857.664	14423
857.797	14366
857.931	14393
858.064	14328
858.197	14351
858.331	14324
858.464	14271
858.597	14149
858.731	14229
858.864	14214
858.997	14248
859.13	14298
859.263	14309
859.396	14400
859.529	14339
859.662	14305
859.795	14199
859.928	14332
860.061	14423
860.194	14457
860.327	14328
860.46	14259
860.592	14393
860.725	14362
860.858	14400
860.99	14271
861.123	14168
861.256	14244
861.388	14278
861.521	14845
861.653	14153
861.786	14191
861.918	14172
862.05	14126
862.183	14206
862.315	14282
862.447	14233
862.58	14168
862.712	14027
862.844	13989
862.976	14168
863.108	14043
863.24	14495
863.372	14046
863.504	14020
863.636	14069
863.768	14088
863.9	14130
864.032	13978
864.164	13940
864.296	14103
864.428	14202
864.559	14088
864.691	14172
864.823	14096
864.954	14088
865.086	14176
865.217	14065
865.349	13921
865.48	13993
865.612	14046
865.743	14149
865.875	14024
866.006	13917
866.137	14020
866.269	14062
866.4	14031
866.531	13997
866.662	13925
866.793	14020
866.924	13967
867.055	14107
867.186	14069
867.317	14005
867.448	13986
867.579	14035
867.71	13932
867.841	13928
867.972	14123
868.103	14084
868.233	14084
868.364	13963
868.495	14058
868.625	14199
868.756	14267
868.886	14221
869.017	14240
869.147	14480
869.278	14377
869.408	14313
869.539	14233
869.669	14423
869.799	14393
869.929	14400
870.06	14442
870.19	14571
870.32	14560
870.45	14659
870.58	14701
870.71	14823
870.84	14872
870.97	14670
871.1	14712
871.23	14777
871.36	14895
871.489	14868
871.619	14792
871.749	14876
871.879	14933
872.008	15028
872.138	14819
872.267	14899
872.397	14743
872.526	14720
872.656	14716
872.785	14769
872.915	14861
873.044	15093
873.173	15032
873.303	14963
873.432	14986
873.561	14956
873.69	14982
873.819	14929
873.948	15013
874.077	15062
874.206	15024
874.335	14960
874.464	15070
874.593	15211
874.722	15218
874.851	15264
874.979	15268
875.108	15211
875.237	15161
875.365	15169
875.494	15233
875.623	15367
875.751	15241
875.88	15355
876.008	15393
876.136	15538
876.265	15675
876.393	15861
876.521	15816
876.65	15846
876.778	15686
876.906	15625
877.034	15591
877.162	15599
877.29	15561
877.418	15667
877.546	15724
877.674	15660
877.802	15648
877.93	15713
878.058	15625
878.185	15530
878.313	15686
878.441	15671
878.568	15485
878.696	15538
878.824	15660
878.951	15823
879.079	15861
879.206	15930
879.333	15869
879.461	15682
879.588	15808
879.715	15899
879.842	15953
879.97	15793
880.097	15466
880.224	15431
880.351	15561
880.478	15511
880.605	15481
880.732	15447
880.859	15770
880.986	15500
881.112	15622
881.239	15477
881.366	15287
881.493	15165
881.619	15104
881.746	15226
881.872	15203
881.999	15127
882.125	15207
882.252	15310
882.378	15192
882.505	15348
882.631	15119
882.757	14963
882.883	15081
883.01	15058
883.136	14967
883.262	14857
883.388	14830
883.514	14994
883.64	15119
883.766	14986
883.892	14834
884.018	14838
884.143	15001
884.269	15100
884.395	14773
884.52	14674
884.646	14697
884.772	14621
884.897	14663
885.023	14746
885.148	14845
885.274	14815
885.399	14758
885.524	14667
885.65	14686
885.775	14773
885.9	14689
886.025	14838
886.15	14845
886.275	14651
886.4	14564
886.525	14712
886.65	14754
886.775	14670
886.9	14819
887.025	14921
887.149	14682
887.274	14526
887.399	14412
887.523	14511
887.648	14427
887.773	14385
887.897	14606
888.021	14636
888.146	14598
888.27	14655
888.395	14617
888.519	14590
888.643	14552
888.767	14667
888.891	14419
889.015	14389
889.139	14404
889.263	14385
889.387	14473
889.511	14530
889.635	14507
889.759	14427
889.883	14442
890.006	14495
890.13	14442
890.254	14278
890.377	14336
890.501	14240
890.624	14187
890.748	14298
890.871	14161
890.995	14073
891.118	13967
891.241	14027
891.364	14134
891.488	14161
891.611	14111
891.734	14062
891.857	14191
891.98	14100
892.103	14225
892.226	14134
892.349	14062
892.471	13993
892.594	14020
892.717	14123
892.839	14050
892.962	14058
893.085	14210
893.207	14195
893.33	13951
893.452	14073
893.575	14138
893.697	14081
893.819	14275
893.941	14298
894.064	14263
894.186	14134
894.308	14096
894.43	14138
894.552	14423
894.674	14225
894.796	14024
894.918	14157
895.04	14096
895.161	14225
895.283	14237
895.405	14176
895.526	14294
895.648	14221
895.769	14187
895.891	14225
896.012	14240
896.134	14366
896.255	14263
896.376	14252
896.498	14328
896.619	14298
896.74	14233
896.861	14275
896.982	14602
897.103	14792
897.224	14594
897.345	14511
897.466	14484
897.587	14499
897.708	14667
897.828	14594
897.949	14533
898.07	14400
898.19	14507
898.311	14758
898.431	14537
898.552	14632
898.672	14629
898.792	14663
898.913	14663
899.033	14606
899.153	14503
899.273	14575
899.393	14438
899.513	14568
899.633	14415
899.753	14541
899.873	14446
899.993	14533
900.113	14507
900.232	14530
900.352	14473
900.472	14358
900.591	14298
900.711	14355
900.83	14259
900.95	14419
901.069	14507
901.189	14282
901.308	14020
901.427	13947
901.546	14031
901.665	14123
901.784	14073
901.904	13830
902.023	13837
902.141	13643
902.26	13601
902.379	13643
902.498	13609
902.617	13510
902.735	13639
902.854	13571
902.973	13525
903.091	13324
903.21	13266
903.328	13388
903.446	13221
903.565	13232
903.683	13160
903.801	13114
903.919	13053
904.038	13103
904.156	12985
904.274	13019
904.392	12886
904.51	12894
904.627	12981
904.745	13023
904.863	13000
904.981	12802
905.098	12620
905.216	12589
905.334	12669
905.451	12646
905.569	12604
905.686	12703
905.803	12612
905.921	12479
906.038	12620
906.155	12483
906.272	12388
906.389	12471
906.506	12254
906.623	12285
906.74	12213
906.857	12133
906.974	12186
907.091	12395
907.208	12399
907.324	12308
907.441	12220
907.557	11939
907.674	11988
907.79	11946
907.907	11954
908.023	12076
908.139	12060
908.256	11999
908.372	11954
908.488	11840
908.604	11741
908.72	11790
908.836	11893
908.952	11764
909.068	11745
909.184	11859
909.3	11764
909.415	11817
909.531	11760
909.647	11554
909.762	11501
909.878	11528
909.993	11630
910.108	11554
910.224	11524
910.339	11589
910.454	11478
910.57	11349
910.685	11292
910.8	11535
910.915	11558
911.03	11402
911.145	11258
911.259	11250
911.374	11284
911.489	11174
911.604	11117
911.718	10927
911.833	10961
911.947	10949
912.062	10858
912.176	10957
912.291	10957
912.405	10957
912.519	11166
912.633	11159
912.748	11037
912.862	10961
912.976	10824
913.09	10702
913.204	10740
913.318	10885
913.431	10892
913.545	10949
913.659	10968
913.772	10911
913.886	10782
914	10774
914.113	10900
914.226	10854
914.34	10854
914.453	10687
914.566	10816
914.68	10706
914.793	10645
914.906	10592
915.019	10409
915.132	10344
915.245	10535
915.358	10558
915.47	10508
915.583	10573
915.696	10542
915.809	10630
915.921	10611
916.034	10478
916.146	10417
916.259	10440
916.371	10611
916.483	10481
916.595	10390
916.708	10447
916.82	10440
916.932	10436
917.044	10352
917.156	10424
917.268	10379
917.38	10363
917.491	10268
917.603	10310
917.715	10413
917.826	10470
917.938	10394
918.049	10246
918.161	10246
918.272	10478
918.384	10405
918.495	10428
918.606	10246
918.717	10105
918.828	10185
918.939	10147
919.05	10166
919.161	10105
919.272	10036
919.383	10082
919.494	10242
919.604	10474
919.715	10200
919.826	10112
919.936	10101
920.047	10333
920.157	10196
920.267	10417
920.378	10287
920.488	10272
920.598	10360
920.708	10618
920.818	10470
920.928	10474
921.038	10607
921.148	10470
921.258	10272
921.368	10200
921.477	10112
921.587	10059
921.697	9975
921.806	10086
921.916	9968
922.025	9797
922.134	9812
922.244	9656
922.353	9812
922.462	9660
922.571	9614
922.68	9435
922.789	9557
922.898	9428
923.007	9268
923.116	9538
923.224	9500
923.333	9466
923.442	9405
923.55	9317
923.659	9367
923.767	9450
923.876	9264
923.984	9424
924.092	9256
924.201	9294
924.309	9420
924.417	9416
924.525	9214
924.633	9329
924.741	10227
924.849	9093
924.956	9321
925.064	9127
925.172	8982
925.279	9058
925.387	9093
925.494	9135
925.602	9222
925.709	9218
925.816	9104
925.924	9070
926.031	9176
926.138	9180
926.245	9230
926.352	9017
926.459	9180
926.566	9207
926.673	9108
926.779	9005
926.886	9013
926.993	8842
927.099	8868
927.206	8762
927.312	8804
927.419	8868
927.525	8906
927.631	8899
927.737	8727
927.843	8697
927.95	8651
928.056	8769
928.162	8792
928.267	8880
928.373	9313
928.479	8895
928.585	8598
928.69	8724
928.796	8796
928.901	8655
929.007	8549
929.112	8644
929.218	8621
929.323	8568
929.428	8613
929.533	8712
929.638	8495
929.743	8511
929.848	8587
929.953	8552
930.058	8351
930.163	8355
930.267	8370
930.372	8454
930.477	8339
930.581	8533
930.685	8370
930.79	8263
930.894	8214
930.998	8225
931.103	8412
931.207	8149
931.311	8035
931.415	8024
931.519	7814
931.623	7734
