Data from test_V78500241_3667.txt Node
Date: Fri Mar 25 14:59:15 CST 2022
User: usil
Spectrometer: V785-0024
Trigger mode: 0
Integration Time (sec): 4.000000E-1
Scans to average: 1
Nonlinearity correction enabled: false
Boxcar width: 0
Storing dark spectrum: false
XAxis mode: Wavelengths
Number of Pixels in Spectrum: 1024
>>>>>Begin Spectral Data<<<<<
801.071	21960
801.214	21797
801.356	21549
801.499	21466
801.641	21260
801.783	21306
801.926	21382
802.068	21184
802.211	21169
802.353	21150
802.496	20883
802.638	20785
802.78	20788
802.923	20731
803.065	20556
803.208	20613
803.35	20571
803.492	20583
803.635	20785
803.777	20663
803.919	20686
804.061	20956
804.204	20602
804.346	20606
804.488	20476
804.63	20568
804.773	20480
804.915	20476
805.057	20549
805.199	20533
805.341	20659
805.483	20568
805.626	20655
805.768	20408
805.91	20602
806.052	20408
806.194	20461
806.336	20518
806.478	20465
806.62	20450
806.762	20568
806.904	20655
807.046	20891
807.188	20849
807.33	20834
807.472	20929
807.614	20682
807.756	20914
807.898	20785
808.04	20495
808.182	20495
808.324	20568
808.465	20564
808.607	20925
808.749	20823
808.891	20902
809.033	21009
809.174	20872
809.316	20864
809.458	20849
809.6	20819
809.741	20967
809.883	20914
810.025	21001
810.166	21055
810.308	21032
810.45	20857
810.591	20762
810.733	20708
810.875	20583
811.016	20552
811.158	20434
811.299	20678
811.441	20708
811.582	20640
811.724	20621
811.865	20587
812.007	20545
812.148	20644
812.29	20617
812.431	20849
812.573	20986
812.714	20986
812.855	21123
812.997	21203
813.138	21313
813.279	21302
813.421	21173
813.562	21108
813.703	21017
813.845	20701
813.986	20473
814.127	20298
814.268	20259
814.41	20301
814.551	20122
814.692	20271
814.833	20157
814.974	20168
815.115	20119
815.256	20031
815.397	19974
815.539	20035
815.68	19902
815.821	19830
815.962	19879
816.103	19803
816.244	19772
816.385	19624
816.526	19506
816.666	19426
816.807	19259
816.948	19339
817.089	19407
817.23	19331
817.371	19282
817.512	19137
817.653	19266
817.793	19209
817.934	19217
818.075	19232
818.216	19343
818.356	19187
818.497	19160
818.638	18962
818.778	18932
818.919	19084
819.06	19042
819.2	19129
819.341	19202
819.481	19156
819.622	19343
819.762	19518
819.903	19506
820.043	19464
820.184	19403
820.324	19270
820.465	19282
820.605	19289
820.746	19175
820.886	19053
821.026	19266
821.167	19244
821.307	19293
821.447	19217
821.588	19160
821.728	19038
821.868	18798
822.008	18795
822.149	18696
822.289	18658
822.429	18467
822.569	18403
822.709	18357
822.849	18281
822.99	18152
823.13	18239
823.27	18098
823.41	18079
823.55	17912
823.69	18038
823.83	17965
823.97	17923
824.11	17775
824.25	17710
824.389	17786
824.529	17893
824.669	17775
824.809	17729
824.949	17851
825.089	17790
825.228	17840
825.368	17463
825.508	17554
825.648	17611
825.787	17615
825.927	17528
826.067	17505
826.206	17467
826.346	17566
826.485	17532
826.625	17589
826.765	17623
826.904	17505
827.044	17284
827.183	17292
827.323	17170
827.462	17246
827.601	17220
827.741	17277
827.88	17299
828.02	17166
828.159	17079
828.298	17296
828.437	17258
828.577	17170
828.716	17345
828.855	17227
828.994	16904
829.134	16892
829.273	17037
829.412	17003
829.551	16957
829.69	16999
829.829	17094
829.968	17231
830.107	17025
830.246	16991
830.385	16934
830.524	16938
830.663	16839
830.802	16782
830.941	16546
831.08	16573
831.219	16710
831.357	16630
831.496	16771
831.635	16679
831.774	16573
831.913	16626
832.051	16352
832.19	16390
832.329	16382
832.467	16272
832.606	16249
832.744	16219
832.883	16295
833.022	16246
833.16	16325
833.299	16375
833.437	16348
833.576	16344
833.714	16265
833.852	16386
833.991	16344
834.129	16466
834.267	16409
834.406	16348
834.544	16485
834.682	16367
834.821	16329
834.959	16531
835.097	16333
835.235	16512
835.373	16409
835.511	16265
835.65	16367
835.788	16219
835.926	16158
836.064	16090
836.202	16101
836.34	16356
836.478	16371
836.615	16242
836.753	16344
836.891	16344
837.029	16348
837.167	16322
837.305	16295
837.443	16303
837.58	16226
837.718	16276
837.856	16185
837.993	16044
838.131	16219
838.269	16143
838.406	16086
838.544	16032
838.681	16006
838.819	15819
838.956	15755
839.094	15705
839.231	15793
839.369	15857
839.506	16139
839.643	15975
839.781	15709
839.918	15732
840.055	15739
840.193	15663
840.33	15603
840.467	15778
840.604	15720
840.742	16059
840.879	15610
841.016	15542
841.153	15629
841.29	15781
841.427	15789
841.564	15778
841.701	15747
841.838	15667
841.975	15679
842.112	15534
842.249	15534
842.385	15431
842.522	15755
842.659	15561
842.796	15473
842.933	15504
843.069	15462
843.206	15485
843.343	15603
843.479	15530
843.616	15584
843.752	15386
843.889	15302
844.025	15428
844.162	15256
844.298	15492
844.435	15214
844.571	15245
844.708	15302
844.844	15439
844.98	15507
845.117	15428
845.253	15268
845.389	15135
845.525	15256
845.661	15214
845.798	15154
845.934	15184
846.07	14971
846.206	15245
846.342	15260
846.478	15039
846.614	14906
846.75	14868
846.886	14785
847.022	14979
847.158	14948
847.294	14952
847.429	14990
847.565	14777
847.701	15051
847.837	14575
847.972	14556
848.108	14689
848.244	14682
848.379	14415
848.515	14484
848.65	14446
848.786	14415
848.921	14473
849.057	14568
849.192	14606
849.328	14533
849.463	14457
849.598	14355
849.734	14400
849.869	14275
850.004	14157
850.14	14309
850.275	14339
850.41	14240
850.545	14103
850.68	14214
850.815	14263
850.95	14225
851.085	14366
851.22	14328
851.355	14259
851.49	14161
851.625	14214
851.76	14115
851.895	14054
852.03	14149
852.165	14195
852.299	14187
852.434	14275
852.569	14294
852.703	14259
852.838	14256
852.973	14343
853.107	14263
853.242	14176
853.376	14149
853.511	13868
853.645	14084
853.78	14229
853.914	14180
854.048	14134
854.183	14153
854.317	14153
854.451	14191
854.585	14138
854.72	14031
854.854	14111
854.988	13906
855.122	14062
855.256	13906
855.39	14103
855.524	14123
855.658	14153
855.792	14161
855.926	14161
856.06	14149
856.194	14191
856.327	14103
856.461	14134
856.595	14054
856.729	14088
856.862	14195
856.996	14130
857.13	14153
857.263	14225
857.397	14290
857.53	14187
857.664	14206
857.797	14092
857.931	14214
858.064	14096
858.197	14172
858.331	14214
858.464	14115
858.597	13959
858.731	14157
858.864	14218
858.997	14191
859.13	14096
859.263	14161
859.396	14233
859.529	14084
859.662	14062
859.795	13967
859.928	14020
860.061	14240
860.194	14240
860.327	14199
860.46	14183
860.592	14271
860.725	14263
860.858	14119
860.99	14111
861.123	14046
861.256	13997
861.388	14111
861.521	14872
861.653	14031
861.786	13974
861.918	13967
862.05	14016
862.183	14054
862.315	14005
862.447	14191
862.58	14005
862.712	13883
862.844	13856
862.976	13928
863.108	13887
863.24	14263
863.372	13894
863.504	13814
863.636	13898
863.768	13906
863.9	13868
864.032	13772
864.164	13833
864.296	13978
864.428	14008
864.559	13944
864.691	14081
864.823	13955
864.954	13909
865.086	13894
865.217	13921
865.349	13871
865.48	13860
865.612	13860
865.743	13967
865.875	13837
866.006	13913
866.137	13887
866.269	13909
866.4	13841
866.531	13803
866.662	13731
866.793	13772
866.924	13837
867.055	13864
867.186	13944
867.317	13795
867.448	13795
867.579	13871
867.71	13852
867.841	13685
867.972	13944
868.103	13830
868.233	13890
868.364	13837
868.495	14016
868.625	13986
868.756	14202
868.886	14005
869.017	14103
869.147	14275
869.278	14252
869.408	14123
869.539	14123
869.669	14263
869.799	14126
869.929	14313
870.06	14172
870.19	14507
870.32	14476
870.45	14419
870.58	14438
870.71	14636
870.84	14590
870.97	14522
871.1	14530
871.23	14735
871.36	14678
871.489	14667
871.619	14682
871.749	14651
871.879	14765
872.008	14853
872.138	14842
872.267	14746
872.397	14610
872.526	14610
872.656	14629
872.785	14507
872.915	14724
873.044	14785
873.173	14819
873.303	14739
873.432	14739
873.561	14815
873.69	14811
873.819	14826
873.948	14864
874.077	14815
874.206	14804
874.335	14796
874.464	14929
874.593	15074
874.722	15017
874.851	15074
874.979	15127
875.108	15131
875.237	15169
875.365	15097
875.494	14998
875.623	15127
875.751	15055
875.88	15188
876.008	15203
876.136	15321
876.265	15542
876.393	15701
876.521	15663
876.65	15595
876.778	15576
876.906	15485
877.034	15447
877.162	15507
877.29	15458
877.418	15568
877.546	15530
877.674	15568
877.802	15526
877.93	15397
878.058	15515
878.185	15504
878.313	15450
878.441	15500
878.568	15332
878.696	15511
878.824	15557
878.951	15481
879.079	15671
879.206	15831
879.333	15724
879.461	15633
879.588	15694
879.715	15679
879.842	15827
879.97	15705
880.097	15367
880.224	15348
880.351	15443
880.478	15397
880.605	15332
880.732	15359
880.859	15606
880.986	15382
881.112	15511
881.239	15256
881.366	15074
881.493	15036
881.619	15028
881.746	15074
881.872	15005
881.999	14975
882.125	15036
882.252	15150
882.378	15085
882.505	15135
882.631	14941
882.757	14861
882.883	14910
883.01	14743
883.136	14853
883.262	14667
883.388	14811
883.514	14807
883.64	14948
883.766	14758
883.892	14606
884.018	14670
884.143	14807
884.269	14899
884.395	14507
884.52	14552
884.646	14606
884.772	14473
884.897	14434
885.023	14575
885.148	14621
885.274	14758
885.399	14735
885.524	14518
885.65	14621
885.775	14579
885.9	14537
886.025	14663
886.15	14564
886.275	14606
886.4	14434
886.525	14507
886.65	14514
886.775	14507
886.9	14610
887.025	14739
887.149	14518
887.274	14480
887.399	14366
887.523	14389
887.648	14298
887.773	14218
887.897	14400
888.021	14495
888.146	14298
888.27	14457
888.395	14533
888.519	14427
888.643	14438
888.767	14499
888.891	14351
889.015	14202
889.139	14332
889.263	14161
889.387	14278
889.511	14404
889.635	14408
889.759	14244
889.883	14214
890.006	14381
890.13	14309
890.254	14199
890.377	14294
890.501	14126
890.624	14058
890.748	14100
890.871	14046
890.995	13944
891.118	13894
891.241	14020
891.364	13978
891.488	14149
891.611	13936
891.734	13997
891.857	13951
891.98	14016
892.103	14157
892.226	14031
892.349	13906
892.471	13841
892.594	13898
892.717	13951
892.839	14001
892.962	13974
893.085	13993
893.207	14008
893.33	13871
893.452	13852
893.575	14115
893.697	13871
893.819	14229
893.941	14149
894.064	14096
894.186	13959
894.308	13951
894.43	14077
894.552	14111
894.674	14176
894.796	13959
894.918	13947
895.04	13986
895.161	14123
895.283	14081
895.405	14043
895.526	14077
895.648	14043
895.769	14161
895.891	14142
896.012	14123
896.134	14054
896.255	14119
896.376	14062
896.498	14145
896.619	14138
896.74	14111
896.861	14172
896.982	14473
897.103	14625
897.224	14431
897.345	14347
897.466	14313
897.587	14355
897.708	14507
897.828	14400
897.949	14385
898.07	14332
898.19	14434
898.311	14545
898.431	14461
898.552	14438
898.672	14507
898.792	14613
898.913	14488
899.033	14396
899.153	14332
899.273	14199
899.393	14286
899.513	14355
899.633	14377
899.753	14385
899.873	14381
899.993	14374
900.113	14355
900.232	14358
900.352	14298
900.472	14237
900.591	14134
900.711	14164
900.83	14062
900.95	14374
901.069	14317
901.189	14183
901.308	13940
901.427	13890
901.546	13860
901.665	13898
901.784	13902
901.904	13860
902.023	13639
902.141	13632
902.26	13377
902.379	13502
902.498	13441
902.617	13449
902.735	13468
902.854	13464
902.973	13308
903.091	13076
903.21	13236
903.328	13228
903.446	13194
903.565	13000
903.683	12989
903.801	12875
903.919	13019
904.038	12954
904.156	12802
904.274	12882
904.392	12776
904.51	12886
904.627	12753
904.745	12875
904.863	12890
904.981	12547
905.098	12456
905.216	12452
905.334	12608
905.451	12566
905.569	12544
905.686	12608
905.803	12464
905.921	12399
906.038	12540
906.155	12486
906.272	12220
906.389	12281
906.506	12186
906.623	12213
906.74	12159
906.857	12007
906.974	12038
907.091	12133
907.208	12262
907.324	12129
907.441	12114
907.557	11855
907.674	11828
907.79	11851
907.907	11859
908.023	11874
908.139	11824
908.256	11882
908.372	11885
908.488	11821
908.604	11684
908.72	11630
908.836	11653
908.952	11505
909.068	11752
909.184	11726
909.3	11707
909.415	11783
909.531	11657
909.647	11406
909.762	11512
909.878	11387
909.993	11398
910.108	11417
910.224	11414
910.339	11459
910.454	11330
910.57	11277
910.685	11166
910.8	11505
910.915	11490
911.03	11273
911.145	11151
911.259	11102
911.374	11094
911.489	11033
911.604	11006
911.718	10858
911.833	10843
911.947	10672
912.062	10755
912.176	10805
912.291	10896
912.405	10904
912.519	11006
912.633	11128
912.748	10946
912.862	10915
912.976	10755
913.09	10733
913.204	10740
913.318	10771
913.431	10763
913.545	10824
913.659	10946
913.772	10717
913.886	10691
914	10599
914.113	10744
914.226	10771
914.34	10683
914.453	10508
914.566	10618
914.68	10611
914.793	10615
914.906	10421
915.019	10375
915.132	10337
915.245	10291
915.358	10440
915.47	10421
915.583	10459
915.696	10405
915.809	10542
915.921	10485
916.034	10405
916.146	10299
916.259	10318
916.371	10390
916.483	10466
916.595	10284
916.708	10390
916.82	10413
916.932	10367
917.044	10287
917.156	10238
917.268	10242
917.38	10215
917.491	10181
917.603	10234
917.715	10329
917.826	10280
917.938	10261
918.049	10124
918.161	10253
918.272	10405
918.384	10333
918.495	10234
918.606	10166
918.717	10048
918.828	10082
918.939	10112
919.05	10063
919.161	10150
919.272	9930
919.383	10017
919.494	10074
919.604	10257
919.715	10139
919.826	10036
919.936	10040
920.047	10173
920.157	10120
920.267	10238
920.378	10192
920.488	10097
920.598	10337
920.708	10443
920.818	10310
920.928	10352
921.038	10474
921.148	10413
921.258	10246
921.368	10051
921.477	10071
921.587	9941
921.697	9895
921.806	10002
921.916	9922
922.025	9671
922.134	9675
922.244	9591
922.353	9736
922.462	9576
922.571	9496
922.68	9367
922.789	9344
922.898	9370
923.007	9401
923.116	9443
923.224	9435
923.333	9355
923.442	9222
923.55	9207
923.659	9279
923.767	9367
923.876	9176
923.984	9317
924.092	9169
924.201	9253
924.309	9233
924.417	9256
924.525	9253
924.633	9207
924.741	9930
924.849	8971
924.956	9195
925.064	8971
925.172	8998
925.279	8963
925.387	9013
925.494	8994
925.602	9154
925.709	9119
925.816	9009
925.924	9043
926.031	9176
926.138	9043
926.245	9062
926.352	8979
926.459	9104
926.566	9112
926.673	9051
926.779	8845
926.886	8895
926.993	8758
927.099	8632
927.206	8823
927.312	8705
927.419	8796
927.525	8716
927.631	8883
927.737	8613
927.843	8686
927.95	8575
928.056	8655
928.162	8621
928.267	8712
928.373	9230
928.479	8701
928.585	8503
928.69	8648
928.796	8644
928.901	8629
929.007	8431
929.112	8564
929.218	8545
929.323	8507
929.428	8431
929.533	8579
929.638	8400
929.743	8465
929.848	8461
929.953	8507
930.058	8320
930.163	8161
930.267	8271
930.372	8336
930.477	8229
930.581	8454
930.685	8351
930.79	8142
930.894	8221
930.998	8149
931.103	8328
931.207	8043
931.311	7955
931.415	7849
931.519	7658
931.623	7689
