Data from test_V78500241_2060.txt Node
Date: Fri Mar 25 14:48:03 CST 2022
User: usil
Spectrometer: V785-0024
Trigger mode: 0
Integration Time (sec): 4.000000E-1
Scans to average: 1
Nonlinearity correction enabled: false
Boxcar width: 0
Storing dark spectrum: false
XAxis mode: Wavelengths
Number of Pixels in Spectrum: 1024
>>>>>Begin Spectral Data<<<<<
801.071	22090
801.214	21903
801.356	21850
801.499	21732
801.641	21530
801.783	21477
801.926	21622
802.068	21378
802.211	21439
802.353	21260
802.496	21020
802.638	20956
802.78	20906
802.923	20899
803.065	20663
803.208	20769
803.35	20925
803.492	20834
803.635	20921
803.777	20941
803.919	20864
804.061	21104
804.204	20933
804.346	20925
804.488	20697
804.63	20762
804.773	20609
804.915	20781
805.057	20792
805.199	20708
805.341	20895
805.483	20960
805.626	20785
805.768	20807
805.91	20891
806.052	20712
806.194	20693
806.336	20838
806.478	20644
806.62	20678
806.762	20769
806.904	21020
807.046	21135
807.188	21142
807.33	21055
807.472	21100
807.614	20838
807.756	20933
807.898	20921
808.04	20754
808.182	20796
808.324	20819
808.465	20895
808.607	20948
808.749	21104
808.891	21313
809.033	21192
809.174	21165
809.316	21169
809.458	21203
809.6	21146
809.741	21230
809.883	21226
810.025	21370
810.166	21241
810.308	21313
810.45	21203
810.591	21192
810.733	20971
810.875	20944
811.016	20937
811.158	20834
811.299	20906
811.441	20967
811.582	21036
811.724	20918
811.865	20792
812.007	20876
812.148	20864
812.29	20967
812.431	20963
812.573	21161
812.714	21199
812.855	21443
812.997	21492
813.138	21671
813.279	21599
813.421	21408
813.562	21264
813.703	21123
813.845	20960
813.986	20712
814.127	20670
814.268	20537
814.41	20461
814.551	20457
814.692	20434
814.833	20400
814.974	20377
815.115	20473
815.256	20294
815.397	20309
815.539	20259
815.68	20180
815.821	20286
815.962	20218
816.103	20035
816.244	19974
816.385	19902
816.526	19890
816.666	19769
816.807	19662
816.948	19639
817.089	19670
817.23	19620
817.371	19521
817.512	19468
817.653	19556
817.793	19510
817.934	19575
818.075	19594
818.216	19521
818.356	19525
818.497	19468
818.638	19175
818.778	19247
818.919	19228
819.06	19293
819.2	19529
819.341	19464
819.481	19430
819.622	19476
819.762	19704
819.903	19674
820.043	19677
820.184	19521
820.324	19480
820.465	19666
820.605	19411
820.746	19502
820.886	19381
821.026	19597
821.167	19457
821.307	19609
821.447	19491
821.588	19377
821.728	19285
821.868	19160
822.008	19012
822.149	19038
822.289	18970
822.429	18722
822.569	18711
822.709	18715
822.849	18433
822.99	18460
823.13	18445
823.27	18388
823.41	18251
823.55	18083
823.69	18289
823.83	18304
823.97	18235
824.11	18026
824.25	18197
824.389	18026
824.529	18098
824.669	18057
824.809	18216
824.949	18209
825.089	18083
825.228	18091
825.368	17954
825.508	17889
825.648	17790
825.787	17851
825.927	17954
826.067	17752
826.206	17729
826.346	17775
826.485	17908
826.625	17843
826.765	17878
826.904	17729
827.044	17490
827.183	17551
827.323	17379
827.462	17562
827.601	17505
827.741	17471
827.88	17611
828.02	17429
828.159	17573
828.298	17558
828.437	17646
828.577	17474
828.716	17657
828.855	17463
828.994	17311
829.134	17360
829.273	17337
829.412	17189
829.551	17170
829.69	17258
829.829	17265
829.968	17288
830.107	17250
830.246	17296
830.385	17242
830.524	17239
830.663	17037
830.802	16980
830.941	16900
831.08	16877
831.219	16911
831.357	16946
831.496	17045
831.635	16873
831.774	16854
831.913	16816
832.051	16744
832.19	16717
832.329	16653
832.467	16584
832.606	16478
832.744	16493
832.883	16596
833.022	16497
833.16	16580
833.299	16618
833.437	16675
833.576	16577
833.714	16618
833.852	16694
833.991	16660
834.129	16615
834.267	16694
834.406	16592
834.544	16561
834.682	16618
834.821	16603
834.959	16790
835.097	16588
835.235	16687
835.373	16630
835.511	16649
835.65	16527
835.788	16607
835.926	16352
836.064	16291
836.202	16447
836.34	16561
836.478	16653
836.615	16531
836.753	16497
836.891	16656
837.029	16546
837.167	16504
837.305	16466
837.443	16432
837.58	16394
837.718	16500
837.856	16466
837.993	16318
838.131	16466
838.269	16352
838.406	16386
838.544	16268
838.681	16181
838.819	16120
838.956	15937
839.094	15972
839.231	15899
839.369	15991
839.506	16367
839.643	16238
839.781	16006
839.918	15907
840.055	16029
840.193	15884
840.33	16025
840.467	15907
840.604	15968
840.742	16135
840.879	15922
841.016	15895
841.153	15781
841.29	16010
841.427	15968
841.564	16017
841.701	16010
841.838	15983
841.975	15854
842.112	15922
842.249	15751
842.385	15690
842.522	15899
842.659	15720
842.796	15732
842.933	15717
843.069	15675
843.206	15774
843.343	15743
843.479	15701
843.616	15842
843.752	15572
843.889	15595
844.025	15709
844.162	15485
844.298	15603
844.435	15542
844.571	15405
844.708	15511
844.844	15648
844.98	15622
845.117	15641
845.253	15504
845.389	15488
845.525	15473
845.661	15428
845.798	15374
845.934	15370
846.07	15310
846.206	15412
846.342	15378
846.478	15291
846.614	15135
846.75	14975
846.886	15077
847.022	15154
847.158	15123
847.294	15070
847.429	15135
847.565	15020
847.701	15214
847.837	14773
847.972	14773
848.108	14906
848.244	14895
848.379	14712
848.515	14686
848.65	14762
848.786	14727
848.921	14781
849.057	14769
849.192	14758
849.328	14716
849.463	14667
849.598	14648
849.734	14587
849.869	14541
850.004	14541
850.14	14537
850.275	14374
850.41	14362
850.545	14351
850.68	14514
850.815	14412
850.95	14385
851.085	14629
851.22	14648
851.355	14541
851.49	14404
851.625	14393
851.76	14450
851.895	14431
852.03	14313
852.165	14465
852.299	14507
852.434	14526
852.569	14473
852.703	14526
852.838	14541
852.973	14560
853.107	14549
853.242	14385
853.376	14290
853.511	14259
853.645	14267
853.78	14404
853.914	14317
854.048	14252
854.183	14252
854.317	14298
854.451	14488
854.585	14389
854.72	14320
854.854	14351
854.988	14233
855.122	14336
855.256	14164
855.39	14347
855.524	14469
855.658	14313
855.792	14415
855.926	14355
856.06	14328
856.194	14427
856.327	14328
856.461	14233
856.595	14275
856.729	14248
856.862	14419
856.996	14324
857.13	14431
857.263	14499
857.397	14393
857.53	14214
857.664	14438
857.797	14423
857.931	14339
858.064	14412
858.197	14434
858.331	14252
858.464	14229
858.597	14225
858.731	14305
858.864	14351
858.997	14320
859.13	14301
859.263	14389
859.396	14381
859.529	14313
859.662	14343
859.795	14324
859.928	14320
860.061	14450
860.194	14495
860.327	14347
860.46	14324
860.592	14419
860.725	14427
860.858	14507
860.99	14282
861.123	14164
861.256	14229
861.388	14301
861.521	15055
861.653	14214
861.786	14138
861.918	14176
862.05	14286
862.183	14343
862.315	14263
862.447	14313
862.58	14210
862.712	14016
862.844	14069
862.976	14191
863.108	14138
863.24	14484
863.372	14084
863.504	14229
863.636	14016
863.768	14130
863.9	14134
864.032	14126
864.164	13989
864.296	14119
864.428	14229
864.559	14031
864.691	14183
864.823	14199
864.954	14096
865.086	14145
865.217	14115
865.349	14008
865.48	14126
865.612	14077
865.743	14278
865.875	14107
866.006	14115
866.137	14035
866.269	14054
866.4	14130
866.531	14024
866.662	14039
866.793	14016
866.924	14035
867.055	14134
867.186	14073
867.317	14077
867.448	13955
867.579	13967
867.71	14024
867.841	13970
867.972	14073
868.103	14035
868.233	14138
868.364	14046
868.495	14142
868.625	14256
868.756	14374
868.886	14294
869.017	14240
869.147	14457
869.278	14404
869.408	14412
869.539	14366
869.669	14415
869.799	14404
869.929	14507
870.06	14499
870.19	14610
870.32	14590
870.45	14575
870.58	14868
870.71	14754
870.84	14853
870.97	14701
871.1	14731
871.23	14956
871.36	14910
871.489	14842
871.619	14921
871.749	14948
871.879	14944
872.008	15043
872.138	14982
872.267	14925
872.397	14902
872.526	14697
872.656	14735
872.785	14777
872.915	14979
873.044	14990
873.173	14971
873.303	14982
873.432	15089
873.561	15032
873.69	14982
873.819	15005
873.948	15081
874.077	15089
874.206	15013
874.335	15112
874.464	15032
874.593	15222
874.722	15184
874.851	15382
874.979	15298
875.108	15378
875.237	15241
875.365	15165
875.494	15249
875.623	15447
875.751	15226
875.88	15351
876.008	15435
876.136	15504
876.265	15717
876.393	15739
876.521	15800
876.65	15789
876.778	15831
876.906	15660
877.034	15622
877.162	15705
877.29	15690
877.418	15705
877.546	15800
877.674	15709
877.802	15713
877.93	15732
878.058	15717
878.185	15553
878.313	15606
878.441	15739
878.568	15504
878.696	15679
878.824	15778
878.951	15751
879.079	15949
879.206	16063
879.333	15876
879.461	15629
879.588	15797
879.715	15899
879.842	15975
879.97	15842
880.097	15545
880.224	15568
880.351	15515
880.478	15466
880.605	15496
880.732	15469
880.859	15857
880.986	15587
881.112	15667
881.239	15469
881.366	15291
881.493	15252
881.619	15241
881.746	15264
881.872	15249
881.999	15241
882.125	15188
882.252	15245
882.378	15222
882.505	15420
882.631	15192
882.757	15081
882.883	15127
883.01	14975
883.136	14986
883.262	14883
883.388	14895
883.514	15085
883.64	15024
883.766	14933
883.892	14750
884.018	14876
884.143	15001
884.269	15081
884.395	14800
884.52	14750
884.646	14773
884.772	14663
884.897	14549
885.023	14762
885.148	14823
885.274	14834
885.399	14815
885.524	14758
885.65	14773
885.775	14712
885.9	14674
886.025	14845
886.15	14781
886.275	14727
886.4	14632
886.525	14678
886.65	14651
886.775	14712
886.9	14861
887.025	14956
887.149	14712
887.274	14625
887.399	14549
887.523	14469
887.648	14415
887.773	14522
887.897	14571
888.021	14617
888.146	14526
888.27	14606
888.395	14720
888.519	14701
888.643	14644
888.767	14632
888.891	14621
889.015	14419
889.139	14499
889.263	14415
889.387	14571
889.511	14629
889.635	14556
889.759	14286
889.883	14404
890.006	14495
890.13	14518
890.254	14415
890.377	14484
890.501	14221
890.624	14221
890.748	14309
890.871	14191
890.995	14119
891.118	14100
891.241	14092
891.364	14138
891.488	14214
891.611	14157
891.734	14123
891.857	14123
891.98	14172
892.103	14221
892.226	14153
892.349	14191
892.471	13932
892.594	14161
892.717	14149
892.839	14183
892.962	14199
893.085	14206
893.207	14157
893.33	13967
893.452	14084
893.575	14142
893.697	14142
893.819	14320
893.941	14358
894.064	14278
894.186	14084
894.308	14058
894.43	14313
894.552	14233
894.674	14305
894.796	14206
894.918	14210
895.04	14183
895.161	14275
895.283	14183
895.405	14126
895.526	14180
895.648	14225
895.769	14210
895.891	14358
896.012	14355
896.134	14229
896.255	14298
896.376	14294
896.498	14221
896.619	14320
896.74	14301
896.861	14347
896.982	14716
897.103	14773
897.224	14587
897.345	14541
897.466	14522
897.587	14541
897.708	14598
897.828	14613
897.949	14579
898.07	14465
898.19	14621
898.311	14720
898.431	14575
898.552	14602
898.672	14796
898.792	14670
898.913	14689
899.033	14541
899.153	14514
899.273	14412
899.393	14484
899.513	14511
899.633	14488
899.753	14480
899.873	14438
899.993	14598
900.113	14438
900.232	14503
900.352	14476
900.472	14461
900.591	14313
900.711	14461
900.83	14271
900.95	14457
901.069	14541
901.189	14286
901.308	14073
901.427	14001
901.546	13978
901.665	14016
901.784	14050
901.904	13936
902.023	13887
902.141	13655
902.26	13571
902.379	13750
902.498	13514
902.617	13453
902.735	13620
902.854	13582
902.973	13533
903.091	13308
903.21	13289
903.328	13266
903.446	13297
903.565	13244
903.683	13202
903.801	13103
903.919	13076
904.038	13122
904.156	13000
904.274	13175
904.392	12996
904.51	12985
904.627	12966
904.745	13080
904.863	13069
904.981	12840
905.098	12692
905.216	12711
905.334	12715
905.451	12688
905.569	12738
905.686	12745
905.803	12551
905.921	12582
906.038	12570
906.155	12460
906.272	12502
906.389	12410
906.506	12258
906.623	12391
906.74	12224
906.857	12136
906.974	12178
907.091	12403
907.208	12311
907.324	12224
907.441	12292
907.557	12011
907.674	12038
907.79	12030
907.907	11992
908.023	12072
908.139	11999
908.256	11965
908.372	12019
908.488	11946
908.604	11710
908.72	11729
908.836	11767
908.952	11691
909.068	11752
909.184	11923
909.3	11767
909.415	11790
909.531	11752
909.647	11520
909.762	11547
909.878	11551
909.993	11577
910.108	11577
910.224	11577
910.339	11509
910.454	11516
910.57	11326
910.685	11429
910.8	11611
910.915	11646
911.03	11448
911.145	11185
911.259	11258
911.374	11277
911.489	11208
911.604	11132
911.718	11064
911.833	10961
911.947	10904
912.062	10866
912.176	11010
912.291	10957
912.405	11029
912.519	11189
912.633	11231
912.748	11151
912.862	11052
912.976	10957
913.09	10767
913.204	10797
913.318	10911
913.431	10999
913.545	10949
913.659	11037
913.772	10915
913.886	10763
914	10759
914.113	10885
914.226	10949
914.34	10831
914.453	10668
914.566	10850
914.68	10706
914.793	10702
914.906	10569
915.019	10466
915.132	10489
915.245	10519
915.358	10519
915.47	10558
915.583	10573
915.696	10440
915.809	10637
915.921	10656
916.034	10436
916.146	10493
916.259	10409
916.371	10546
916.483	10565
916.595	10447
916.708	10504
916.82	10402
916.932	10466
917.044	10508
917.156	10379
917.268	10344
917.38	10356
917.491	10360
917.603	10455
917.715	10402
917.826	10440
917.938	10440
918.049	10284
918.161	10382
918.272	10451
918.384	10500
918.495	10371
918.606	10227
918.717	10177
918.828	10348
918.939	10276
919.05	10162
919.161	10234
919.272	10006
919.383	10105
919.494	10371
919.604	10497
919.715	10318
919.826	10238
919.936	10215
920.047	10402
920.157	10276
920.267	10516
920.378	10405
920.488	10291
920.598	10398
920.708	10641
920.818	10466
920.928	10409
921.038	10714
921.148	10554
921.258	10337
921.368	10215
921.477	10162
921.587	10086
921.697	10055
921.806	10158
921.916	10036
922.025	9949
922.134	9789
922.244	9713
922.353	9873
922.462	9785
922.571	9633
922.68	9580
922.789	9530
922.898	9515
923.007	9458
923.116	9549
923.224	9523
923.333	9515
923.442	9424
923.55	9363
923.659	9405
923.767	9454
923.876	9355
923.984	9473
924.092	9408
924.201	9386
924.309	9359
924.417	9428
924.525	9306
924.633	9416
924.741	10287
924.849	9116
924.956	9405
925.064	9146
925.172	9104
925.279	9093
925.387	9207
925.494	9173
925.602	9329
925.709	9249
925.816	9241
925.924	9211
926.031	9245
926.138	9176
926.245	9287
926.352	9100
926.459	9294
926.566	9237
926.673	9116
926.779	9017
926.886	9032
926.993	8887
927.099	8842
927.206	8899
927.312	8830
927.419	8857
927.525	8979
927.631	8948
927.737	8864
927.843	8769
927.95	8629
928.056	8781
928.162	8800
928.267	8849
928.373	9450
928.479	8876
928.585	8674
928.69	8735
928.796	8781
928.901	8655
929.007	8610
929.112	8758
929.218	8659
929.323	8644
929.428	8575
929.533	8785
929.638	8499
929.743	8579
929.848	8667
929.953	8659
930.058	8492
930.163	8347
930.267	8412
930.372	8533
930.477	8271
930.581	8625
930.685	8423
930.79	8309
930.894	8404
930.998	8286
931.103	8454
931.207	8054
931.311	7978
931.415	8001
931.519	7811
931.623	7780
