Data from test_V78500241_1084.txt Node
Date: Fri Mar 25 14:41:15 CST 2022
User: usil
Spectrometer: V785-0024
Trigger mode: 0
Integration Time (sec): 4.000000E-1
Scans to average: 1
Nonlinearity correction enabled: false
Boxcar width: 0
Storing dark spectrum: false
XAxis mode: Wavelengths
Number of Pixels in Spectrum: 1024
>>>>>Begin Spectral Data<<<<<
801.071	22759
801.214	22615
801.356	22417
801.499	22253
801.641	22093
801.783	22002
801.926	22101
802.068	21922
802.211	21907
802.353	21789
802.496	21637
802.638	21599
802.78	21542
802.923	21553
803.065	21378
803.208	21321
803.35	21386
803.492	21568
803.635	21572
803.777	21393
803.919	21538
804.061	21778
804.204	21549
804.346	21466
804.488	21310
804.63	21344
804.773	21245
804.915	21443
805.057	21488
805.199	21321
805.341	21466
805.483	21462
805.626	21355
805.768	21245
805.91	21408
806.052	21416
806.194	21310
806.336	21561
806.478	21477
806.62	21294
806.762	21485
806.904	21481
807.046	21797
807.188	21656
807.33	21778
807.472	21739
807.614	21679
807.756	21797
807.898	21698
808.04	21557
808.182	21629
808.324	21759
808.465	21819
808.607	22051
808.749	22226
808.891	22287
809.033	22375
809.174	22272
809.316	22154
809.458	22143
809.6	21979
809.741	22025
809.883	22078
810.025	22044
810.166	22051
810.308	22025
810.45	21975
810.591	21895
810.733	21717
810.875	21576
811.016	21538
811.158	21564
811.299	21679
811.441	21629
811.582	21675
811.724	21648
811.865	21447
812.007	21633
812.148	21530
812.29	21561
812.431	21736
812.573	21873
812.714	21975
812.855	22204
812.997	22280
813.138	22246
813.279	22192
813.421	22006
813.562	22021
813.703	21850
813.845	21766
813.986	21534
814.127	21344
814.268	21291
814.41	21180
814.551	21218
814.692	21207
814.833	21066
814.974	21077
815.115	21108
815.256	20906
815.397	20914
815.539	21081
815.68	20918
815.821	20834
815.962	20921
816.103	20929
816.244	20724
816.385	20568
816.526	20613
816.666	20495
816.807	20301
816.948	20374
817.089	20404
817.23	20366
817.371	20374
817.512	20263
817.653	20221
817.793	20202
817.934	20309
818.075	20484
818.216	20259
818.356	20142
818.497	20145
818.638	19864
818.778	19959
818.919	19928
819.06	20016
819.2	20111
819.341	20138
819.481	20096
819.622	20240
819.762	20518
819.903	20427
820.043	20301
820.184	20309
820.324	20263
820.465	20381
820.605	20233
820.746	20191
820.886	20069
821.026	20225
821.167	20138
821.307	20343
821.447	20229
821.588	20073
821.728	20043
821.868	19791
822.008	19704
822.149	19689
822.289	19525
822.429	19331
822.569	19316
822.709	19350
822.849	19171
822.99	19148
823.13	19168
823.27	19050
823.41	18970
823.55	19000
823.69	18954
823.83	18954
823.97	18905
824.11	18681
824.25	18677
824.389	18719
824.529	18776
824.669	18779
824.809	18821
824.949	18757
825.089	18791
825.228	18669
825.368	18422
825.508	18471
825.648	18502
825.787	18433
825.927	18578
826.067	18486
826.206	18467
826.346	18513
826.485	18597
826.625	18517
826.765	18540
826.904	18445
827.044	18350
827.183	18243
827.323	18262
827.462	18281
827.601	18228
827.741	18190
827.88	18049
828.02	18140
828.159	18095
828.298	18163
828.437	18304
828.577	18152
828.716	18292
828.855	18228
828.994	17988
829.134	17999
829.273	17980
829.412	17950
829.551	18049
829.69	17999
829.829	17969
829.968	18110
830.107	17996
830.246	17996
830.385	17874
830.524	17855
830.663	17794
830.802	17718
830.941	17600
831.08	17634
831.219	17695
831.357	17687
831.496	17904
831.635	17619
831.774	17433
831.913	17429
832.051	17360
832.19	17315
832.329	17509
832.467	17311
832.606	17178
832.744	17258
832.883	17193
833.022	17227
833.16	17277
833.299	17326
833.437	17345
833.576	17368
833.714	17326
833.852	17326
833.991	17471
834.129	17379
834.267	17398
834.406	17349
834.544	17421
834.682	17383
834.821	17311
834.959	17528
835.097	17216
835.235	17440
835.373	17425
835.511	17292
835.65	17204
835.788	17235
835.926	17079
836.064	17071
836.202	17037
836.34	17189
836.478	17246
836.615	17147
836.753	17239
836.891	17360
837.029	17299
837.167	17204
837.305	17250
837.443	17117
837.58	17083
837.718	17014
837.856	17136
837.993	16968
838.131	17014
838.269	17041
838.406	17014
838.544	16896
838.681	16767
838.819	16774
838.956	16538
839.094	16645
839.231	16706
839.369	16812
839.506	17048
839.643	16858
839.781	16679
839.918	16622
840.055	16588
840.193	16664
840.33	16603
840.467	16660
840.604	16710
840.742	16847
840.879	16554
841.016	16497
841.153	16550
841.29	16630
841.427	16694
841.564	16630
841.701	16641
841.838	16523
841.975	16565
842.112	16489
842.249	16405
842.385	16394
842.522	16573
842.659	16447
842.796	16379
842.933	16428
843.069	16284
843.206	16322
843.343	16508
843.479	16432
843.616	16363
843.752	16211
843.889	16150
844.025	16356
844.162	16192
844.298	16284
844.435	16204
844.571	16166
844.708	16158
844.844	16398
844.98	16409
845.117	16421
845.253	16162
845.389	16150
845.525	16226
845.661	16402
845.798	16341
845.934	16603
846.07	16512
846.206	16615
846.342	16558
846.478	16257
846.614	16162
846.75	15816
846.886	15869
847.022	15949
847.158	15736
847.294	15701
847.429	15800
847.565	15736
847.701	15975
847.837	15458
847.972	15488
848.108	15614
848.244	15644
848.379	15325
848.515	15332
848.65	15291
848.786	15382
848.921	15382
849.057	15481
849.192	15412
849.328	15386
849.463	15393
849.598	15332
849.734	15279
849.869	15184
850.004	15226
850.14	15138
850.275	15188
850.41	15032
850.545	15047
850.68	15081
850.815	15131
850.95	15123
851.085	15272
851.22	15195
851.355	15119
851.49	15055
851.625	15024
851.76	14956
851.895	15028
852.03	15036
852.165	15066
852.299	15116
852.434	15207
852.569	15138
852.703	15039
852.838	15146
852.973	15222
853.107	15074
853.242	15032
853.376	14952
853.511	14861
853.645	14986
853.78	15036
853.914	15020
854.048	14960
854.183	14921
854.317	14975
854.451	14982
854.585	14982
854.72	14948
854.854	14971
854.988	14842
855.122	15017
855.256	14868
855.39	14979
855.524	15024
855.658	15009
855.792	14937
855.926	14998
856.06	14948
856.194	15108
856.327	14929
856.461	14895
856.595	14937
856.729	14975
856.862	15081
856.996	15005
857.13	15108
857.263	15055
857.397	15009
857.53	15074
857.664	15020
857.797	15100
857.931	15051
858.064	15028
858.197	15066
858.331	14891
858.464	14963
858.597	14899
858.731	14948
858.864	14937
858.997	14979
859.13	15005
859.263	15058
859.396	15112
859.529	14944
859.662	15001
859.795	14899
859.928	14971
860.061	15154
860.194	15173
860.327	14979
860.46	14975
860.592	15123
860.725	15142
860.858	15089
860.99	14971
861.123	14921
861.256	14910
861.388	15009
861.521	15637
861.653	14830
861.786	14861
861.918	14800
862.05	14963
862.183	15036
862.315	14925
862.447	14963
862.58	14998
862.712	14819
862.844	14678
862.976	14762
863.108	14815
863.24	15203
863.372	14773
863.504	14811
863.636	14746
863.768	14754
863.9	14819
864.032	14640
864.164	14796
864.296	14811
864.428	14857
864.559	14754
864.691	14864
864.823	14765
864.954	14773
865.086	14762
865.217	14796
865.349	14735
865.48	14678
865.612	14754
865.743	14899
865.875	14674
866.006	14667
866.137	14762
866.269	14754
866.4	14701
866.531	14701
866.662	14678
866.793	14750
866.924	14712
867.055	14765
867.186	14754
867.317	14727
867.448	14636
867.579	14606
867.71	14667
867.841	14564
867.972	14739
868.103	14735
868.233	14689
868.364	14617
868.495	14758
868.625	14971
868.756	15043
868.886	14838
869.017	14899
869.147	15043
869.278	15020
869.408	14986
869.539	14952
869.669	15032
869.799	15077
869.929	15135
870.06	15039
870.19	15275
870.32	15207
870.45	15340
870.58	15401
870.71	15473
870.84	15488
870.97	15283
871.1	15405
871.23	15492
871.36	15561
871.489	15481
871.619	15477
871.749	15572
871.879	15511
872.008	15633
872.138	15629
872.267	15477
872.397	15363
872.526	15428
872.656	15370
872.785	15439
872.915	15576
873.044	15675
873.173	15500
873.303	15656
873.432	15633
873.561	15591
873.69	15572
873.819	15660
873.948	15625
874.077	15603
874.206	15564
874.335	15644
874.464	15751
874.593	15915
874.722	15755
874.851	15876
874.979	15960
875.108	15975
875.237	15778
875.365	15835
875.494	15941
875.623	15975
875.751	15888
875.88	15972
876.008	16078
876.136	16143
876.265	16402
876.393	16447
876.521	16417
876.65	16455
876.778	16299
876.906	16329
877.034	16360
877.162	16394
877.29	16226
877.418	16363
877.546	16322
877.674	16348
877.802	16379
877.93	16432
878.058	16291
878.185	16173
878.313	16207
878.441	16363
878.568	16246
878.696	16375
878.824	16474
878.951	16500
879.079	16516
879.206	16831
879.333	16759
879.461	16531
879.588	16653
879.715	16790
879.842	16896
879.97	16694
880.097	16402
880.224	16299
880.351	16329
880.478	16261
880.605	16257
880.732	16181
880.859	16474
880.986	16280
881.112	16322
881.239	16143
881.366	15983
881.493	15956
881.619	15800
881.746	15972
881.872	15953
881.999	15854
882.125	15823
882.252	15968
882.378	16002
882.505	16055
882.631	15956
882.757	15762
882.883	15755
883.01	15755
883.136	15686
883.262	15568
883.388	15584
883.514	15743
883.64	15732
883.766	15637
883.892	15469
884.018	15545
884.143	15633
884.269	15842
884.395	15473
884.52	15344
884.646	15424
884.772	15332
884.897	15344
885.023	15454
885.148	15542
885.274	15576
885.399	15530
885.524	15298
885.65	15393
885.775	15473
885.9	15428
886.025	15477
886.15	15416
886.275	15275
886.4	15222
886.525	15332
886.65	15317
886.775	15207
886.9	15431
887.025	15549
887.149	15458
887.274	15245
887.399	15150
887.523	15131
887.648	15138
887.773	15112
887.897	15344
888.021	15294
888.146	15119
888.27	15233
888.395	15279
888.519	15332
888.643	15252
888.767	15279
888.891	15127
889.015	15100
889.139	15051
889.263	14956
889.387	15184
889.511	15302
889.635	15161
889.759	14990
889.883	15017
890.006	15058
890.13	15039
890.254	14998
890.377	14956
890.501	14872
890.624	14838
890.748	14899
890.871	14629
890.995	14701
891.118	14636
891.241	14720
891.364	14792
891.488	14807
891.611	14712
891.734	14705
891.857	14864
891.98	14739
892.103	14735
892.226	14689
892.349	14686
892.471	14495
892.594	14655
892.717	14727
892.839	14651
892.962	14781
893.085	14743
893.207	14659
893.33	14598
893.452	14590
893.575	14720
893.697	14651
893.819	14765
893.941	14906
894.064	14834
894.186	14629
894.308	14712
894.43	14746
894.552	14891
894.674	14849
894.796	14629
894.918	14735
895.04	14739
895.161	14811
895.283	14861
895.405	14765
895.526	14765
895.648	14823
895.769	14830
895.891	14777
896.012	14864
896.134	14895
896.255	14864
896.376	14754
896.498	14838
896.619	14891
896.74	14883
896.861	14872
896.982	15154
897.103	15249
897.224	15142
897.345	15009
897.466	15032
897.587	15138
897.708	15104
897.828	15009
897.949	15001
898.07	14960
898.19	15036
898.311	15203
898.431	15142
898.552	15211
898.672	15256
898.792	15329
898.913	15252
899.033	15001
899.153	14918
899.273	14899
899.393	15020
899.513	15097
899.633	14925
899.753	14952
899.873	15005
899.993	14998
900.113	14982
900.232	14963
900.352	15032
900.472	14876
900.591	14838
900.711	14948
900.83	14792
900.95	14864
901.069	15055
901.189	14792
901.308	14648
901.427	14507
901.546	14537
901.665	14552
901.784	14545
901.904	14404
902.023	14328
902.141	14244
902.26	14054
902.379	14107
902.498	14119
902.617	14024
902.735	14126
902.854	14077
902.973	14031
903.091	13822
903.21	13795
903.328	13841
903.446	13841
903.565	13655
903.683	13590
903.801	13502
903.919	13658
904.038	13624
904.156	13483
904.274	13556
904.392	13502
904.51	13495
904.627	13468
904.745	13525
904.863	13502
904.981	13259
905.098	13126
905.216	13126
905.334	13289
905.451	13107
905.569	13099
905.686	13247
905.803	13114
905.921	12962
906.038	13050
906.155	13004
906.272	12943
906.389	12958
906.506	12734
906.623	12787
906.74	12753
906.857	12696
906.974	12654
907.091	12798
907.208	12833
907.324	12825
907.441	12711
907.557	12483
907.674	12414
907.79	12361
907.907	12426
908.023	12494
908.139	12502
908.256	12452
908.372	12369
908.488	12395
908.604	12228
908.72	12228
908.836	12262
908.952	12216
909.068	12190
909.184	12369
909.3	12213
909.415	12277
909.531	12254
909.647	12003
909.762	12011
909.878	11927
909.993	11950
910.108	11958
910.224	11992
910.339	12087
910.454	11847
910.57	11828
910.685	11745
910.8	12076
910.915	12041
911.03	11958
911.145	11695
911.259	11722
911.374	11668
911.489	11558
911.604	11604
911.718	11554
911.833	11421
911.947	11368
912.062	11227
912.176	11440
912.291	11444
912.405	11532
912.519	11615
912.633	11741
912.748	11551
912.862	11383
912.976	11372
913.09	11189
913.204	11258
913.318	11391
913.431	11455
913.545	11433
913.659	11455
913.772	11261
913.886	11189
914	11197
914.113	11258
914.226	11376
914.34	11273
914.453	11143
914.566	11360
914.68	11117
914.793	11117
914.906	10976
915.019	10908
915.132	10828
915.245	10881
915.358	10980
915.47	10980
915.583	10987
915.696	10965
915.809	11006
915.921	11132
916.034	10850
916.146	10809
916.259	10869
916.371	10881
916.483	10938
916.595	10824
916.708	10869
916.82	10889
916.932	10824
917.044	10805
917.156	10843
917.268	10752
917.38	10698
917.491	10771
917.603	10755
917.715	10866
917.826	10820
917.938	10694
918.049	10573
918.161	10740
918.272	10877
918.384	10824
918.495	10759
918.606	10706
918.717	10577
918.828	10664
918.939	10660
919.05	10546
919.161	10573
919.272	10405
919.383	10436
919.494	10736
919.604	10866
919.715	10577
919.826	10573
919.936	10634
920.047	10649
920.157	10618
920.267	10809
920.378	10706
920.488	10519
920.598	10881
920.708	10946
920.818	10801
920.928	10824
921.038	10911
921.148	10869
921.258	10668
921.368	10546
921.477	10504
921.587	10489
921.697	10379
921.806	10459
921.916	10402
922.025	10166
922.134	10135
922.244	10150
922.353	10227
922.462	10029
922.571	9998
922.68	9903
922.789	9846
922.898	9812
923.007	9876
923.116	9869
923.224	9857
923.333	9846
923.442	9701
923.55	9740
923.659	9797
923.767	9797
923.876	9660
923.984	9743
924.092	9690
924.201	9736
924.309	9648
924.417	9713
924.525	9595
924.633	9679
924.741	10637
924.849	9370
924.956	9629
925.064	9428
925.172	9336
925.279	9462
925.387	9549
925.494	9458
925.602	9629
925.709	9534
925.816	9431
925.924	9481
926.031	9591
926.138	9526
926.245	9511
926.352	9336
926.459	9561
926.566	9595
926.673	9393
926.779	9291
926.886	9317
926.993	9245
927.099	9199
927.206	9116
927.312	9039
927.419	9154
927.525	9157
927.631	9214
927.737	9146
927.843	9085
927.95	9001
928.056	9001
928.162	9077
928.267	9192
928.373	9743
928.479	9150
928.585	8857
928.69	9051
928.796	9047
928.901	9081
929.007	8853
929.112	8971
929.218	9039
929.323	8933
929.428	8883
929.533	8975
929.638	8815
929.743	8895
929.848	8933
929.953	8868
930.058	8826
930.163	8659
930.267	8651
930.372	8754
930.477	8587
930.581	8906
930.685	8689
930.79	8552
930.894	8621
930.998	8579
931.103	8720
931.207	8355
931.311	8366
931.415	8309
931.519	8077
931.623	8031
