Data from test_V78500241_1672.txt Node
Date: Fri Mar 25 14:45:21 CST 2022
User: usil
Spectrometer: V785-0024
Trigger mode: 0
Integration Time (sec): 4.000000E-1
Scans to average: 1
Nonlinearity correction enabled: false
Boxcar width: 0
Storing dark spectrum: false
XAxis mode: Wavelengths
Number of Pixels in Spectrum: 1024
>>>>>Begin Spectral Data<<<<<
801.071	22371
801.214	22219
801.356	21869
801.499	21865
801.641	21511
801.783	21747
801.926	21667
802.068	21629
802.211	21408
802.353	21511
802.496	21176
802.638	21256
802.78	21119
802.923	21039
803.065	20982
803.208	20990
803.35	21036
803.492	21131
803.635	21184
803.777	20910
803.919	21017
804.061	21458
804.204	21085
804.346	21013
804.488	20857
804.63	20826
804.773	20857
804.915	20902
805.057	21055
805.199	20800
805.341	20933
805.483	21001
805.626	21104
805.768	20895
805.91	20918
806.052	20899
806.194	20842
806.336	21085
806.478	20963
806.62	20758
806.762	20910
806.904	21127
807.046	21321
807.188	21348
807.33	21211
807.472	21332
807.614	21089
807.756	21268
807.898	21013
808.04	20948
808.182	20986
808.324	21017
808.465	21131
808.607	21199
808.749	21412
808.891	21408
809.033	21530
809.174	21424
809.316	21329
809.458	21370
809.6	21135
809.741	21393
809.883	21389
810.025	21466
810.166	21557
810.308	21401
810.45	21447
810.591	21431
810.733	21310
810.875	21104
811.016	21066
811.158	20967
811.299	20971
811.441	21233
811.582	21017
811.724	21207
811.865	21089
812.007	21089
812.148	21154
812.29	21032
812.431	21359
812.573	21408
812.714	21473
812.855	21641
812.997	21728
813.138	21865
813.279	21641
813.421	21587
813.562	21504
813.703	21321
813.845	21211
813.986	20956
814.127	20826
814.268	20727
814.41	20697
814.551	20609
814.692	20712
814.833	20556
814.974	20617
815.115	20621
815.256	20480
815.397	20492
815.539	20503
815.68	20355
815.821	20282
815.962	20442
816.103	20294
816.244	20214
816.385	20065
816.526	20050
816.666	20103
816.807	19738
816.948	19902
817.089	19871
817.23	19841
817.371	19784
817.512	19833
817.653	19772
817.793	19887
817.934	19780
818.075	19746
818.216	19826
818.356	19791
818.497	19552
818.638	19483
818.778	19487
818.919	19480
819.06	19411
819.2	19578
819.341	19670
819.481	19704
819.622	19814
819.762	19928
819.903	19845
820.043	19708
820.184	19643
820.324	19807
820.465	19807
820.605	19666
820.746	19689
820.886	19563
821.026	19734
821.167	19609
821.307	19700
821.447	19704
821.588	19651
821.728	19472
821.868	19369
822.008	19164
822.149	19187
822.289	19038
822.429	18783
822.569	18928
822.709	18806
822.849	18646
822.99	18547
823.13	18589
823.27	18604
823.41	18486
823.55	18483
823.69	18357
823.83	18593
823.97	18407
824.11	18296
824.25	18186
824.389	18174
824.529	18224
824.669	18144
824.809	18315
824.949	18292
825.089	18178
825.228	18262
825.368	18072
825.508	18083
825.648	18011
825.787	18072
825.927	17999
826.067	17996
826.206	17980
826.346	18152
826.485	18072
826.625	18022
826.765	18163
826.904	18083
827.044	17760
827.183	17718
827.323	17680
827.462	17741
827.601	17718
827.741	17672
827.88	17615
828.02	17570
828.159	17714
828.298	17699
828.437	17699
828.577	17611
828.716	17802
828.855	17608
828.994	17452
829.134	17444
829.273	17391
829.412	17284
829.551	17421
829.69	17330
829.829	17455
829.968	17467
830.107	17501
830.246	17398
830.385	17353
830.524	17299
830.663	17315
830.802	17185
830.941	17178
831.08	16957
831.219	17246
831.357	17086
831.496	17383
831.635	17018
831.774	17003
831.913	16881
832.051	16904
832.19	16801
832.329	16911
832.467	16660
832.606	16713
832.744	16694
832.883	16702
833.022	16725
833.16	16694
833.299	16820
833.437	16630
833.576	16786
833.714	16744
833.852	16877
833.991	16725
834.129	16755
834.267	16854
834.406	16694
834.544	16828
834.682	16820
834.821	16809
834.959	17018
835.097	16736
835.235	16805
835.373	16820
835.511	16725
835.65	16744
835.788	16675
835.926	16698
836.064	16519
836.202	16596
836.34	16713
836.478	16763
836.615	16683
836.753	16702
836.891	16824
837.029	16641
837.167	16698
837.305	16694
837.443	16500
837.58	16497
837.718	16668
837.856	16565
837.993	16512
838.131	16519
838.269	16478
838.406	16546
838.544	16344
838.681	16219
838.819	16185
838.956	16128
839.094	16010
839.231	16150
839.369	16226
839.506	16440
839.643	16375
839.781	16192
839.918	16040
840.055	16128
840.193	16101
840.33	16002
840.467	16105
840.604	16188
840.742	16344
840.879	15895
841.016	15987
841.153	15960
841.29	16128
841.427	16078
841.564	16143
841.701	16010
841.838	16044
841.975	15975
842.112	15964
842.249	15949
842.385	15770
842.522	16044
842.659	15816
842.796	15778
842.933	15778
843.069	15816
843.206	15804
843.343	15854
843.479	15873
843.616	15873
843.752	15724
843.889	15622
844.025	15888
844.162	15614
844.298	15743
844.435	15732
844.571	15561
844.708	15739
844.844	15846
844.98	15850
845.117	15823
845.253	15629
845.389	15682
845.525	15606
845.661	15545
845.798	15431
845.934	15530
846.07	15416
846.206	15530
846.342	15633
846.478	15492
846.614	15287
846.75	15184
846.886	15138
847.022	15241
847.158	15135
847.294	15169
847.429	15272
847.565	15192
847.701	15428
847.837	14956
847.972	14918
848.108	15036
848.244	14998
848.379	14815
848.515	14762
848.65	14708
848.786	14769
848.921	14842
849.057	15001
849.192	14937
849.328	14963
849.463	14864
849.598	14880
849.734	14746
849.869	14644
850.004	14644
850.14	14636
850.275	14625
850.41	14541
850.545	14556
850.68	14526
850.815	14587
850.95	14564
851.085	14785
851.22	14712
851.355	14568
851.49	14606
851.625	14526
851.76	14598
851.895	14381
852.03	14503
852.165	14583
852.299	14575
852.434	14541
852.569	14648
852.703	14602
852.838	14731
852.973	14701
853.107	14644
853.242	14545
853.376	14469
853.511	14332
853.645	14408
853.78	14568
853.914	14507
854.048	14385
854.183	14545
854.317	14396
854.451	14571
854.585	14530
854.72	14396
854.854	14522
854.988	14351
855.122	14446
855.256	14278
855.39	14381
855.524	14571
855.658	14533
855.792	14488
855.926	14522
856.06	14438
856.194	14564
856.327	14434
856.461	14362
856.595	14339
856.729	14461
856.862	14568
856.996	14465
857.13	14549
857.263	14522
857.397	14575
857.53	14332
857.664	14545
857.797	14518
857.931	14549
858.064	14450
858.197	14575
858.331	14419
858.464	14404
858.597	14393
858.731	14366
858.864	14476
858.997	14438
859.13	14469
859.263	14503
859.396	14583
859.529	14358
859.662	14415
859.795	14457
859.928	14385
860.061	14663
860.194	14701
860.327	14503
860.46	14537
860.592	14571
860.725	14583
860.858	14522
860.99	14389
861.123	14263
861.256	14313
861.388	14389
861.521	14960
861.653	14385
861.786	14328
861.918	14366
862.05	14480
862.183	14552
862.315	14473
862.447	14419
862.58	14454
862.712	14176
862.844	14088
862.976	14263
863.108	14309
863.24	14689
863.372	14172
863.504	14256
863.636	14252
863.768	14229
863.9	14191
864.032	14130
864.164	14195
864.296	14202
864.428	14343
864.559	14298
864.691	14320
864.823	14229
864.954	14176
865.086	14290
865.217	14267
865.349	14195
865.48	14252
865.612	14157
865.743	14366
865.875	14218
866.006	14149
866.137	14244
866.269	14233
866.4	14294
866.531	14138
866.662	14107
866.793	14229
866.924	14126
867.055	14225
867.186	14111
867.317	14100
867.448	14111
867.579	14149
867.71	14035
867.841	14149
867.972	14191
868.103	14206
868.233	14149
868.364	14278
868.495	14320
868.625	14434
868.756	14594
868.886	14400
869.017	14446
869.147	14590
869.278	14514
869.408	14484
869.539	14450
869.669	14587
869.799	14514
869.929	14670
870.06	14488
870.19	14697
870.32	14625
870.45	14705
870.58	14880
870.71	14979
870.84	14929
870.97	14788
871.1	14887
871.23	14990
871.36	15051
871.489	15036
871.619	14956
871.749	15020
871.879	15100
872.008	15173
872.138	15070
872.267	15032
872.397	14872
872.526	14902
872.656	14842
872.785	14861
872.915	15104
873.044	15211
873.173	15039
873.303	15070
873.432	15157
873.561	15146
873.69	15176
873.819	15043
873.948	15142
874.077	15119
874.206	15077
874.335	15211
874.464	15260
874.593	15416
874.722	15374
874.851	15496
874.979	15424
875.108	15500
875.237	15393
875.365	15370
875.494	15355
875.623	15447
875.751	15351
875.88	15511
876.008	15549
876.136	15690
876.265	15785
876.393	15888
876.521	15926
876.65	15846
876.778	15759
876.906	15766
877.034	15873
877.162	15789
877.29	15770
877.418	15755
877.546	15800
877.674	15831
877.802	15899
877.93	15888
878.058	15793
878.185	15595
878.313	15797
878.441	15918
878.568	15759
878.696	15854
878.824	15808
878.951	15861
879.079	16013
879.206	16067
879.333	15998
879.461	15899
879.588	15915
879.715	15922
879.842	16147
879.97	15968
880.097	15717
880.224	15648
880.351	15663
880.478	15720
880.605	15679
880.732	15724
880.859	15907
880.986	15720
881.112	15724
881.239	15564
881.366	15443
881.493	15370
881.619	15249
881.746	15332
881.872	15351
881.999	15298
882.125	15279
882.252	15279
882.378	15340
882.505	15481
882.631	15237
882.757	15150
882.883	15237
883.01	15127
883.136	15097
883.262	14967
883.388	15024
883.514	15203
883.64	15192
883.766	15100
883.892	15020
884.018	14906
884.143	15127
884.269	15245
884.395	14967
884.52	14811
884.646	14902
884.772	14800
884.897	14731
885.023	14842
885.148	14952
885.274	14998
885.399	15020
885.524	14895
885.65	14826
885.775	14788
885.9	14895
886.025	15066
886.15	14902
886.275	14830
886.4	14716
886.525	14807
886.65	14819
886.775	14811
886.9	14921
887.025	15020
887.149	14861
887.274	14705
887.399	14674
887.523	14518
887.648	14568
887.773	14556
887.897	14792
888.021	14693
888.146	14640
888.27	14712
888.395	14838
888.519	14644
888.643	14796
888.767	14777
888.891	14682
889.015	14587
889.139	14613
889.263	14461
889.387	14648
889.511	14716
889.635	14667
889.759	14427
889.883	14495
890.006	14594
890.13	14648
890.254	14518
890.377	14530
890.501	14412
890.624	14244
890.748	14423
890.871	14256
890.995	14199
891.118	14195
891.241	14271
891.364	14172
891.488	14282
891.611	14123
891.734	14278
891.857	14221
891.98	14187
892.103	14355
892.226	14290
892.349	14191
892.471	14123
892.594	14199
892.717	14263
892.839	14183
892.962	14199
893.085	14271
893.207	14267
893.33	14123
893.452	14111
893.575	14263
893.697	14248
893.819	14438
893.941	14431
894.064	14389
894.186	14153
894.308	14206
894.43	14317
894.552	14408
894.674	14343
894.796	14191
894.918	14290
895.04	14240
895.161	14366
895.283	14343
895.405	14282
895.526	14309
895.648	14221
895.769	14419
895.891	14415
896.012	14473
896.134	14415
896.255	14442
896.376	14355
896.498	14385
896.619	14423
896.74	14389
896.861	14404
896.982	14800
897.103	14895
897.224	14743
897.345	14610
897.466	14632
897.587	14670
897.708	14746
897.828	14610
897.949	14644
898.07	14492
898.19	14648
898.311	14788
898.431	14659
898.552	14674
898.672	14781
898.792	14891
898.913	14830
899.033	14758
899.153	14617
899.273	14594
899.393	14579
899.513	14503
899.633	14617
899.753	14659
899.873	14610
899.993	14705
900.113	14537
900.232	14636
900.352	14541
900.472	14518
900.591	14442
900.711	14476
900.83	14492
900.95	14514
901.069	14606
901.189	14404
901.308	14233
901.427	14142
901.546	14119
901.665	14168
901.784	14130
901.904	14020
902.023	13955
902.141	13860
902.26	13776
902.379	13772
902.498	13655
902.617	13658
902.735	13708
902.854	13761
902.973	13605
903.091	13396
903.21	13362
903.328	13460
903.446	13438
903.565	13320
903.683	13240
903.801	13175
903.919	13244
904.038	13221
904.156	13095
904.274	13141
904.392	13046
904.51	13091
904.627	13099
904.745	13137
904.863	13114
904.981	12981
905.098	12776
905.216	12814
905.334	12817
905.451	12798
905.569	12711
905.686	12806
905.803	12741
905.921	12574
906.038	12772
906.155	12547
906.272	12525
906.389	12563
906.506	12342
906.623	12266
906.74	12384
906.857	12300
906.974	12201
907.091	12509
907.208	12494
907.324	12407
907.441	12315
907.557	12254
907.674	12076
907.79	12057
907.907	12076
908.023	12197
908.139	12167
908.256	11988
908.372	12095
908.488	11980
908.604	11889
908.72	11764
908.836	11935
908.952	11866
909.068	11786
909.184	11980
909.3	11935
909.415	11912
909.531	11904
909.647	11627
909.762	11703
909.878	11585
909.993	11566
910.108	11608
910.224	11611
910.339	11649
910.454	11524
910.57	11478
910.685	11429
910.8	11707
910.915	11649
911.03	11570
911.145	11402
911.259	11303
911.374	11353
911.489	11193
911.604	11246
911.718	11067
911.833	11075
911.947	10953
912.062	10915
912.176	11090
912.291	11124
912.405	11045
912.519	11292
912.633	11288
912.748	11090
912.862	11121
912.976	10934
913.09	10873
913.204	10915
913.318	10976
913.431	11014
913.545	11071
913.659	11098
913.772	11029
913.886	10797
914	10820
914.113	10976
914.226	11041
914.34	10885
914.453	10714
914.566	10866
914.68	10812
914.793	10755
914.906	10683
915.019	10519
915.132	10500
915.245	10500
915.358	10565
915.47	10607
915.583	10599
915.696	10580
915.809	10771
915.921	10786
916.034	10626
916.146	10584
916.259	10554
916.371	10683
916.483	10615
916.595	10516
916.708	10500
916.82	10497
916.932	10546
917.044	10451
917.156	10504
917.268	10390
917.38	10447
917.491	10386
917.603	10405
917.715	10459
917.826	10577
917.938	10455
918.049	10299
918.161	10436
918.272	10550
918.384	10470
918.495	10440
918.606	10284
918.717	10223
918.828	10329
918.939	10322
919.05	10207
919.161	10234
919.272	10150
919.383	10188
919.494	10280
919.604	10546
919.715	10344
919.826	10238
919.936	10295
920.047	10394
920.157	10333
920.267	10470
920.378	10413
920.488	10303
920.598	10527
920.708	10603
920.818	10455
920.928	10485
921.038	10607
921.148	10641
921.258	10325
921.368	10181
921.477	10196
921.587	10120
921.697	9907
921.806	10234
921.916	10006
922.025	9842
922.134	9880
922.244	9880
922.353	9865
922.462	9747
922.571	9694
922.68	9549
922.789	9515
922.898	9561
923.007	9564
923.116	9469
923.224	9580
923.333	9553
923.442	9401
923.55	9458
923.659	9428
923.767	9545
923.876	9359
923.984	9515
924.092	9393
924.201	9469
924.309	9397
924.417	9386
924.525	9374
924.633	9329
924.741	10090
924.849	9195
924.956	9325
925.064	9157
925.172	9138
925.279	9142
925.387	9264
925.494	9176
925.602	9359
925.709	9256
925.816	9127
925.924	9188
926.031	9302
926.138	9283
926.245	9294
926.352	9112
926.459	9332
926.566	9283
926.673	9192
926.779	8986
926.886	9062
926.993	8906
927.099	8845
927.206	8876
927.312	8887
927.419	9005
927.525	8998
927.631	8998
927.737	8766
927.843	8785
927.95	8731
928.056	8826
928.162	8727
928.267	8834
928.373	9405
928.479	8887
928.585	8724
928.69	8800
928.796	8788
928.901	8746
929.007	8651
929.112	8754
929.218	8731
929.323	8682
929.428	8617
929.533	8769
929.638	8621
929.743	8617
929.848	8617
929.953	8613
930.058	8590
930.163	8347
930.267	8355
930.372	8503
930.477	8457
930.581	8613
930.685	8526
930.79	8320
930.894	8389
930.998	8324
931.103	8469
931.207	8126
931.311	8035
931.415	8039
931.519	7818
931.623	7928
