Data from test_V78500241_2707.txt Node
Date: Fri Mar 25 14:52:33 CST 2022
User: usil
Spectrometer: V785-0024
Trigger mode: 0
Integration Time (sec): 4.000000E-1
Scans to average: 1
Nonlinearity correction enabled: false
Boxcar width: 0
Storing dark spectrum: false
XAxis mode: Wavelengths
Number of Pixels in Spectrum: 1024
>>>>>Begin Spectral Data<<<<<
801.071	22109
801.214	21953
801.356	21610
801.499	21629
801.641	21542
801.783	21408
801.926	21344
802.068	21485
802.211	21306
802.353	21173
802.496	20910
802.638	20796
802.78	20758
802.923	20819
803.065	20697
803.208	20743
803.35	20807
803.492	20880
803.635	21005
803.777	20758
803.919	20861
804.061	21028
804.204	20918
804.346	20571
804.488	20590
804.63	20788
804.773	20598
804.915	20659
805.057	20727
805.199	20598
805.341	20697
805.483	20811
805.626	20705
805.768	20587
805.91	20522
806.052	20689
806.194	20507
806.336	20663
806.478	20568
806.62	20579
806.762	20746
806.904	20845
807.046	21055
807.188	20971
807.33	20979
807.472	21100
807.614	20910
807.756	20823
807.898	20781
808.04	20693
808.182	20636
808.324	20629
808.465	20864
808.607	20891
808.749	20994
808.891	21013
809.033	21256
809.174	21154
809.316	20921
809.458	20963
809.6	21017
809.741	21032
809.883	21039
810.025	21180
810.166	21055
810.308	21157
810.45	21070
810.591	21009
810.733	20861
810.875	20830
811.016	20651
811.158	20750
811.299	20746
811.441	20838
811.582	20796
811.724	20773
811.865	20823
812.007	20705
812.148	20655
812.29	20800
812.431	20902
812.573	21024
812.714	21020
812.855	21184
812.997	21370
813.138	21473
813.279	21397
813.421	21279
813.562	21180
813.703	20857
813.845	20902
813.986	20708
814.127	20552
814.268	20324
814.41	20438
814.551	20206
814.692	20389
814.833	20161
814.974	20058
815.115	20404
815.256	20164
815.397	20221
815.539	20134
815.68	19963
815.821	20035
815.962	20039
816.103	20065
816.244	19997
816.385	19807
816.526	19799
816.666	19624
816.807	19388
816.948	19495
817.089	19624
817.23	19422
817.371	19415
817.512	19430
817.653	19495
817.793	19441
817.934	19426
818.075	19491
818.216	19472
818.356	19320
818.497	19263
818.638	19168
818.778	19171
818.919	19110
819.06	19118
819.2	19190
819.341	19339
819.481	19335
819.622	19506
819.762	19674
819.903	19601
820.043	19457
820.184	19358
820.324	19491
820.465	19548
820.605	19472
820.746	19415
820.886	19213
821.026	19384
821.167	19255
821.307	19335
821.447	19476
821.588	19324
821.728	19053
821.868	18901
822.008	18924
822.149	18814
822.289	18913
822.429	18608
822.569	18646
822.709	18528
822.849	18376
822.99	18277
823.13	18376
823.27	18376
823.41	18159
823.55	18121
823.69	18144
823.83	18110
823.97	18072
824.11	17908
824.25	17878
824.389	17897
824.529	17954
824.669	17889
824.809	18049
824.949	17942
825.089	18022
825.228	17870
825.368	17695
825.508	17691
825.648	17729
825.787	17726
825.927	17733
826.067	17589
826.206	17695
826.346	17699
826.485	17748
826.625	17585
826.765	17771
826.904	17707
827.044	17486
827.183	17535
827.323	17372
827.462	17436
827.601	17311
827.741	17337
827.88	17345
828.02	17284
828.159	17360
828.298	17330
828.437	17383
828.577	17307
828.716	17452
828.855	17246
828.994	17094
829.134	17147
829.273	17083
829.412	17136
829.551	17037
829.69	17166
829.829	17109
829.968	17261
830.107	17090
830.246	17162
830.385	17010
830.524	16987
830.663	16919
830.802	16812
830.941	16828
831.08	16687
831.219	16820
831.357	16831
831.496	16968
831.635	16736
831.774	16660
831.913	16717
832.051	16550
832.19	16489
832.329	16637
832.467	16402
832.606	16386
832.744	16341
832.883	16382
833.022	16352
833.16	16382
833.299	16440
833.437	16455
833.576	16527
833.714	16398
833.852	16474
833.991	16466
834.129	16656
834.267	16508
834.406	16546
834.544	16542
834.682	16485
834.821	16546
834.959	16618
835.097	16489
835.235	16656
835.373	16527
835.511	16599
835.65	16398
835.788	16413
835.926	16276
836.064	16181
836.202	16238
836.34	16455
836.478	16538
836.615	16409
836.753	16356
836.891	16523
837.029	16489
837.167	16382
837.305	16379
837.443	16310
837.58	16325
837.718	16466
837.856	16268
837.993	16276
838.131	16291
838.269	16280
838.406	16143
838.544	16177
838.681	16109
838.819	16036
838.956	15854
839.094	15953
839.231	15876
839.369	15854
839.506	16299
839.643	15964
839.781	15774
839.918	15728
840.055	15873
840.193	15823
840.33	15743
840.467	15713
840.604	15819
840.742	16029
840.879	15709
841.016	15705
841.153	15717
841.29	15888
841.427	15911
841.564	15941
841.701	15926
841.838	15789
841.975	15717
842.112	15739
842.249	15580
842.385	15618
842.522	15800
842.659	15595
842.796	15778
842.933	15618
843.069	15488
843.206	15511
843.343	15667
843.479	15618
843.616	15766
843.752	15466
843.889	15306
844.025	15690
844.162	15450
844.298	15530
844.435	15321
844.571	15310
844.708	15530
844.844	15572
844.98	15622
845.117	15538
845.253	15317
845.389	15336
845.525	15412
845.661	15340
845.798	15157
845.934	15241
846.07	15142
846.206	15203
846.342	15401
846.478	15283
846.614	15108
846.75	15017
846.886	14933
847.022	15142
847.158	14956
847.294	14944
847.429	15036
847.565	14868
847.701	15146
847.837	14762
847.972	14735
848.108	14800
848.244	14762
848.379	14621
848.515	14571
848.65	14602
848.786	14667
848.921	14587
849.057	14663
849.192	14625
849.328	14560
849.463	14621
849.598	14602
849.734	14518
849.869	14499
850.004	14286
850.14	14450
850.275	14370
850.41	14214
850.545	14301
850.68	14317
850.815	14370
850.95	14301
851.085	14488
851.22	14511
851.355	14332
851.49	14294
851.625	14358
851.76	14317
851.895	14225
852.03	14336
852.165	14313
852.299	14317
852.434	14476
852.569	14351
852.703	14442
852.838	14336
852.973	14484
853.107	14461
853.242	14294
853.376	14176
853.511	14103
853.645	14142
853.78	14347
853.914	14218
854.048	14199
854.183	14157
854.317	14271
854.451	14389
854.585	14191
854.72	14145
854.854	14301
854.988	14138
855.122	14256
855.256	14046
855.39	14267
855.524	14240
855.658	14225
855.792	14290
855.926	14229
856.06	14294
856.194	14313
856.327	14180
856.461	14195
856.595	14119
856.729	14145
856.862	14317
856.996	14271
857.13	14206
857.263	14336
857.397	14404
857.53	14202
857.664	14278
857.797	14305
857.931	14370
858.064	14290
858.197	14271
858.331	14206
858.464	14142
858.597	14088
858.731	14259
858.864	14214
858.997	14225
859.13	14202
859.263	14282
859.396	14305
859.529	14210
859.662	14256
859.795	14153
859.928	14214
860.061	14389
860.194	14351
860.327	14191
860.46	14225
860.592	14396
860.725	14446
860.858	14438
860.99	14233
861.123	14050
861.256	14081
861.388	14305
861.521	14746
861.653	14161
861.786	14031
861.918	14100
862.05	14092
862.183	14119
862.315	14313
862.447	14214
862.58	14206
862.712	14024
862.844	13989
862.976	14046
863.108	14031
863.24	14431
863.372	13906
863.504	13940
863.636	13974
863.768	14081
863.9	13944
864.032	13936
864.164	13940
864.296	14035
864.428	14134
864.559	14111
864.691	14073
864.823	14027
864.954	14100
865.086	13951
865.217	13978
865.349	13860
865.48	13974
865.612	13932
865.743	14130
865.875	13951
866.006	14027
866.137	13982
866.269	13982
866.4	14005
866.531	14016
866.662	14039
866.793	13932
866.924	13917
867.055	13959
867.186	13989
867.317	13887
867.448	13890
867.579	13978
867.71	13883
867.841	13902
867.972	14005
868.103	13974
868.233	13925
868.364	14016
868.495	14050
868.625	14221
868.756	14355
868.886	14191
869.017	14195
869.147	14343
869.278	14309
869.408	14278
869.539	14180
869.669	14252
869.799	14355
869.929	14499
870.06	14446
870.19	14545
870.32	14499
870.45	14530
870.58	14663
870.71	14754
870.84	14731
870.97	14674
871.1	14686
871.23	14777
871.36	14815
871.489	14617
871.619	14838
871.749	14845
871.879	14857
872.008	14971
872.138	14765
872.267	14868
872.397	14697
872.526	14682
872.656	14659
872.785	14636
872.915	14899
873.044	14906
873.173	14826
873.303	14902
873.432	15017
873.561	14952
873.69	14796
873.819	14944
873.948	14998
874.077	14948
874.206	14857
874.335	14864
874.464	15112
874.593	15161
874.722	15100
874.851	15199
874.979	15180
875.108	15169
875.237	15233
875.365	15135
875.494	15127
875.623	15268
875.751	15176
875.88	15233
876.008	15351
876.136	15477
876.265	15629
876.393	15819
876.521	15671
876.65	15774
876.778	15663
876.906	15511
877.034	15511
877.162	15641
877.29	15557
877.418	15625
877.546	15587
877.674	15618
877.802	15603
877.93	15610
878.058	15545
878.185	15454
878.313	15614
878.441	15564
878.568	15572
878.696	15603
878.824	15755
878.951	15720
879.079	15838
879.206	15895
879.333	15823
879.461	15694
879.588	15751
879.715	15812
879.842	15918
879.97	15663
880.097	15473
880.224	15340
880.351	15466
880.478	15462
880.605	15488
880.732	15420
880.859	15675
880.986	15408
881.112	15538
881.239	15302
881.366	15176
881.493	15241
881.619	15104
881.746	15127
881.872	15135
881.999	15055
882.125	15218
882.252	15188
882.378	15123
882.505	15222
882.631	15180
882.757	14956
882.883	14933
883.01	14937
883.136	14849
883.262	14838
883.388	14773
883.514	14986
883.64	14864
883.766	14971
883.892	14765
884.018	14800
884.143	14956
884.269	15070
884.395	14617
884.52	14678
884.646	14667
884.772	14617
884.897	14564
885.023	14712
885.148	14746
885.274	14826
885.399	14746
885.524	14659
885.65	14629
885.775	14670
885.9	14743
886.025	14785
886.15	14674
886.275	14533
886.4	14682
886.525	14522
886.65	14579
886.775	14648
886.9	14758
887.025	14868
887.149	14644
887.274	14503
887.399	14419
887.523	14427
887.648	14431
887.773	14393
887.897	14659
888.021	14533
888.146	14408
888.27	14537
888.395	14644
888.519	14667
888.643	14552
888.767	14545
888.891	14438
889.015	14305
889.139	14332
889.263	14347
889.387	14339
889.511	14454
889.635	14454
889.759	14362
889.883	14256
890.006	14434
890.13	14526
890.254	14229
890.377	14301
890.501	14256
890.624	14218
890.748	14172
890.871	14001
890.995	14020
891.118	13989
891.241	14077
891.364	14043
891.488	14142
891.611	14058
891.734	14016
891.857	14111
891.98	14138
892.103	14103
892.226	14073
892.349	14062
892.471	13925
892.594	14012
892.717	14031
892.839	14012
892.962	14050
893.085	14043
893.207	14035
893.33	13871
893.452	13963
893.575	14008
893.697	14081
893.819	14214
893.941	14210
894.064	14187
894.186	14058
894.308	14107
894.43	14164
894.552	14298
894.674	14199
894.796	14088
894.918	13993
895.04	14050
895.161	14218
895.283	14180
895.405	14058
895.526	14149
895.648	14084
895.769	14115
895.891	14161
896.012	14252
896.134	14313
896.255	14267
896.376	14229
896.498	14202
896.619	14256
896.74	14225
896.861	14305
896.982	14530
897.103	14739
897.224	14526
897.345	14434
897.466	14377
897.587	14457
897.708	14579
897.828	14511
897.949	14442
898.07	14454
898.19	14415
898.311	14625
898.431	14492
898.552	14530
898.672	14678
898.792	14606
898.913	14583
899.033	14454
899.153	14400
899.273	14301
899.393	14358
899.513	14427
899.633	14324
899.753	14370
899.873	14446
899.993	14488
900.113	14480
900.232	14374
900.352	14351
900.472	14362
900.591	14134
900.711	14237
900.83	14237
900.95	14423
901.069	14408
901.189	14237
901.308	14062
901.427	13894
901.546	13974
901.665	13955
901.784	13883
901.904	13917
902.023	13734
902.141	13643
902.26	13499
902.379	13552
902.498	13491
902.617	13422
902.735	13594
902.854	13499
902.973	13468
903.091	13259
903.21	13255
903.328	13194
903.446	13244
903.565	13171
903.683	13145
903.801	13034
903.919	13118
904.038	13175
904.156	12837
904.274	13046
904.392	12932
904.51	12916
904.627	12863
904.745	12962
904.863	13012
904.981	12688
905.098	12589
905.216	12601
905.334	12673
905.451	12506
905.569	12604
905.686	12669
905.803	12620
905.921	12528
906.038	12574
906.155	12483
906.272	12270
906.389	12315
906.506	12235
906.623	12171
906.74	12159
906.857	12068
906.974	12064
907.091	12194
907.208	12452
907.324	12201
907.441	12102
907.557	11980
907.674	11965
907.79	11874
907.907	11950
908.023	11958
908.139	11980
908.256	11920
908.372	11973
908.488	11843
908.604	11729
908.72	11668
908.836	11729
908.952	11729
909.068	11710
909.184	11946
909.3	11714
909.415	11722
909.531	11729
909.647	11589
909.762	11505
909.878	11425
909.993	11532
910.108	11425
910.224	11406
910.339	11410
910.454	11364
910.57	11353
910.685	11299
910.8	11592
910.915	11516
911.03	11448
911.145	11212
911.259	11193
911.374	11147
911.489	11136
911.604	11033
911.718	10923
911.833	11018
911.947	10854
912.062	10771
912.176	10911
912.291	10877
912.405	10949
912.519	11117
912.633	11128
912.748	11067
912.862	10915
912.976	10740
913.09	10637
913.204	10812
913.318	10869
913.431	10839
913.545	10877
913.659	10835
913.772	10793
913.886	10687
914	10717
914.113	10733
914.226	10782
914.34	10702
914.453	10603
914.566	10801
914.68	10603
914.793	10660
914.906	10436
915.019	10356
915.132	10462
915.245	10390
915.358	10478
915.47	10466
915.583	10493
915.696	10523
915.809	10599
915.921	10573
916.034	10447
916.146	10379
916.259	10424
916.371	10512
916.483	10474
916.595	10337
916.708	10375
916.82	10398
916.932	10417
917.044	10375
917.156	10363
917.268	10242
917.38	10306
917.491	10295
917.603	10295
917.715	10402
917.826	10390
917.938	10276
918.049	10204
918.161	10265
918.272	10413
918.384	10360
918.495	10318
918.606	10207
918.717	10112
918.828	10204
918.939	10253
919.05	10071
919.161	10166
919.272	10021
919.383	10059
919.494	10207
919.604	10409
919.715	10196
919.826	10185
919.936	10238
920.047	10291
920.157	10173
920.267	10436
920.378	10303
920.488	10207
920.598	10382
920.708	10565
920.818	10421
920.928	10409
921.038	10607
921.148	10561
921.258	10249
921.368	10185
921.477	10093
921.587	10071
921.697	9937
921.806	10112
921.916	9991
922.025	9804
922.134	9797
922.244	9797
922.353	9823
922.462	9713
922.571	9652
922.68	9511
922.789	9405
922.898	9458
923.007	9519
923.116	9500
923.224	9538
923.333	9504
923.442	9332
923.55	9389
923.659	9332
923.767	9386
923.876	9321
923.984	9370
924.092	9256
924.201	9291
924.309	9386
924.417	9336
924.525	9279
924.633	9302
924.741	10040
924.849	9119
924.956	9188
925.064	9161
925.172	9062
925.279	9081
925.387	9157
925.494	9104
925.602	9211
925.709	9230
925.816	9032
925.924	9123
926.031	9192
926.138	9211
926.245	9169
926.352	9116
926.459	9154
926.566	9283
926.673	9154
926.779	8994
926.886	8963
926.993	8826
927.099	8876
927.206	8777
927.312	8796
927.419	8849
927.525	8823
927.631	8872
927.737	8788
927.843	8712
927.95	8701
928.056	8712
928.162	8788
928.267	8826
928.373	9401
928.479	8792
928.585	8610
928.69	8708
928.796	8701
928.901	8663
929.007	8541
929.112	8644
929.218	8602
929.323	8610
929.428	8522
929.533	8712
929.638	8469
929.743	8469
929.848	8602
929.953	8575
930.058	8457
930.163	8351
930.267	8370
930.372	8492
930.477	8294
930.581	8450
930.685	8400
930.79	8218
930.894	8263
930.998	8252
931.103	8396
931.207	8008
931.311	7955
931.415	7932
931.519	7723
931.623	7746
