Data from test_V78500241_139.txt Node
Date: Fri Mar 25 14:34:41 CST 2022
User: usil
Spectrometer: V785-0024
Trigger mode: 0
Integration Time (sec): 4.000000E-1
Scans to average: 1
Nonlinearity correction enabled: false
Boxcar width: 0
Storing dark spectrum: false
XAxis mode: Wavelengths
Number of Pixels in Spectrum: 1024
>>>>>Begin Spectral Data<<<<<
801.071	30144
801.214	29999
801.356	29882
801.499	29661
801.641	29585
801.783	29710
801.926	29573
802.068	29414
802.211	29474
802.353	29341
802.496	29242
802.638	29368
802.78	29090
802.923	29086
803.065	29128
803.208	29105
803.35	29307
803.492	29398
803.635	29269
803.777	29284
803.919	29299
804.061	29832
804.204	29318
804.346	29280
804.488	29356
804.63	29387
804.773	29239
804.915	29471
805.057	29463
805.199	29570
805.341	29710
805.483	29764
805.626	29646
805.768	29524
805.91	29748
806.052	29828
806.194	29817
806.336	30121
806.478	30239
806.62	30159
806.762	30578
806.904	30661
807.046	31148
807.188	31362
807.33	31578
807.472	32046
807.614	32240
807.756	32746
807.898	33351
808.04	34226
808.182	35490
808.324	37050
808.465	38731
808.607	40599
808.749	42349
808.891	43438
809.033	43350
809.174	42209
809.316	40824
809.458	38575
809.6	36658
809.741	35185
809.883	34010
810.025	33283
810.166	32583
810.308	32237
810.45	31765
810.591	31369
810.733	31202
810.875	30814
811.016	30703
811.158	30490
811.299	30418
811.441	30414
811.582	30292
811.724	30205
811.865	30232
812.007	30205
812.148	30026
812.29	30216
812.431	30106
812.573	30266
812.714	30349
812.855	30334
812.997	30585
813.138	30410
813.279	30445
813.421	30308
813.562	30209
813.703	29954
813.845	29984
813.986	29608
814.127	29573
814.268	29303
814.41	29261
814.551	29098
814.692	29349
814.833	29178
814.974	29075
815.115	29193
815.256	28968
815.397	28999
815.539	28911
815.68	28862
815.821	28801
815.962	28782
816.103	28805
816.244	28607
816.385	28504
816.526	28424
816.666	28322
816.807	28109
816.948	28211
817.089	28230
817.23	28078
817.371	28226
817.512	28150
817.653	28162
817.793	27968
817.934	28169
818.075	28105
818.216	28120
818.356	27972
818.497	27975
818.638	27926
818.778	27663
818.919	27747
819.06	28006
819.2	27869
819.341	28101
819.481	28101
819.622	28059
819.762	28268
819.903	28082
820.043	28185
820.184	28143
820.324	27941
820.465	28139
820.605	28010
820.746	28048
820.886	27732
821.026	27911
821.167	27884
821.307	27907
821.447	27827
821.588	27614
821.728	27485
821.868	27359
822.008	27344
822.149	27329
822.289	27245
822.429	26929
822.569	26796
822.709	26876
822.849	26731
822.99	26765
823.13	26518
823.27	26564
823.41	26530
823.55	26434
823.69	26370
823.83	26442
823.97	26358
824.11	26286
824.25	26130
824.389	26107
824.529	26336
824.669	26267
824.809	26298
824.949	26313
825.089	26419
825.228	26286
825.368	25947
825.508	26008
825.648	25989
825.787	26103
825.927	26050
826.067	25944
826.206	25928
826.346	26100
826.485	26161
826.625	25936
826.765	26092
826.904	25951
827.044	25727
827.183	25723
827.323	25582
827.462	25685
827.601	25605
827.741	25635
827.88	25753
828.02	25506
828.159	25556
828.298	25613
828.437	25651
828.577	25586
828.716	25704
828.855	25411
828.994	25495
829.134	25304
829.273	25293
829.412	25206
829.551	25198
829.69	25301
829.829	25327
829.968	25396
830.107	25259
830.246	25331
830.385	25190
830.524	25145
830.663	25141
830.802	24882
830.941	24875
831.08	24772
831.219	24795
831.357	24844
831.496	25031
831.635	24772
831.774	24848
831.913	24837
832.051	24639
832.19	24646
832.329	24620
832.467	24623
832.606	24582
832.744	24654
832.883	24505
833.022	24547
833.16	24635
833.299	24730
833.437	24760
833.576	24951
833.714	25008
833.852	25198
833.991	25194
834.129	25247
834.267	25297
834.406	25369
834.544	25202
834.682	25072
834.821	24962
834.959	25050
835.097	24798
835.235	24894
835.373	24722
835.511	24730
835.65	24589
835.788	24540
835.926	24308
836.064	24273
836.202	24285
836.34	24369
836.478	24342
836.615	24247
836.753	24266
836.891	24330
837.029	24372
837.167	24315
837.305	24292
837.443	24041
837.58	23984
837.718	24216
837.856	24095
837.993	24068
838.131	24015
838.269	23889
838.406	23954
838.544	23832
838.681	23771
838.819	23676
838.956	23436
839.094	23463
839.231	23493
839.369	23615
839.506	23840
839.643	23695
839.781	23463
839.918	23417
840.055	23524
840.193	23421
840.33	23341
840.467	23356
840.604	23379
840.742	23539
840.879	23277
841.016	23143
841.153	23223
841.29	23417
841.427	23098
841.564	23356
841.701	23223
841.838	23273
841.975	23269
842.112	23052
842.249	23083
842.385	23052
842.522	23231
842.659	23067
842.796	23147
842.933	23162
843.069	23102
843.206	23044
843.343	23189
843.479	23014
843.616	23094
843.752	22999
843.889	23079
844.025	23041
844.162	22961
844.298	23178
844.435	23079
844.571	23277
844.708	23512
844.844	23832
844.98	24026
845.117	24452
845.253	24738
845.389	25742
845.525	27717
845.661	30913
845.798	34946
845.934	38183
846.07	39233
846.206	38537
846.342	36034
846.478	32054
846.614	28588
846.75	25959
846.886	24878
847.022	24064
847.158	23387
847.294	23044
847.429	22949
847.565	22786
847.701	22877
847.837	22207
847.972	22177
848.108	22303
848.244	22318
848.379	22044
848.515	21987
848.65	21918
848.786	21907
848.921	21873
849.057	22036
849.192	21956
849.328	21842
849.463	21812
849.598	21751
849.734	21774
849.869	21618
850.004	21614
850.14	21614
850.275	21504
850.41	21507
850.545	21564
850.68	21523
850.815	21622
850.95	21534
851.085	21709
851.22	21667
851.355	21435
851.49	21523
851.625	21405
851.76	21500
851.895	21389
852.03	21313
852.165	21549
852.299	21545
852.434	21675
852.569	21591
852.703	21538
852.838	21523
852.973	21580
853.107	21701
853.242	21507
853.376	21389
853.511	21386
853.645	21492
853.78	21572
853.914	21553
854.048	21553
854.183	21534
854.317	21519
854.451	21755
854.585	21679
854.72	21504
854.854	21755
854.988	21431
855.122	21519
855.256	21233
855.39	21397
855.524	21538
855.658	21306
855.792	21336
855.926	21378
856.06	21340
856.194	21382
856.327	21317
856.461	21214
856.595	21203
856.729	21359
856.862	21306
856.996	21389
857.13	21287
857.263	21363
857.397	21374
857.53	21348
857.664	21359
857.797	21287
857.931	21317
858.064	21230
858.197	21344
858.331	21218
858.464	21165
858.597	21112
858.731	21154
858.864	21127
858.997	21161
859.13	21165
859.263	21241
859.396	21157
859.529	21112
859.662	21119
859.795	21161
859.928	21116
860.061	21218
860.194	21332
860.327	21089
860.46	21112
860.592	21268
860.725	21150
860.858	21218
860.99	21108
861.123	20941
861.256	21036
861.388	21157
861.521	21869
861.653	21074
861.786	20948
861.918	21070
862.05	21036
862.183	21161
862.315	21237
862.447	21298
862.58	21249
862.712	21013
862.844	20762
862.976	20910
863.108	20819
863.24	21241
863.372	20823
863.504	20876
863.636	20804
863.768	20887
863.9	20826
864.032	20788
864.164	20819
864.296	20785
864.428	20823
864.559	20853
864.691	20842
864.823	20800
864.954	20769
865.086	20712
865.217	20750
865.349	20674
865.48	20762
865.612	20762
865.743	20735
865.875	20727
866.006	20659
866.137	20655
866.269	20697
866.4	20621
866.531	20613
866.662	20651
866.793	20727
866.924	20689
867.055	20697
867.186	20606
867.317	20522
867.448	20503
867.579	20697
867.71	20598
867.841	20545
867.972	20617
868.103	20598
868.233	20689
868.364	20682
868.495	20693
868.625	20849
868.756	20956
868.886	20804
869.017	20868
869.147	20994
869.278	21074
869.408	20994
869.539	20849
869.669	20937
869.799	20948
869.929	20914
870.06	20998
870.19	21138
870.32	21165
870.45	21363
870.58	21195
870.71	21439
870.84	21401
870.97	21252
871.1	21291
871.23	21382
871.36	21553
871.489	21355
871.619	21538
871.749	21473
871.879	21549
872.008	21599
872.138	21652
872.267	21660
872.397	21458
872.526	21401
872.656	21424
872.785	21481
872.915	21610
873.044	21850
873.173	21679
873.303	21679
873.432	21705
873.561	21827
873.69	21667
873.819	21701
873.948	21785
874.077	21781
874.206	21686
874.335	21751
874.464	21934
874.593	21922
874.722	22029
874.851	22185
874.979	22120
875.108	22128
875.237	22177
875.365	22032
875.494	22025
875.623	22230
875.751	22055
875.88	22325
876.008	22314
876.136	22424
876.265	22675
876.393	22862
876.521	22930
876.65	22915
876.778	22809
876.906	22759
877.034	22801
877.162	22946
877.29	22736
877.418	22999
877.546	22930
877.674	23181
877.802	23151
877.93	23197
878.058	23387
878.185	23482
878.313	23619
878.441	23813
878.568	23980
878.696	24346
878.824	24688
878.951	25403
879.079	26492
879.206	27633
879.333	28698
879.461	29862
879.588	30384
879.715	30395
879.842	29931
879.97	28805
880.097	27439
880.224	26526
880.351	25928
880.478	25312
880.605	24901
880.732	24837
880.859	24798
880.986	24578
881.112	24578
881.239	24243
881.366	24125
881.493	24087
881.619	23916
881.746	24125
881.872	24117
881.999	24038
882.125	24034
882.252	24171
882.378	24133
882.505	24311
882.631	24136
882.757	23954
882.883	23984
883.01	24030
883.136	23965
883.262	23794
883.388	23726
883.514	23893
883.64	23889
883.766	23855
883.892	23775
884.018	23619
884.143	23843
884.269	24003
884.395	23752
884.52	23630
884.646	23627
884.772	23585
884.897	23493
885.023	23676
885.148	23634
885.274	23653
885.399	23589
885.524	23528
885.65	23414
885.775	23269
885.9	23208
886.025	23250
886.15	23193
886.275	22881
886.4	22721
886.525	22938
886.65	22637
886.775	22641
886.9	22649
887.025	22782
887.149	22295
887.274	22306
887.399	22192
887.523	22158
887.648	22002
887.773	22025
887.897	22101
888.021	21972
888.146	21838
888.27	22010
888.395	22070
888.519	21907
888.643	21907
888.767	21816
888.891	21599
889.015	21530
889.139	21599
889.263	21397
889.387	21564
889.511	21595
889.635	21583
889.759	21249
889.883	21435
890.006	21382
890.13	21408
890.254	21089
890.377	21306
890.501	21005
890.624	20998
890.748	21131
890.871	20956
890.995	20864
891.118	20804
891.241	20769
891.364	20781
891.488	20807
891.611	20731
891.734	20724
891.857	20746
891.98	20655
892.103	20640
892.226	20682
892.349	20617
892.471	20469
892.594	20556
892.717	20556
892.839	20499
892.962	20442
893.085	20522
893.207	20419
893.33	20259
893.452	20473
893.575	20442
893.697	20358
893.819	20526
893.941	20583
894.064	20457
894.186	20252
894.308	20290
894.43	20332
894.552	20446
894.674	20351
894.796	20100
894.918	20229
895.04	20282
895.161	20263
895.283	20298
895.405	20199
895.526	20256
895.648	20183
895.769	20172
895.891	20294
896.012	20206
896.134	20339
896.255	20202
896.376	20164
896.498	20210
896.619	20221
896.74	20119
896.861	20347
896.982	20499
897.103	20495
897.224	20484
897.345	20381
897.466	20389
897.587	20370
897.708	20339
897.828	20480
897.949	20199
898.07	20206
898.19	20256
898.311	20415
898.431	20336
898.552	20275
898.672	20233
898.792	20381
898.913	20168
899.033	20126
899.153	20248
899.273	19978
899.393	19982
899.513	20134
899.633	20176
899.753	20024
899.873	19986
899.993	20195
900.113	19974
900.232	20069
900.352	19986
900.472	19833
900.591	19906
900.711	19845
900.83	19803
900.95	19959
901.069	19993
901.189	19685
901.308	19666
901.427	19419
901.546	19438
901.665	19453
901.784	19430
901.904	19320
902.023	19076
902.141	18928
902.26	18886
902.379	19027
902.498	18844
902.617	18745
902.735	18875
902.854	18791
902.973	18696
903.091	18627
903.21	18509
903.328	18528
903.446	18342
903.565	18239
903.683	18285
903.801	18136
903.919	18171
904.038	18102
904.156	17977
904.274	18064
904.392	17954
904.51	17999
904.627	17901
904.745	17927
904.863	18041
904.981	17752
905.098	17585
905.216	17764
905.334	17699
905.451	17600
905.569	17562
905.686	17741
905.803	17581
905.921	17471
906.038	17520
906.155	17417
906.272	17318
906.389	17296
906.506	17086
906.623	17075
906.74	17109
906.857	16976
906.974	16987
907.091	17261
907.208	17223
907.324	17075
907.441	16862
907.557	16919
907.674	16923
907.79	16733
907.907	16706
908.023	16752
908.139	16797
908.256	16748
908.372	16577
908.488	16645
908.604	16538
908.72	16352
908.836	16440
908.952	16459
909.068	16436
909.184	16478
909.3	16375
909.415	16291
909.531	16382
909.647	16188
909.762	16162
909.878	16051
909.993	16219
910.108	16105
910.224	16093
910.339	16150
910.454	15991
910.57	15975
910.685	15915
910.8	16139
910.915	16097
911.03	15956
911.145	15770
911.259	15728
911.374	15648
911.489	15682
911.604	15652
911.718	15397
911.833	15458
911.947	15393
912.062	15317
912.176	15439
912.291	15515
912.405	15469
912.519	15580
912.633	15652
912.748	15477
912.862	15439
912.976	15344
913.09	15222
913.204	15291
913.318	15332
913.431	15329
913.545	15408
913.659	15382
913.772	15245
913.886	15146
914	15085
914.113	15222
914.226	15226
914.34	15077
914.453	14910
914.566	15062
914.68	14948
914.793	15089
914.906	14826
915.019	14621
915.132	14716
915.245	14674
915.358	14800
915.47	14746
915.583	14724
915.696	14720
915.809	14941
915.921	14876
916.034	14655
916.146	14621
916.259	14556
916.371	14777
916.483	14762
916.595	14556
916.708	14610
916.82	14545
916.932	14594
917.044	14644
917.156	14560
917.268	14381
917.38	14484
917.491	14454
917.603	14396
917.715	14484
917.826	14423
917.938	14317
918.049	14187
918.161	14267
918.272	14381
918.384	14381
918.495	14259
918.606	14248
918.717	14005
918.828	14191
918.939	14210
919.05	13978
919.161	14027
919.272	13898
919.383	13970
919.494	14096
919.604	14271
919.715	14100
919.826	14123
919.936	14016
920.047	14130
920.157	14058
920.267	14210
920.378	14058
920.488	14027
920.598	14218
920.708	14355
920.818	14130
920.928	14126
921.038	14275
921.148	14286
921.258	14024
921.368	13928
921.477	13765
921.587	13746
921.697	13662
921.806	13727
921.916	13689
922.025	13563
922.134	13400
922.244	13335
922.353	13407
922.462	13285
922.571	13251
922.68	13076
922.789	13088
922.898	13103
923.007	13061
923.116	13126
923.224	13019
923.333	13019
923.442	12954
923.55	12890
923.659	12985
923.767	12924
923.876	12764
923.984	12856
924.092	12753
924.201	12825
924.309	12707
924.417	12772
924.525	12795
924.633	12711
924.741	13643
924.849	12525
924.956	12719
925.064	12574
925.172	12479
925.279	12483
925.387	12479
925.494	12551
925.602	12650
925.709	12555
925.816	12475
925.924	12490
926.031	12525
926.138	12475
926.245	12467
926.352	12418
926.459	12536
926.566	12566
926.673	12353
926.779	12251
926.886	12152
926.993	12148
927.099	12133
927.206	12060
927.312	12133
927.419	12197
927.525	12076
927.631	12098
927.737	12030
927.843	11923
927.95	11794
928.056	11889
928.162	11927
928.267	11965
928.373	12486
928.479	11954
928.585	11794
928.69	11912
928.796	11920
928.901	11752
929.007	11554
929.112	11775
929.218	11836
929.323	11680
929.428	11680
929.533	11741
929.638	11661
929.743	11589
929.848	11695
929.953	11520
930.058	11459
930.163	11356
930.267	11395
930.372	11471
930.477	11311
930.581	11528
930.685	11421
930.79	11220
930.894	11288
930.998	11151
931.103	11246
931.207	10938
931.311	10885
931.415	10763
931.519	10641
931.623	10630
