Data from test_V78500241_1797.txt Node
Date: Fri Mar 25 14:46:13 CST 2022
User: usil
Spectrometer: V785-0024
Trigger mode: 0
Integration Time (sec): 4.000000E-1
Scans to average: 1
Nonlinearity correction enabled: false
Boxcar width: 0
Storing dark spectrum: false
XAxis mode: Wavelengths
Number of Pixels in Spectrum: 1024
>>>>>Begin Spectral Data<<<<<
801.071	22246
801.214	22051
801.356	21873
801.499	21766
801.641	21572
801.783	21469
801.926	21523
802.068	21469
802.211	21325
802.353	21332
802.496	21173
802.638	21051
802.78	21051
802.923	20998
803.065	20845
803.208	20804
803.35	20842
803.492	20842
803.635	20971
803.777	20918
803.919	20979
804.061	21127
804.204	20842
804.346	20891
804.488	20796
804.63	20796
804.773	20693
804.915	20887
805.057	20891
805.199	20712
805.341	20804
805.483	20921
805.626	20823
805.768	20674
805.91	20800
806.052	20750
806.194	20712
806.336	21005
806.478	20678
806.62	20773
806.762	20853
806.904	21020
807.046	21192
807.188	21051
807.33	20944
807.472	21104
807.614	21055
807.756	21100
807.898	20876
808.04	20765
808.182	20842
808.324	20861
808.465	20849
808.607	21169
808.749	21146
808.891	21214
809.033	21233
809.174	21218
809.316	21135
809.458	21199
809.6	21127
809.741	21291
809.883	21233
810.025	21393
810.166	21424
810.308	21317
810.45	21233
810.591	21131
810.733	21070
810.875	21096
811.016	20891
811.158	20743
811.299	21039
811.441	21051
811.582	21039
811.724	20918
811.865	20891
812.007	20861
812.148	20845
812.29	21005
812.431	21154
812.573	21131
812.714	21260
812.855	21355
812.997	21568
813.138	21629
813.279	21557
813.421	21473
813.562	21405
813.703	21218
813.845	21085
813.986	20800
814.127	20720
814.268	20552
814.41	20636
814.551	20469
814.692	20556
814.833	20549
814.974	20545
815.115	20541
815.256	20313
815.397	20324
815.539	20229
815.68	20290
815.821	20195
815.962	20187
816.103	20115
816.244	20050
816.385	20008
816.526	19925
816.666	19849
816.807	19635
816.948	19734
817.089	19685
817.23	19677
817.371	19590
817.512	19609
817.653	19719
817.793	19548
817.934	19559
818.075	19662
818.216	19715
818.356	19495
818.497	19472
818.638	19304
818.778	19426
818.919	19335
819.06	19225
819.2	19346
819.341	19556
819.481	19540
819.622	19635
819.762	19917
819.903	19761
820.043	19776
820.184	19533
820.324	19613
820.465	19632
820.605	19578
820.746	19696
820.886	19426
821.026	19586
821.167	19556
821.307	19586
821.447	19594
821.588	19502
821.728	19206
821.868	19217
822.008	19031
822.149	19046
822.289	18958
822.429	18726
822.569	18612
822.709	18764
822.849	18437
822.99	18547
823.13	18509
823.27	18410
823.41	18388
823.55	18281
823.69	18403
823.83	18315
823.97	18273
824.11	18041
824.25	18087
824.389	18095
824.529	18091
824.669	18117
824.809	18174
824.949	18235
825.089	18190
825.228	18034
825.368	17916
825.508	17824
825.648	18011
825.787	17878
825.927	18041
826.067	17870
826.206	17828
826.346	17870
826.485	17851
826.625	17863
826.765	17946
826.904	17878
827.044	17600
827.183	17486
827.323	17581
827.462	17703
827.601	17592
827.741	17471
827.88	17539
828.02	17452
828.159	17535
828.298	17539
828.437	17589
828.577	17524
828.716	17733
828.855	17509
828.994	17307
829.134	17315
829.273	17284
829.412	17269
829.551	17307
829.69	17296
829.829	17433
829.968	17410
830.107	17391
830.246	17277
830.385	17364
830.524	17265
830.663	17048
830.802	16991
830.941	16946
831.08	16915
831.219	16957
831.357	16968
831.496	17136
831.635	16866
831.774	16850
831.913	16816
832.051	16820
832.19	16721
832.329	16786
832.467	16641
832.606	16622
832.744	16554
832.883	16607
833.022	16679
833.16	16721
833.299	16573
833.437	16713
833.576	16713
833.714	16706
833.852	16698
833.991	16698
834.129	16744
834.267	16793
834.406	16683
834.544	16702
834.682	16698
834.821	16721
834.959	16858
835.097	16634
835.235	16744
835.373	16599
835.511	16687
835.65	16656
835.788	16478
835.926	16588
836.064	16390
836.202	16382
836.34	16550
836.478	16744
836.615	16474
836.753	16584
836.891	16744
837.029	16672
837.167	16554
837.305	16470
837.443	16550
837.58	16409
837.718	16516
837.856	16443
837.993	16348
838.131	16413
838.269	16303
838.406	16459
838.544	16367
838.681	16185
838.819	16150
838.956	15922
839.094	16029
839.231	15998
839.369	16116
839.506	16474
839.643	16116
839.781	16063
839.918	15918
840.055	16013
840.193	16006
840.33	16010
840.467	16006
840.604	16036
840.742	16230
840.879	15911
841.016	15926
841.153	15842
841.29	16093
841.427	16040
841.564	16074
841.701	16063
841.838	15953
841.975	15915
842.112	16025
842.249	15899
842.385	15766
842.522	16010
842.659	15854
842.796	15701
842.933	15793
843.069	15781
843.206	15736
843.343	15827
843.479	15850
843.616	15857
843.752	15629
843.889	15545
844.025	15774
844.162	15511
844.298	15625
844.435	15625
844.571	15500
844.708	15682
844.844	15770
844.98	15606
845.117	15675
845.253	15466
845.389	15477
845.525	15477
845.661	15443
845.798	15389
845.934	15382
846.07	15386
846.206	15439
846.342	15450
846.478	15310
846.614	15150
846.75	15097
846.886	15184
847.022	15287
847.158	15214
847.294	15127
847.429	15214
847.565	15150
847.701	15355
847.837	14861
847.972	14804
848.108	14975
848.244	14948
848.379	14727
848.515	14735
848.65	14705
848.786	14762
848.921	14781
849.057	14914
849.192	14735
849.328	14826
849.463	14781
849.598	14716
849.734	14796
849.869	14686
850.004	14579
850.14	14530
850.275	14499
850.41	14404
850.545	14495
850.68	14503
850.815	14473
850.95	14495
851.085	14735
851.22	14571
851.355	14514
851.49	14347
851.625	14511
851.76	14469
851.895	14495
852.03	14358
852.165	14533
852.299	14533
852.434	14625
852.569	14526
852.703	14537
852.838	14564
852.973	14667
853.107	14674
853.242	14476
853.376	14412
853.511	14214
853.645	14377
853.78	14488
853.914	14446
854.048	14301
854.183	14309
854.317	14431
854.451	14552
854.585	14256
854.72	14320
854.854	14366
854.988	14355
855.122	14400
855.256	14218
855.39	14362
855.524	14434
855.658	14419
855.792	14442
855.926	14362
856.06	14454
856.194	14396
856.327	14381
856.461	14294
856.595	14282
856.729	14339
856.862	14427
856.996	14484
857.13	14556
857.263	14438
857.397	14503
857.53	14389
857.664	14431
857.797	14442
857.931	14499
858.064	14518
858.197	14492
858.331	14355
858.464	14358
858.597	14317
858.731	14324
858.864	14404
858.997	14396
859.13	14336
859.263	14434
859.396	14514
859.529	14324
859.662	14332
859.795	14320
859.928	14404
860.061	14549
860.194	14644
860.327	14381
860.46	14415
860.592	14454
860.725	14617
860.858	14499
860.99	14412
861.123	14355
861.256	14225
861.388	14374
861.521	15089
861.653	14221
861.786	14199
861.918	14244
862.05	14210
862.183	14336
862.315	14415
862.447	14480
862.58	14339
862.712	14130
862.844	14164
862.976	14248
863.108	14149
863.24	14560
863.372	14039
863.504	14103
863.636	14157
863.768	14153
863.9	14119
864.032	14027
864.164	14092
864.296	14199
864.428	14275
864.559	14183
864.691	14218
864.823	14248
864.954	14157
865.086	14202
865.217	14145
865.349	14069
865.48	14111
865.612	14180
865.743	14259
865.875	14119
866.006	13970
866.137	14138
866.269	14161
866.4	14100
866.531	14123
866.662	14096
866.793	14050
866.924	14001
867.055	14081
867.186	14142
867.317	14012
867.448	14016
867.579	14069
867.71	14050
867.841	14092
867.972	14126
868.103	14084
868.233	14202
868.364	14145
868.495	14191
868.625	14374
868.756	14530
868.886	14381
869.017	14374
869.147	14556
869.278	14431
869.408	14309
869.539	14484
869.669	14431
869.799	14526
869.929	14571
870.06	14571
870.19	14762
870.32	14598
870.45	14731
870.58	14788
870.71	14925
870.84	14902
870.97	14902
871.1	14697
871.23	14960
871.36	15005
871.489	14929
871.619	14937
871.749	15047
871.879	14982
872.008	15100
872.138	15028
872.267	14899
872.397	14838
872.526	14773
872.656	14724
872.785	14868
872.915	14925
873.044	15112
873.173	15077
873.303	15093
873.432	15070
873.561	15055
873.69	14979
873.819	15116
873.948	15070
874.077	15028
874.206	14975
874.335	15058
874.464	15241
874.593	15378
874.722	15241
874.851	15291
874.979	15313
875.108	15382
875.237	15279
875.365	15249
875.494	15313
875.623	15348
875.751	15378
875.88	15443
876.008	15545
876.136	15652
876.265	15698
876.393	15922
876.521	15808
876.65	15812
876.778	15846
876.906	15762
877.034	15625
877.162	15808
877.29	15667
877.418	15774
877.546	15736
877.674	15770
877.802	15705
877.93	15770
878.058	15774
878.185	15720
878.313	15789
878.441	15778
878.568	15587
878.696	15667
878.824	15663
878.951	15842
879.079	15945
879.206	16029
879.333	15873
879.461	15797
879.588	15918
879.715	15983
879.842	16067
879.97	15865
880.097	15561
880.224	15637
880.351	15606
880.478	15675
880.605	15595
880.732	15587
880.859	15838
880.986	15652
881.112	15648
881.239	15542
881.366	15416
881.493	15313
881.619	15214
881.746	15332
881.872	15329
881.999	15233
882.125	15283
882.252	15256
882.378	15374
882.505	15310
882.631	15199
882.757	15089
882.883	15195
883.01	15222
883.136	15066
883.262	15017
883.388	14910
883.514	15047
883.64	15123
883.766	15077
883.892	14823
884.018	14876
884.143	15051
884.269	15154
884.395	14842
884.52	14670
884.646	14899
884.772	14746
884.897	14632
885.023	14762
885.148	14914
885.274	14929
885.399	14842
885.524	14769
885.65	14887
885.775	14899
885.9	14731
886.025	14948
886.15	14773
886.275	14708
886.4	14754
886.525	14765
886.65	14610
886.775	14800
886.9	15055
887.025	15028
887.149	14727
887.274	14667
887.399	14674
887.523	14606
887.648	14571
887.773	14537
887.897	14712
888.021	14686
888.146	14632
888.27	14731
888.395	14743
888.519	14579
888.643	14769
888.767	14758
888.891	14526
889.015	14476
889.139	14374
889.263	14385
889.387	14552
889.511	14750
889.635	14613
889.759	14499
889.883	14408
890.006	14488
890.13	14625
890.254	14431
890.377	14415
890.501	14252
890.624	14252
890.748	14324
890.871	14210
890.995	14077
891.118	14065
891.241	14187
891.364	14187
891.488	14320
891.611	14157
891.734	14221
891.857	14206
891.98	14176
892.103	14347
892.226	14210
892.349	14206
892.471	14111
892.594	14149
892.717	14195
892.839	14191
892.962	14088
893.085	14138
893.207	14145
893.33	14119
893.452	14046
893.575	14263
893.697	14058
893.819	14275
893.941	14309
894.064	14446
894.186	14142
894.308	14073
894.43	14301
894.552	14396
894.674	14415
894.796	14187
894.918	14161
895.04	14164
895.161	14206
895.283	14294
895.405	14172
895.526	14210
895.648	14218
895.769	14305
895.891	14309
896.012	14385
896.134	14351
896.255	14339
896.376	14351
896.498	14328
896.619	14389
896.74	14404
896.861	14396
896.982	14632
897.103	14792
897.224	14632
897.345	14549
897.466	14438
897.587	14606
897.708	14682
897.828	14686
897.949	14606
898.07	14415
898.19	14552
898.311	14788
898.431	14613
898.552	14621
898.672	14765
898.792	14705
898.913	14819
899.033	14708
899.153	14537
899.273	14393
899.393	14575
899.513	14484
899.633	14632
899.753	14537
899.873	14499
899.993	14556
900.113	14613
900.232	14541
900.352	14518
900.472	14590
900.591	14309
900.711	14511
900.83	14370
900.95	14514
901.069	14484
901.189	14381
901.308	14119
901.427	14039
901.546	14164
901.665	14096
901.784	14035
901.904	13909
902.023	13928
902.141	13662
902.26	13636
902.379	13738
902.498	13578
902.617	13620
902.735	13704
902.854	13556
902.973	13571
903.091	13415
903.21	13373
903.328	13308
903.446	13316
903.565	13209
903.683	13327
903.801	13175
903.919	13175
904.038	13232
904.156	13038
904.274	13149
904.392	12981
904.51	13095
904.627	12970
904.745	13084
904.863	13145
904.981	12840
905.098	12749
905.216	12722
905.334	12779
905.451	12741
905.569	12768
905.686	12798
905.803	12741
905.921	12532
906.038	12616
906.155	12555
906.272	12475
906.389	12509
906.506	12308
906.623	12296
906.74	12369
906.857	12228
906.974	12251
907.091	12369
907.208	12521
907.324	12391
907.441	12228
907.557	12167
907.674	12041
907.79	12060
907.907	12022
908.023	12083
908.139	12155
908.256	11996
908.372	11984
908.488	11855
908.604	11878
908.72	11817
908.836	11870
908.952	11794
909.068	11775
909.184	11980
909.3	11775
909.415	11908
909.531	11802
909.647	11501
909.762	11657
909.878	11539
909.993	11623
910.108	11528
910.224	11562
910.339	11653
910.454	11532
910.57	11455
910.685	11459
910.8	11684
910.915	11653
911.03	11505
911.145	11254
911.259	11337
911.374	11318
911.489	11204
911.604	11174
911.718	11155
911.833	11006
911.947	10930
912.062	10847
912.176	11052
912.291	11094
912.405	11003
912.519	11223
912.633	11212
912.748	11105
912.862	11006
912.976	10919
913.09	10839
913.204	10805
913.318	10949
913.431	11029
913.545	11056
913.659	10972
913.772	10919
913.886	10816
914	10869
914.113	10889
914.226	10908
914.34	10877
914.453	10752
914.566	10843
914.68	10679
914.793	10717
914.906	10603
915.019	10516
915.132	10500
915.245	10500
915.358	10607
915.47	10569
915.583	10599
915.696	10584
915.809	10714
915.921	10683
916.034	10451
916.146	10516
916.259	10519
916.371	10580
916.483	10622
916.595	10432
916.708	10558
916.82	10394
916.932	10436
917.044	10470
917.156	10409
917.268	10352
917.38	10451
917.491	10329
917.603	10367
917.715	10466
917.826	10478
917.938	10413
918.049	10299
918.161	10360
918.272	10497
918.384	10512
918.495	10413
918.606	10287
918.717	10265
918.828	10215
918.939	10299
919.05	10230
919.161	10242
919.272	10051
919.383	10147
919.494	10310
919.604	10481
919.715	10295
919.826	10109
919.936	10242
920.047	10360
920.157	10230
920.267	10497
920.378	10325
920.488	10246
920.598	10550
920.708	10565
920.818	10436
920.928	10489
921.038	10641
921.148	10573
921.258	10322
921.368	10219
921.477	10128
921.587	10116
921.697	9934
921.806	10242
921.916	10044
922.025	9915
922.134	9869
922.244	9831
922.353	9857
922.462	9724
922.571	9671
922.68	9526
922.789	9538
922.898	9572
923.007	9492
923.116	9625
923.224	9481
923.333	9496
923.442	9363
923.55	9355
923.659	9386
923.767	9545
923.876	9355
923.984	9458
924.092	9378
924.201	9412
924.309	9355
924.417	9397
924.525	9321
924.633	9321
924.741	10230
924.849	9150
924.956	9306
925.064	9180
925.172	9108
925.279	9097
925.387	9176
925.494	9195
925.602	9317
925.709	9336
925.816	9074
925.924	9226
926.031	9291
926.138	9150
926.245	9268
926.352	9074
926.459	9226
926.566	9260
926.673	9112
926.779	9028
926.886	9001
926.993	8864
927.099	8941
927.206	8834
927.312	8899
927.419	8925
927.525	8819
927.631	8918
927.737	8838
927.843	8823
927.95	8667
928.056	8724
928.162	8769
928.267	8868
928.373	9473
928.479	8872
928.585	8701
928.69	8720
928.796	8766
928.901	8686
929.007	8549
929.112	8693
929.218	8701
929.323	8598
929.428	8602
929.533	8773
929.638	8549
929.743	8587
929.848	8632
929.953	8571
930.058	8434
930.163	8408
930.267	8389
930.372	8583
930.477	8320
930.581	8617
930.685	8434
930.79	8294
930.894	8339
930.998	8282
931.103	8454
931.207	8145
931.311	8012
931.415	7989
931.519	7833
931.623	7868
