Data from test_V78500241_507.txt Node
Date: Fri Mar 25 14:37:15 CST 2022
User: usil
Spectrometer: V785-0024
Trigger mode: 0
Integration Time (sec): 4.000000E-1
Scans to average: 1
Nonlinearity correction enabled: false
Boxcar width: 0
Storing dark spectrum: false
XAxis mode: Wavelengths
Number of Pixels in Spectrum: 1024
>>>>>Begin Spectral Data<<<<<
801.071	26792
801.214	26960
801.356	26560
801.499	26670
801.641	26271
801.783	26419
801.926	26355
802.068	26183
802.211	26161
802.353	26031
802.496	25799
802.638	25883
802.78	26073
802.923	25826
803.065	25681
803.208	25803
803.35	25651
803.492	25852
803.635	25921
803.777	25742
803.919	26008
804.061	26039
804.204	25841
804.346	25712
804.488	25868
804.63	25769
804.773	25791
804.915	25871
805.057	25875
805.199	25704
805.341	25765
805.483	25860
805.626	25879
805.768	25719
805.91	25841
806.052	25982
806.194	25635
806.336	25928
806.478	25833
806.62	25921
806.762	26161
806.904	26084
807.046	26503
807.188	26495
807.33	26537
807.472	26598
807.614	26587
807.756	26590
807.898	26533
808.04	26526
808.182	26876
808.324	27096
808.465	27275
808.607	27789
808.749	28101
808.891	28318
809.033	28451
809.174	28120
809.316	27705
809.458	27622
809.6	27237
809.741	27161
809.883	26819
810.025	27009
810.166	26895
810.308	26636
810.45	26571
810.591	26655
810.733	26351
810.875	26396
811.016	26100
811.158	26092
811.299	26412
811.441	26465
811.582	26305
811.724	26218
811.865	26065
812.007	26088
812.148	26107
812.29	26202
812.431	26290
812.573	26408
812.714	26446
812.855	26514
812.997	26568
813.138	26796
813.279	26682
813.421	26648
813.562	26560
813.703	26412
813.845	26282
813.986	25974
814.127	25837
814.268	25723
814.41	25658
814.551	25582
814.692	25807
814.833	25643
814.974	25620
815.115	25647
815.256	25426
815.397	25567
815.539	25518
815.68	25316
815.821	25339
815.962	25369
816.103	25331
816.244	25251
816.385	25034
816.526	24905
816.666	24768
816.807	24856
816.948	24905
817.089	24745
817.23	24749
817.371	24734
817.512	24703
817.653	24623
817.793	24684
817.934	24707
818.075	24768
818.216	24711
818.356	24658
818.497	24540
818.638	24372
818.778	24429
818.919	24429
819.06	24403
819.2	24547
819.341	24532
819.481	24509
819.622	24768
819.762	24932
819.903	24871
820.043	24677
820.184	24757
820.324	24677
820.465	24825
820.605	24669
820.746	24513
820.886	24391
821.026	24650
821.167	24608
821.307	24757
821.447	24559
821.588	24574
821.728	24418
821.868	24060
822.008	23988
822.149	24030
822.289	23973
822.429	23714
822.569	23619
822.709	23695
822.849	23524
822.99	23448
823.13	23376
823.27	23402
823.41	23223
823.55	23147
823.69	23242
823.83	23288
823.97	23098
824.11	22923
824.25	22953
824.389	22984
824.529	23109
824.669	23075
824.809	23170
824.949	23121
825.089	23132
825.228	23098
825.368	22858
825.508	22797
825.648	22755
825.787	22957
825.927	22927
826.067	22816
826.206	22748
826.346	22786
826.485	22869
826.625	22786
826.765	22778
826.904	22816
827.044	22523
827.183	22531
827.323	22409
827.462	22413
827.601	22363
827.741	22451
827.88	22474
828.02	22337
828.159	22504
828.298	22493
828.437	22428
828.577	22417
828.716	22527
828.855	22329
828.994	22128
829.134	22162
829.273	22162
829.412	22120
829.551	22166
829.69	22036
829.829	22093
829.968	22257
830.107	22215
830.246	22131
830.385	22051
830.524	22059
830.663	21842
830.802	21842
830.941	21755
831.08	21629
831.219	21698
831.357	21762
831.496	21926
831.635	21663
831.774	21591
831.913	21534
832.051	21530
832.19	21576
832.329	21488
832.467	21458
832.606	21351
832.744	21549
832.883	21325
833.022	21336
833.16	21306
833.299	21462
833.437	21245
833.576	21557
833.714	21435
833.852	21599
833.991	21568
834.129	21549
834.267	21599
834.406	21424
834.544	21618
834.682	21355
834.821	21401
834.959	21576
835.097	21389
835.235	21534
835.373	21401
835.511	21401
835.65	21302
835.788	21222
835.926	21116
836.064	20963
836.202	21058
836.34	21241
836.478	21321
836.615	21108
836.753	21291
836.891	21230
837.029	21222
837.167	21142
837.305	21112
837.443	21112
837.58	21081
837.718	21032
837.856	21017
837.993	20960
838.131	21157
838.269	20933
838.406	20956
838.544	20845
838.681	20788
838.819	20712
838.956	20575
839.094	20465
839.231	20552
839.369	20606
839.506	20986
839.643	20689
839.781	20522
839.918	20511
840.055	20560
840.193	20396
840.33	20457
840.467	20514
840.604	20450
840.742	20689
840.879	20298
841.016	20309
841.153	20343
841.29	20362
841.427	20454
841.564	20366
841.701	20404
841.838	20332
841.975	20191
842.112	20301
842.249	20180
842.385	20119
842.522	20404
842.659	20119
842.796	20142
842.933	20210
843.069	20138
843.206	20016
843.343	20138
843.479	20046
843.616	20100
843.752	20058
843.889	20001
844.025	20035
844.162	19906
844.298	20126
844.435	19932
844.571	19982
844.708	19875
844.844	20164
844.98	20149
845.117	20081
845.253	20008
845.389	20191
845.525	20590
845.661	20952
845.798	21458
845.934	21903
846.07	22063
846.206	22025
846.342	21755
846.478	21089
846.614	20442
846.75	19868
846.886	19700
847.022	19662
847.158	19502
847.294	19464
847.429	19529
847.565	19358
847.701	19715
847.837	19107
847.972	19042
848.108	19282
848.244	19156
848.379	18890
848.515	18989
848.65	18913
848.786	18985
848.921	18947
849.057	19019
849.192	18981
849.328	18905
849.463	18962
849.598	18863
849.734	18814
849.869	18817
850.004	18837
850.14	18817
850.275	18559
850.41	18639
850.545	18608
850.68	18726
850.815	18654
850.95	18574
851.085	18802
851.22	18722
851.355	18768
851.49	18642
851.625	18612
851.76	18597
851.895	18574
852.03	18563
852.165	18665
852.299	18692
852.434	18753
852.569	18726
852.703	18711
852.838	18719
852.973	18772
853.107	18814
853.242	18555
853.376	18483
853.511	18357
853.645	18422
853.78	18650
853.914	18490
854.048	18502
854.183	18429
854.317	18563
854.451	18665
854.585	18566
854.72	18369
854.854	18506
854.988	18517
855.122	18532
855.256	18433
855.39	18563
855.524	18555
855.658	18494
855.792	18471
855.926	18490
856.06	18506
856.194	18623
856.327	18513
856.461	18456
856.595	18369
856.729	18422
856.862	18589
856.996	18540
857.13	18391
857.263	18627
857.397	18604
857.53	18403
857.664	18445
857.797	18513
857.931	18471
858.064	18479
858.197	18509
858.331	18494
858.464	18403
858.597	18365
858.731	18281
858.864	18467
858.997	18498
859.13	18429
859.263	18509
859.396	18578
859.529	18452
859.662	18410
859.795	18281
859.928	18464
860.061	18532
860.194	18513
860.327	18372
860.46	18407
860.592	18452
860.725	18612
860.858	18578
860.99	18433
861.123	18201
861.256	18277
861.388	18437
861.521	19209
861.653	18228
861.786	18186
861.918	18243
862.05	18357
862.183	18395
862.315	18490
862.447	18486
862.58	18437
862.712	18266
862.844	18171
862.976	18114
863.108	18197
863.24	18654
863.372	18038
863.504	18079
863.636	18152
863.768	18262
863.9	18114
864.032	18057
864.164	18053
864.296	18129
864.428	18285
864.559	18186
864.691	18194
864.823	18148
864.954	18216
865.086	18133
865.217	18007
865.349	18007
865.48	17996
865.612	17984
865.743	18194
865.875	18110
866.006	18007
866.137	18087
866.269	18003
866.4	18064
866.531	18098
866.662	17946
866.793	17984
866.924	17984
867.055	18030
867.186	18038
867.317	17973
867.448	18015
867.579	18045
867.71	17958
867.841	17870
867.972	18076
868.103	17977
868.233	18003
868.364	18148
868.495	18098
868.625	18197
868.756	18251
868.886	18224
869.017	18201
869.147	18418
869.278	18369
869.408	18254
869.539	18186
869.669	18182
869.799	18285
869.929	18433
870.06	18338
870.19	18540
870.32	18528
870.45	18547
870.58	18738
870.71	18738
870.84	18760
870.97	18578
871.1	18776
871.23	18772
871.36	18852
871.489	18726
871.619	18878
871.749	18783
871.879	18886
872.008	19008
872.138	18886
872.267	18749
872.397	18703
872.526	18639
872.656	18791
872.785	18582
872.915	18901
873.044	18935
873.173	18916
873.303	18901
873.432	18882
873.561	19015
873.69	18859
873.819	18871
873.948	18973
874.077	18882
874.206	18966
874.335	19000
874.464	19015
874.593	19225
874.722	19251
874.851	19255
874.979	19244
875.108	19183
875.237	19168
875.365	19263
875.494	19179
875.623	19324
875.751	19168
875.88	19301
876.008	19240
876.136	19457
876.265	19696
876.393	19780
876.521	19689
876.65	19738
876.778	19662
876.906	19635
877.034	19628
877.162	19746
877.29	19559
877.418	19651
877.546	19586
877.674	19685
877.802	19525
877.93	19552
878.058	19628
878.185	19540
878.313	19670
878.441	19681
878.568	19723
878.696	19807
878.824	19894
878.951	19944
879.079	20328
879.206	20522
879.333	20727
879.461	20716
879.588	20876
879.715	20925
879.842	21005
879.97	20514
880.097	20191
880.224	20077
880.351	19955
880.478	19738
880.605	19818
880.732	19685
880.859	19951
880.986	19681
881.112	19742
881.239	19658
881.366	19544
881.493	19362
881.619	19225
881.746	19316
881.872	19335
881.999	19365
882.125	19126
882.252	19403
882.378	19400
882.505	19369
882.631	19236
882.757	19019
882.883	19175
883.01	19114
883.136	19137
883.262	19103
883.388	18886
883.514	19129
883.64	19198
883.766	18970
883.892	18844
884.018	18894
884.143	19088
884.269	19183
884.395	18894
884.52	18776
884.646	18867
884.772	18757
884.897	18608
885.023	18848
885.148	18924
885.274	18932
885.399	18829
885.524	18669
885.65	18738
885.775	18833
885.9	18631
886.025	18791
886.15	18741
886.275	18612
886.4	18612
886.525	18703
886.65	18494
886.775	18528
886.9	18783
887.025	18757
887.149	18673
887.274	18471
887.399	18304
887.523	18353
887.648	18327
887.773	18300
887.897	18388
888.021	18445
888.146	18433
888.27	18357
888.395	18441
888.519	18350
888.643	18361
888.767	18426
888.891	18194
889.015	18167
889.139	18228
889.263	18163
889.387	18220
889.511	18330
889.635	18258
889.759	18213
889.883	18083
890.006	18121
890.13	18201
890.254	18038
890.377	18049
890.501	17870
890.624	17813
890.748	17965
890.871	17832
890.995	17703
891.118	17646
891.241	17581
891.364	17634
891.488	17813
891.611	17684
891.734	17779
891.857	17916
891.98	17794
892.103	17767
892.226	17748
892.349	17695
892.471	17520
892.594	17691
892.717	17596
892.839	17680
892.962	17684
893.085	17630
893.207	17718
893.33	17547
893.452	17562
893.575	17623
893.697	17558
893.819	17821
893.941	17832
894.064	17672
894.186	17615
894.308	17562
894.43	17882
894.552	17809
894.674	17661
894.796	17596
894.918	17672
895.04	17615
895.161	17737
895.283	17627
895.405	17589
895.526	17691
895.648	17596
895.769	17722
895.891	17665
896.012	17775
896.134	17733
896.255	17714
896.376	17665
896.498	17748
896.619	17828
896.74	17608
896.861	17802
896.982	18102
897.103	18106
897.224	18072
897.345	17977
897.466	17836
897.587	17863
897.708	17992
897.828	17961
897.949	17885
898.07	17752
898.19	17920
898.311	18155
898.431	17939
898.552	17942
898.672	18083
898.792	18026
898.913	17931
899.033	17832
899.153	17790
899.273	17729
899.393	17726
899.513	17733
899.633	17718
899.753	17775
899.873	17608
899.993	17775
900.113	17581
900.232	17882
900.352	17619
900.472	17611
900.591	17558
900.711	17646
900.83	17589
900.95	17516
901.069	17646
901.189	17524
901.308	17239
901.427	17273
901.546	17261
901.665	17162
901.784	17174
901.904	17143
902.023	16911
902.141	16812
902.26	16740
902.379	16786
902.498	16618
902.617	16683
902.735	16771
902.854	16656
902.973	16603
903.091	16382
903.21	16421
903.328	16440
903.446	16242
903.565	16215
903.683	16310
903.801	16078
903.919	16185
904.038	16238
904.156	16002
904.274	16013
904.392	15941
904.51	15975
904.627	15937
904.745	15987
904.863	15892
904.981	15694
905.098	15644
905.216	15663
905.334	15663
905.451	15656
905.569	15549
905.686	15599
905.803	15663
905.921	15382
906.038	15504
906.155	15443
906.272	15184
906.389	15294
906.506	15146
906.623	15211
906.74	15066
906.857	15032
906.974	15039
907.091	15192
907.208	15207
907.324	15222
907.441	15051
907.557	14823
907.674	14796
907.79	14743
907.907	14887
908.023	14777
908.139	14754
908.256	14864
908.372	14735
908.488	14735
908.604	14629
908.72	14552
908.836	14511
908.952	14606
909.068	14564
909.184	14606
909.3	14526
909.415	14587
909.531	14480
909.647	14309
909.762	14336
909.878	14259
909.993	14374
910.108	14259
910.224	14225
910.339	14111
910.454	14119
910.57	13997
910.685	14016
910.8	14168
910.915	14263
911.03	14008
911.145	13959
911.259	13845
911.374	13890
911.489	13795
911.604	13803
911.718	13632
911.833	13742
911.947	13563
912.062	13476
912.176	13449
912.291	13590
912.405	13563
912.519	13830
912.633	13830
912.748	13757
912.862	13605
912.976	13506
913.09	13396
913.204	13426
913.318	13453
913.431	13628
913.545	13525
913.659	13506
913.772	13460
913.886	13312
914	13324
914.113	13403
914.226	13388
914.34	13346
914.453	13266
914.566	13346
914.68	13221
914.793	13149
914.906	12928
915.019	12943
915.132	12970
915.245	12886
915.358	12993
915.47	13034
915.583	12996
915.696	13034
915.809	13149
915.921	13118
916.034	12894
916.146	12878
916.259	12863
916.371	12951
916.483	12970
916.595	12882
916.708	12859
916.82	12878
916.932	12852
917.044	12844
917.156	12768
917.268	12677
917.38	12757
917.491	12730
917.603	12719
917.715	12840
917.826	12833
917.938	12684
918.049	12566
918.161	12593
918.272	12863
918.384	12734
918.495	12684
918.606	12559
918.717	12426
918.828	12464
918.939	12528
919.05	12388
919.161	12380
919.272	12273
919.383	12353
919.494	12551
919.604	12665
919.715	12460
919.826	12433
919.936	12509
920.047	12517
920.157	12479
920.267	12578
920.378	12445
920.488	12418
920.598	12665
920.708	12787
920.818	12681
920.928	12574
921.038	12719
921.148	12700
921.258	12475
921.368	12372
921.477	12319
921.587	12213
921.697	12136
921.806	12258
921.916	12140
922.025	12022
922.134	11912
922.244	11931
922.353	11996
922.462	11828
922.571	11798
922.68	11566
922.789	11566
922.898	11547
923.007	11539
923.116	11661
923.224	11566
923.333	11573
923.442	11474
923.55	11478
923.659	11425
923.767	11535
923.876	11288
923.984	11463
924.092	11383
924.201	11433
924.309	11376
924.417	11440
924.525	11292
924.633	11356
924.741	12216
924.849	11128
924.956	11273
925.064	11174
925.172	11048
925.279	10995
925.387	11098
925.494	11079
925.602	11170
925.709	11189
925.816	11041
925.924	11075
926.031	11185
926.138	11098
926.245	11113
926.352	10999
926.459	11117
926.566	11124
926.673	10968
926.779	10946
926.886	10896
926.993	10793
927.099	10729
927.206	10759
927.312	10679
927.419	10755
927.525	10702
927.631	10706
927.737	10561
927.843	10558
927.95	10550
928.056	10653
928.162	10622
928.267	10637
928.373	11136
928.479	10694
928.585	10413
928.69	10542
928.796	10611
928.901	10497
929.007	10352
929.112	10443
929.218	10386
929.323	10352
929.428	10344
929.533	10478
929.638	10268
929.743	10333
929.848	10284
929.953	10322
930.058	10295
930.163	10105
930.267	10078
930.372	10188
930.477	10071
930.581	10360
930.685	10128
930.79	9968
930.894	9975
930.998	9922
931.103	10158
931.207	9766
931.311	9641
931.415	9568
931.519	9416
931.623	9382
