Data from test_V78500241_3143.txt Node
Date: Fri Mar 25 14:55:36 CST 2022
User: usil
Spectrometer: V785-0024
Trigger mode: 0
Integration Time (sec): 4.000000E-1
Scans to average: 1
Nonlinearity correction enabled: false
Boxcar width: 0
Storing dark spectrum: false
XAxis mode: Wavelengths
Number of Pixels in Spectrum: 1024
>>>>>Begin Spectral Data<<<<<
801.071	21964
801.214	21892
801.356	21713
801.499	21717
801.641	21507
801.783	21420
801.926	21473
802.068	21401
802.211	21256
802.353	21264
802.496	21058
802.638	20804
802.78	20929
802.923	20739
803.065	20743
803.208	20785
803.35	20720
803.492	20853
803.635	20891
803.777	20804
803.919	20815
804.061	21119
804.204	20769
804.346	20651
804.488	20606
804.63	20705
804.773	20629
804.915	20602
805.057	20807
805.199	20632
805.341	20830
805.483	20758
805.626	20655
805.768	20629
805.91	20705
806.052	20758
806.194	20507
806.336	20956
806.478	20575
806.62	20682
806.762	20720
806.904	20868
807.046	21188
807.188	21047
807.33	21013
807.472	21001
807.614	20937
807.756	20838
807.898	20754
808.04	20648
808.182	20735
808.324	20758
808.465	20670
808.607	21005
808.749	21001
808.891	21100
809.033	21176
809.174	21173
809.316	20929
809.458	21066
809.6	21020
809.741	21070
809.883	21081
810.025	21237
810.166	21058
810.308	21123
810.45	21032
810.591	21112
810.733	20811
810.875	20887
811.016	20758
811.158	20769
811.299	20937
811.441	20986
811.582	20963
811.724	20815
811.865	20708
812.007	20689
812.148	20705
812.29	20823
812.431	21070
812.573	21100
812.714	21222
812.855	21294
812.997	21458
813.138	21557
813.279	21420
813.421	21393
813.562	21169
813.703	20998
813.845	21009
813.986	20655
814.127	20499
814.268	20351
814.41	20404
814.551	20370
814.692	20370
814.833	20431
814.974	20385
815.115	20374
815.256	20214
815.397	20180
815.539	20210
815.68	20183
815.821	20058
815.962	20043
816.103	20100
816.244	19974
816.385	19784
816.526	19791
816.666	19639
816.807	19567
816.948	19559
817.089	19613
817.23	19635
817.371	19616
817.512	19556
817.653	19377
817.793	19506
817.934	19510
818.075	19499
818.216	19480
818.356	19441
818.497	19304
818.638	19057
818.778	19152
818.919	19038
819.06	19274
819.2	19232
819.341	19354
819.481	19415
819.622	19552
819.762	19693
819.903	19590
820.043	19510
820.184	19582
820.324	19521
820.465	19533
820.605	19468
820.746	19518
820.886	19304
821.026	19354
821.167	19381
821.307	19415
821.447	19403
821.588	19411
821.728	19171
821.868	18897
822.008	18882
822.149	18886
822.289	18814
822.429	18700
822.569	18471
822.709	18585
822.849	18270
822.99	18357
823.13	18300
823.27	18311
823.41	18258
823.55	18095
823.69	18159
823.83	18159
823.97	18068
824.11	17912
824.25	17870
824.389	17760
824.529	17996
824.669	17882
824.809	17927
824.949	17954
825.089	18030
825.228	17931
825.368	17714
825.508	17699
825.648	17699
825.787	17684
825.927	17809
826.067	17684
826.206	17638
826.346	17703
826.485	17703
826.625	17680
826.765	17661
826.904	17649
827.044	17474
827.183	17379
827.323	17356
827.462	17497
827.601	17307
827.741	17391
827.88	17360
828.02	17227
828.159	17292
828.298	17353
828.437	17532
828.577	17398
828.716	17410
828.855	17311
828.994	17132
829.134	17094
829.273	17216
829.412	17105
829.551	17079
829.69	17121
829.829	17185
829.968	17254
830.107	17193
830.246	17197
830.385	16972
830.524	17064
830.663	16942
830.802	16881
830.941	16710
831.08	16668
831.219	16858
831.357	16847
831.496	16957
831.635	16736
831.774	16733
831.913	16584
832.051	16546
832.19	16569
832.329	16622
832.467	16478
832.606	16516
832.744	16451
832.883	16386
833.022	16455
833.16	16489
833.299	16497
833.437	16371
833.576	16375
833.714	16489
833.852	16485
833.991	16459
834.129	16565
834.267	16508
834.406	16554
834.544	16519
834.682	16489
834.821	16546
834.959	16687
835.097	16337
835.235	16592
835.373	16455
835.511	16474
835.65	16322
835.788	16440
835.926	16242
836.064	16268
836.202	16177
836.34	16314
836.478	16497
836.615	16371
836.753	16367
836.891	16443
837.029	16440
837.167	16348
837.305	16291
837.443	16295
837.58	16219
837.718	16390
837.856	16162
837.993	16265
838.131	16234
838.269	16169
838.406	16238
838.544	16124
838.681	15937
838.819	15956
838.956	15823
839.094	15911
839.231	15880
839.369	15972
839.506	16192
839.643	16067
839.781	15835
839.918	15762
840.055	15873
840.193	15797
840.33	15766
840.467	15804
840.604	15812
840.742	16078
840.879	15660
841.016	15656
841.153	15671
841.29	15888
841.427	15743
841.564	15838
841.701	15888
841.838	15778
841.975	15686
842.112	15732
842.249	15599
842.385	15587
842.522	15808
842.659	15545
842.796	15557
842.933	15576
843.069	15466
843.206	15534
843.343	15591
843.479	15496
843.616	15679
843.752	15245
843.889	15405
844.025	15462
844.162	15332
844.298	15454
844.435	15447
844.571	15291
844.708	15332
844.844	15580
844.98	15549
845.117	15515
845.253	15355
845.389	15298
845.525	15230
845.661	15317
845.798	15085
845.934	15112
846.07	15085
846.206	15195
846.342	15378
846.478	15138
846.614	14990
846.75	14925
846.886	14929
847.022	15100
847.158	14868
847.294	14891
847.429	15013
847.565	14872
847.701	15180
847.837	14667
847.972	14663
848.108	14765
848.244	14739
848.379	14583
848.515	14579
848.65	14545
848.786	14579
848.921	14556
849.057	14667
849.192	14674
849.328	14484
849.463	14533
849.598	14545
849.734	14442
849.869	14457
850.004	14317
850.14	14454
850.275	14328
850.41	14210
850.545	14267
850.68	14206
850.815	14301
850.95	14309
851.085	14476
851.22	14400
851.355	14259
851.49	14377
851.625	14191
851.76	14168
851.895	14218
852.03	14180
852.165	14214
852.299	14298
852.434	14415
852.569	14298
852.703	14313
852.838	14389
852.973	14457
853.107	14450
853.242	14336
853.376	14088
853.511	14069
853.645	14084
853.78	14271
853.914	14221
854.048	14138
854.183	14229
854.317	14164
854.451	14320
854.585	14088
854.72	14123
854.854	14275
854.988	14100
855.122	14046
855.256	14054
855.39	14153
855.524	14259
855.658	14126
855.792	14088
855.926	14233
856.06	14206
856.194	14210
856.327	14153
856.461	14077
856.595	14161
856.729	14145
856.862	14214
856.996	14237
857.13	14248
857.263	14282
857.397	14256
857.53	14138
857.664	14256
857.797	14313
857.931	14187
858.064	14240
858.197	14404
858.331	14142
858.464	14168
858.597	14077
858.731	14088
858.864	14199
858.997	14111
859.13	14119
859.263	14183
859.396	14206
859.529	14123
859.662	14046
859.795	14180
859.928	14195
860.061	14248
860.194	14313
860.327	14149
860.46	14271
860.592	14343
860.725	14313
860.858	14286
860.99	14119
861.123	14107
861.256	14084
861.388	14168
861.521	14834
861.653	14088
861.786	14031
861.918	14058
862.05	14126
862.183	14107
862.315	14233
862.447	14164
862.58	14142
862.712	13955
862.844	13940
862.976	14039
863.108	13951
863.24	14377
863.372	13940
863.504	13959
863.636	14039
863.768	13993
863.9	13947
864.032	13845
864.164	13936
864.296	14031
864.428	14081
864.559	14027
864.691	14062
864.823	14081
864.954	14024
865.086	14050
865.217	13944
865.349	13898
865.48	13963
865.612	14016
865.743	14088
865.875	14035
866.006	13906
866.137	13993
866.269	13970
866.4	13940
866.531	13982
866.662	13890
866.793	13917
866.924	13944
867.055	13879
867.186	13928
867.317	13856
867.448	13795
867.579	13871
867.71	13875
867.841	13860
867.972	13978
868.103	13883
868.233	13997
868.364	13887
868.495	14027
868.625	14096
868.756	14191
868.886	14020
869.017	14214
869.147	14332
869.278	14358
869.408	14244
869.539	14153
869.669	14343
869.799	14210
869.929	14294
870.06	14313
870.19	14438
870.32	14495
870.45	14503
870.58	14560
870.71	14777
870.84	14678
870.97	14518
871.1	14579
871.23	14743
871.36	14807
871.489	14632
871.619	14693
871.749	14788
871.879	14826
872.008	14960
872.138	14758
872.267	14758
872.397	14663
872.526	14678
872.656	14667
872.785	14651
872.915	14838
873.044	14880
873.173	14891
873.303	14899
873.432	14872
873.561	14986
873.69	14788
873.819	14838
873.948	14861
874.077	14845
874.206	14785
874.335	14979
874.464	14937
874.593	15112
874.722	15032
874.851	15207
874.979	15081
875.108	15169
875.237	15020
875.365	14990
875.494	15127
875.623	15272
875.751	15104
875.88	15131
876.008	15317
876.136	15443
876.265	15660
876.393	15644
876.521	15641
876.65	15652
876.778	15641
876.906	15538
877.034	15564
877.162	15584
877.29	15412
877.418	15477
877.546	15610
877.674	15492
877.802	15595
877.93	15549
878.058	15466
878.185	15507
878.313	15557
878.441	15488
878.568	15447
878.696	15382
878.824	15572
878.951	15675
879.079	15793
879.206	15960
879.333	15778
879.461	15576
879.588	15534
879.715	15759
879.842	15797
879.97	15667
880.097	15481
880.224	15344
880.351	15496
880.478	15370
880.605	15313
880.732	15420
880.859	15663
880.986	15378
881.112	15492
881.239	15287
881.366	15275
881.493	15100
881.619	15119
881.746	15161
881.872	15032
881.999	14979
882.125	14971
882.252	15097
882.378	15116
882.505	15108
882.631	15024
882.757	14887
882.883	14891
883.01	14944
883.136	14823
883.262	14708
883.388	14663
883.514	14864
883.64	14880
883.766	14876
883.892	14739
884.018	14731
884.143	14933
884.269	14925
884.395	14716
884.52	14598
884.646	14617
884.772	14530
884.897	14556
885.023	14571
885.148	14648
885.274	14701
885.399	14663
885.524	14651
885.65	14640
885.775	14648
885.9	14629
886.025	14727
886.15	14644
886.275	14689
886.4	14568
886.525	14594
886.65	14526
886.775	14518
886.9	14720
887.025	14788
887.149	14606
887.274	14438
887.399	14381
887.523	14415
887.648	14389
887.773	14309
887.897	14511
888.021	14469
888.146	14271
888.27	14415
888.395	14606
888.519	14488
888.643	14454
888.767	14469
888.891	14362
889.015	14271
889.139	14396
889.263	14301
889.387	14442
889.511	14526
889.635	14431
889.759	14252
889.883	14199
890.006	14290
890.13	14408
890.254	14240
890.377	14290
890.501	14142
890.624	13986
890.748	14225
890.871	14084
890.995	13959
891.118	13982
891.241	14039
891.364	14046
891.488	14180
891.611	13978
891.734	13944
891.857	14058
891.98	13967
892.103	14107
892.226	14035
892.349	14024
892.471	13791
892.594	13906
892.717	14001
892.839	13978
892.962	14100
893.085	14039
893.207	13906
893.33	13898
893.452	13997
893.575	14119
893.697	14058
893.819	14130
893.941	14237
894.064	14191
894.186	13913
894.308	14020
894.43	14123
894.552	14221
894.674	14027
894.796	14016
894.918	14008
895.04	14046
895.161	14134
895.283	14149
895.405	14001
895.526	14058
895.648	14119
895.769	14100
895.891	14115
896.012	14263
896.134	14191
896.255	14145
896.376	14252
896.498	14161
896.619	14290
896.74	14225
896.861	14210
896.982	14549
897.103	14686
897.224	14469
897.345	14423
897.466	14358
897.587	14434
897.708	14598
897.828	14522
897.949	14503
898.07	14317
898.19	14446
898.311	14541
898.431	14514
898.552	14522
898.672	14629
898.792	14606
898.913	14590
899.033	14579
899.153	14385
899.273	14332
899.393	14396
899.513	14355
899.633	14419
899.753	14434
899.873	14362
899.993	14408
900.113	14415
900.232	14454
900.352	14355
900.472	14355
900.591	14275
900.711	14313
900.83	14271
900.95	14294
901.069	14343
901.189	14237
901.308	14012
901.427	13871
901.546	13989
901.665	14005
901.784	13986
901.904	13849
902.023	13666
902.141	13567
902.26	13506
902.379	13544
902.498	13468
902.617	13480
902.735	13639
902.854	13529
902.973	13506
903.091	13206
903.21	13171
903.328	13202
903.446	13156
903.565	13103
903.683	13004
903.801	13000
903.919	13122
904.038	13023
904.156	12943
904.274	12951
904.392	12905
904.51	12901
904.627	12920
904.745	12916
904.863	12966
904.981	12707
905.098	12669
905.216	12597
905.334	12635
905.451	12662
905.569	12490
905.686	12589
905.803	12654
905.921	12490
906.038	12437
906.155	12433
906.272	12292
906.389	12311
906.506	12213
906.623	12201
906.74	12117
906.857	12057
906.974	12053
907.091	12289
907.208	12270
907.324	12190
907.441	12087
907.557	11874
907.674	11889
907.79	11866
907.907	11855
908.023	11942
908.139	11923
908.256	11813
908.372	11832
908.488	11805
908.604	11714
908.72	11737
908.836	11703
908.952	11684
909.068	11699
909.184	11767
909.3	11771
909.415	11821
909.531	11665
909.647	11478
909.762	11459
909.878	11421
909.993	11509
910.108	11467
910.224	11436
910.339	11512
910.454	11402
910.57	11307
910.685	11242
910.8	11490
910.915	11444
911.03	11345
911.145	11212
911.259	11181
911.374	11170
911.489	10946
911.604	11022
911.718	10995
911.833	10934
911.947	10790
912.062	10717
912.176	10923
912.291	10934
912.405	10923
912.519	11166
912.633	11136
912.748	10923
912.862	10873
912.976	10748
913.09	10668
913.204	10748
913.318	10858
913.431	10835
913.545	10911
913.659	10847
913.772	10733
913.886	10634
914	10607
914.113	10653
914.226	10733
914.34	10725
914.453	10580
914.566	10782
914.68	10626
914.793	10596
914.906	10466
915.019	10432
915.132	10398
915.245	10428
915.358	10497
915.47	10440
915.583	10402
915.696	10508
915.809	10592
915.921	10523
916.034	10337
916.146	10356
916.259	10322
916.371	10344
916.483	10371
916.595	10348
916.708	10394
916.82	10344
916.932	10318
917.044	10394
917.156	10303
917.268	10219
917.38	10265
917.491	10234
917.603	10299
917.715	10367
917.826	10276
917.938	10200
918.049	10120
918.161	10322
918.272	10363
918.384	10436
918.495	10238
918.606	10166
918.717	10025
918.828	10188
918.939	10139
919.05	10044
919.161	10055
919.272	9865
919.383	9972
919.494	10196
919.604	10382
919.715	10055
919.826	10010
919.936	10139
920.047	10272
920.157	10139
920.267	10417
920.378	10173
920.488	10169
920.598	10367
920.708	10512
920.818	10344
920.928	10333
921.038	10550
921.148	10493
921.258	10246
921.368	10090
921.477	10154
921.587	9964
921.697	9937
921.806	10021
921.916	9907
922.025	9682
922.134	9644
922.244	9667
922.353	9751
922.462	9675
922.571	9561
922.68	9386
922.789	9389
922.898	9412
923.007	9344
923.116	9462
923.224	9458
923.333	9458
923.442	9241
923.55	9268
923.659	9313
923.767	9291
923.876	9294
923.984	9317
924.092	9173
924.201	9268
924.309	9272
924.417	9275
924.525	9218
924.633	9222
924.741	10185
924.849	9017
924.956	9256
925.064	9093
925.172	8982
925.279	9013
925.387	9093
925.494	9013
925.602	9241
925.709	9161
925.816	9077
925.924	9055
926.031	9123
926.138	9104
926.245	9165
926.352	8918
926.459	9192
926.566	9146
926.673	8975
926.779	8929
926.886	8967
926.993	8807
927.099	8678
927.206	8743
927.312	8746
927.419	8899
927.525	8788
927.631	8819
927.737	8678
927.843	8739
927.95	8564
928.056	8587
928.162	8693
928.267	8693
928.373	9264
928.479	8720
928.585	8530
928.69	8693
928.796	8674
928.901	8621
929.007	8492
929.112	8640
929.218	8545
929.323	8552
929.428	8541
929.533	8682
929.638	8469
929.743	8495
929.848	8507
929.953	8537
930.058	8393
930.163	8279
930.267	8282
930.372	8408
930.477	8252
930.581	8434
930.685	8381
930.79	8248
930.894	8244
930.998	8168
931.103	8393
931.207	7928
931.311	7970
931.415	7940
931.519	7788
931.623	7658
