Data from test_V78500241_2301.txt Node
Date: Fri Mar 25 14:49:44 CST 2022
User: usil
Spectrometer: V785-0024
Trigger mode: 0
Integration Time (sec): 4.000000E-1
Scans to average: 1
Nonlinearity correction enabled: false
Boxcar width: 0
Storing dark spectrum: false
XAxis mode: Wavelengths
Number of Pixels in Spectrum: 1024
>>>>>Begin Spectral Data<<<<<
801.071	22124
801.214	22017
801.356	21842
801.499	21823
801.641	21519
801.783	21523
801.926	21492
802.068	21519
802.211	21405
802.353	21230
802.496	21096
802.638	21108
802.78	20914
802.923	20906
803.065	20796
803.208	20842
803.35	20864
803.492	21017
803.635	21131
803.777	20807
803.919	20956
804.061	21233
804.204	20971
804.346	20880
804.488	20735
804.63	20735
804.773	20701
804.915	20819
805.057	20933
805.199	20773
805.341	20826
805.483	20918
805.626	20933
805.768	20625
805.91	20796
806.052	20937
806.194	20762
806.336	20861
806.478	20785
806.62	20758
806.762	20845
806.904	21036
807.046	21089
807.188	21055
807.33	21112
807.472	21226
807.614	21009
807.756	20979
807.898	20952
808.04	20796
808.182	20826
808.324	20914
808.465	20933
808.607	21028
808.749	21230
808.891	21211
809.033	21355
809.174	21214
809.316	21169
809.458	21336
809.6	21112
809.741	21241
809.883	21222
810.025	21340
810.166	21302
810.308	21382
810.45	21245
810.591	21287
810.733	21188
810.875	20971
811.016	20941
811.158	20830
811.299	21199
811.441	21161
811.582	21104
811.724	20982
811.865	20853
812.007	21001
812.148	21001
812.29	21020
812.431	21123
812.573	21233
812.714	21336
812.855	21515
812.997	21408
813.138	21724
813.279	21603
813.421	21561
813.562	21317
813.703	21256
813.845	21058
813.986	20842
814.127	20636
814.268	20613
814.41	20469
814.551	20473
814.692	20613
814.833	20473
814.974	20381
815.115	20419
815.256	20355
815.397	20358
815.539	20248
815.68	20313
815.821	20161
815.962	20313
816.103	20237
816.244	19932
816.385	19997
816.526	19898
816.666	19780
816.807	19708
816.948	19704
817.089	19807
817.23	19757
817.371	19666
817.512	19571
817.653	19563
817.793	19559
817.934	19700
818.075	19685
818.216	19586
818.356	19616
818.497	19339
818.638	19293
818.778	19225
818.919	19384
819.06	19324
819.2	19362
819.341	19556
819.481	19620
819.622	19632
819.762	19784
819.903	19833
820.043	19658
820.184	19567
820.324	19628
820.465	19632
820.605	19601
820.746	19605
820.886	19434
821.026	19525
821.167	19575
821.307	19632
821.447	19567
821.588	19350
821.728	19316
821.868	19171
822.008	19038
822.149	19076
822.289	18939
822.429	18711
822.569	18555
822.709	18715
822.849	18544
822.99	18384
823.13	18384
823.27	18410
823.41	18426
823.55	18239
823.69	18186
823.83	18266
823.97	18194
824.11	18072
824.25	18133
824.389	18053
824.529	18174
824.669	17999
824.809	18281
824.949	18087
825.089	18091
825.228	18083
825.368	17878
825.508	17874
825.648	17786
825.787	17939
825.927	17855
826.067	17805
826.206	17851
826.346	17931
826.485	17878
826.625	17733
826.765	17935
826.904	17836
827.044	17615
827.183	17551
827.323	17490
827.462	17539
827.601	17474
827.741	17558
827.88	17535
828.02	17402
828.159	17528
828.298	17573
828.437	17573
828.577	17497
828.716	17680
828.855	17417
828.994	17322
829.134	17204
829.273	17341
829.412	17109
829.551	17178
829.69	17178
829.829	17227
829.968	17478
830.107	17326
830.246	17398
830.385	17178
830.524	17197
830.663	17048
830.802	17067
830.941	16934
831.08	16885
831.219	16987
831.357	16881
831.496	17071
831.635	16786
831.774	16744
831.913	16801
832.051	16577
832.19	16706
832.329	16630
832.467	16580
832.606	16462
832.744	16512
832.883	16519
833.022	16489
833.16	16538
833.299	16630
833.437	16516
833.576	16603
833.714	16470
833.852	16687
833.991	16759
834.129	16672
834.267	16630
834.406	16588
834.544	16725
834.682	16630
834.821	16577
834.959	16755
835.097	16634
835.235	16706
835.373	16664
835.511	16596
835.65	16554
835.788	16478
835.926	16428
836.064	16268
836.202	16261
836.34	16516
836.478	16580
836.615	16523
836.753	16516
836.891	16622
837.029	16462
837.167	16493
837.305	16447
837.443	16466
837.58	16322
837.718	16436
837.856	16409
837.993	16382
838.131	16348
838.269	16325
838.406	16348
838.544	16234
838.681	16105
838.819	16036
838.956	15915
839.094	15934
839.231	15968
839.369	16059
839.506	16200
839.643	16215
839.781	15915
839.918	15915
840.055	15857
840.193	15960
840.33	15819
840.467	15911
840.604	15941
840.742	16204
840.879	15857
841.016	15774
841.153	15778
841.29	16006
841.427	15968
841.564	15945
841.701	15930
841.838	15888
841.975	15831
842.112	15861
842.249	15755
842.385	15625
842.522	15808
842.659	15766
842.796	15568
842.933	15720
843.069	15682
843.206	15603
843.343	15732
843.479	15641
843.616	15732
843.752	15454
843.889	15473
844.025	15564
844.162	15473
844.298	15568
844.435	15469
844.571	15477
844.708	15526
844.844	15679
844.98	15637
845.117	15564
845.253	15359
845.389	15412
845.525	15515
845.661	15336
845.798	15252
845.934	15336
846.07	15275
846.206	15252
846.342	15272
846.478	15245
846.614	15154
846.75	14948
846.886	15051
847.022	15005
847.158	14960
847.294	15123
847.429	15070
847.565	15013
847.701	15264
847.837	14765
847.972	14765
848.108	14887
848.244	14868
848.379	14640
848.515	14610
848.65	14629
848.786	14537
848.921	14598
849.057	14826
849.192	14697
849.328	14712
849.463	14568
849.598	14625
849.734	14564
849.869	14571
850.004	14434
850.14	14537
850.275	14457
850.41	14412
850.545	14290
850.68	14419
850.815	14446
850.95	14343
851.085	14575
851.22	14434
851.355	14434
851.49	14343
851.625	14313
851.76	14358
851.895	14370
852.03	14221
852.165	14408
852.299	14530
852.434	14587
852.569	14434
852.703	14438
852.838	14438
852.973	14530
853.107	14495
853.242	14339
853.376	14278
853.511	14168
853.645	14164
853.78	14366
853.914	14263
854.048	14263
854.183	14145
854.317	14225
854.451	14488
854.585	14202
854.72	14206
854.854	14317
854.988	14187
855.122	14214
855.256	14142
855.39	14218
855.524	14290
855.658	14343
855.792	14256
855.926	14343
856.06	14336
856.194	14396
856.327	14278
856.461	14202
856.595	14229
856.729	14317
856.862	14488
856.996	14328
857.13	14286
857.263	14457
857.397	14271
857.53	14267
857.664	14347
857.797	14317
857.931	14347
858.064	14263
858.197	14492
858.331	14248
858.464	14195
858.597	14149
858.731	14317
858.864	14385
858.997	14309
859.13	14256
859.263	14355
859.396	14381
859.529	14271
859.662	14282
859.795	14229
859.928	14244
860.061	14408
860.194	14427
860.327	14309
860.46	14195
860.592	14275
860.725	14457
860.858	14351
860.99	14362
861.123	14172
861.256	14115
861.388	14225
861.521	14781
861.653	14168
861.786	14149
861.918	14081
862.05	14172
862.183	14282
862.315	14313
862.447	14263
862.58	14145
862.712	13997
862.844	13959
862.976	14176
863.108	14149
863.24	14351
863.372	13993
863.504	14008
863.636	13982
863.768	14096
863.9	14142
864.032	13940
864.164	13925
864.296	14111
864.428	14172
864.559	14142
864.691	14077
864.823	14027
864.954	14142
865.086	13978
865.217	14054
865.349	14046
865.48	14081
865.612	14084
865.743	14096
865.875	14107
866.006	14001
866.137	13986
866.269	14050
866.4	14035
866.531	13993
866.662	14031
866.793	13989
866.924	14012
867.055	14119
867.186	14054
867.317	13982
867.448	13989
867.579	13978
867.71	13917
867.841	14050
867.972	14058
868.103	13970
868.233	13986
868.364	14012
868.495	14157
868.625	14282
868.756	14442
868.886	14172
869.017	14237
869.147	14431
869.278	14404
869.408	14351
869.539	14229
869.669	14423
869.799	14423
869.929	14412
870.06	14393
870.19	14598
870.32	14598
870.45	14526
870.58	14758
870.71	14743
870.84	14800
870.97	14785
871.1	14731
871.23	14967
871.36	14800
871.489	14785
871.619	14937
871.749	14777
871.879	15047
872.008	14967
872.138	14998
872.267	14792
872.397	14788
872.526	14697
872.656	14686
872.785	14708
872.915	14998
873.044	14982
873.173	15028
873.303	14914
873.432	14979
873.561	14963
873.69	14864
873.819	15081
873.948	15154
874.077	14979
874.206	14925
874.335	15036
874.464	15081
874.593	15214
874.722	15184
874.851	15306
874.979	15310
875.108	15302
875.237	15154
875.365	15222
875.494	15245
875.623	15450
875.751	15283
875.88	15340
876.008	15488
876.136	15488
876.265	15629
876.393	15816
876.521	15800
876.65	15724
876.778	15797
876.906	15701
877.034	15584
877.162	15610
877.29	15591
877.418	15713
877.546	15755
877.674	15675
877.802	15728
877.93	15644
878.058	15553
878.185	15549
878.313	15667
878.441	15622
878.568	15492
878.696	15633
878.824	15629
878.951	15808
879.079	15835
879.206	15979
879.333	15846
879.461	15762
879.588	15854
879.715	15888
879.842	15956
879.97	15709
880.097	15595
880.224	15545
880.351	15622
880.478	15545
880.605	15526
880.732	15526
880.859	15751
880.986	15606
881.112	15526
881.239	15431
881.366	15298
881.493	15279
881.619	15108
881.746	15264
881.872	15180
881.999	15203
882.125	15237
882.252	15264
882.378	15188
882.505	15351
882.631	15169
882.757	15013
882.883	15119
883.01	14998
883.136	14963
883.262	14906
883.388	14918
883.514	15005
883.64	15055
883.766	14918
883.892	14701
884.018	14902
884.143	15043
884.269	15146
884.395	14792
884.52	14701
884.646	14705
884.772	14651
884.897	14617
885.023	14773
885.148	14861
885.274	14880
885.399	14834
885.524	14705
885.65	14781
885.775	14724
885.9	14708
886.025	14724
886.15	14712
886.275	14629
886.4	14648
886.525	14693
886.65	14602
886.775	14613
886.9	14800
887.025	14963
887.149	14735
887.274	14412
887.399	14442
887.523	14438
887.648	14355
887.773	14400
887.897	14629
888.021	14594
888.146	14530
888.27	14705
888.395	14731
888.519	14617
888.643	14587
888.767	14583
888.891	14514
889.015	14305
889.139	14385
889.263	14423
889.387	14541
889.511	14511
889.635	14594
889.759	14412
889.883	14408
890.006	14434
890.13	14446
890.254	14332
890.377	14343
890.501	14195
890.624	14202
890.748	14336
890.871	14172
890.995	13978
891.118	14058
891.241	14164
891.364	14145
891.488	14244
891.611	14168
891.734	14126
891.857	14210
891.98	14138
892.103	14218
892.226	14084
892.349	14134
892.471	13936
892.594	14149
892.717	14073
892.839	14081
892.962	14123
893.085	14142
893.207	14016
893.33	13944
893.452	14073
893.575	14180
893.697	14107
893.819	14290
893.941	14347
894.064	14259
894.186	14107
894.308	14096
894.43	14183
894.552	14286
894.674	14244
894.796	14073
894.918	14084
895.04	14077
895.161	14278
895.283	14320
895.405	14149
895.526	14240
895.648	14183
895.769	14282
895.891	14263
896.012	14301
896.134	14286
896.255	14313
896.376	14271
896.498	14263
896.619	14339
896.74	14233
896.861	14294
896.982	14590
897.103	14826
897.224	14602
897.345	14450
897.466	14537
897.587	14598
897.708	14708
897.828	14530
897.949	14564
898.07	14374
898.19	14571
898.311	14743
898.431	14476
898.552	14587
898.672	14636
898.792	14754
898.913	14674
899.033	14613
899.153	14568
899.273	14423
899.393	14457
899.513	14511
899.633	14396
899.753	14552
899.873	14461
899.993	14571
900.113	14514
900.232	14552
900.352	14522
900.472	14381
900.591	14355
900.711	14415
900.83	14336
900.95	14511
901.069	14522
901.189	14343
901.308	14123
901.427	14058
901.546	14050
901.665	14115
901.784	14065
901.904	13898
902.023	13887
902.141	13693
902.26	13693
902.379	13670
902.498	13636
902.617	13601
902.735	13594
902.854	13609
902.973	13548
903.091	13339
903.21	13324
903.328	13392
903.446	13289
903.565	13099
903.683	13244
903.801	13061
903.919	13221
904.038	13183
904.156	13069
904.274	13114
904.392	13012
904.51	12928
904.627	12935
904.745	13027
904.863	12970
904.981	12848
905.098	12711
905.216	12654
905.334	12673
905.451	12711
905.569	12711
905.686	12696
905.803	12677
905.921	12506
906.038	12623
906.155	12551
906.272	12399
906.389	12448
906.506	12266
906.623	12285
906.74	12243
906.857	12079
906.974	12205
907.091	12350
907.208	12479
907.324	12277
907.441	12232
907.557	12015
907.674	12026
907.79	11885
907.907	11942
908.023	12026
908.139	11999
908.256	11992
908.372	11889
908.488	11870
908.604	11718
908.72	11745
908.836	11786
908.952	11775
909.068	11760
909.184	11851
909.3	11813
909.415	11828
909.531	11722
909.647	11570
909.762	11520
909.878	11524
909.993	11642
910.108	11589
910.224	11421
910.339	11562
910.454	11509
910.57	11414
910.685	11334
910.8	11627
910.915	11547
911.03	11448
911.145	11288
911.259	11201
911.374	11273
911.489	11201
911.604	11128
911.718	11041
911.833	11045
911.947	10873
912.062	10839
912.176	10934
912.291	10968
912.405	10946
912.519	11239
912.633	11197
912.748	11064
912.862	10980
912.976	10961
913.09	10835
913.204	10793
913.318	10812
913.431	11022
913.545	10991
913.659	11022
913.772	10892
913.886	10740
914	10672
914.113	10786
914.226	10923
914.34	10896
914.453	10641
914.566	10908
914.68	10729
914.793	10683
914.906	10500
915.019	10569
915.132	10344
915.245	10523
915.358	10584
915.47	10489
915.583	10485
915.696	10531
915.809	10717
915.921	10569
916.034	10485
916.146	10493
916.259	10409
916.371	10462
916.483	10516
916.595	10348
916.708	10405
916.82	10417
916.932	10325
917.044	10497
917.156	10417
917.268	10291
917.38	10318
917.491	10272
917.603	10287
917.715	10436
917.826	10421
917.938	10363
918.049	10295
918.161	10394
918.272	10470
918.384	10474
918.495	10421
918.606	10207
918.717	10150
918.828	10192
918.939	10306
919.05	10082
919.161	10135
919.272	10010
919.383	10055
919.494	10246
919.604	10379
919.715	10207
919.826	10162
919.936	10207
920.047	10344
920.157	10276
920.267	10428
920.378	10219
920.488	10181
920.598	10470
920.708	10535
920.818	10356
920.928	10466
921.038	10611
921.148	10508
921.258	10284
921.368	10181
921.477	10063
921.587	10032
921.697	9907
921.806	10147
921.916	10002
922.025	9797
922.134	9781
922.244	9740
922.353	9759
922.462	9656
922.571	9637
922.68	9454
922.789	9416
922.898	9424
923.007	9462
923.116	9504
923.224	9515
923.333	9500
923.442	9412
923.55	9386
923.659	9408
923.767	9401
923.876	9294
923.984	9485
924.092	9287
924.201	9454
924.309	9317
924.417	9355
924.525	9313
924.633	9302
924.741	10253
924.849	9036
924.956	9226
925.064	9123
925.172	9097
925.279	9108
925.387	9150
925.494	9127
925.602	9241
925.709	9165
925.816	9032
925.924	9146
926.031	9222
926.138	9211
926.245	9241
926.352	9005
926.459	9222
926.566	9256
926.673	9009
926.779	8952
926.886	9047
926.993	8864
927.099	8792
927.206	8739
927.312	8853
927.419	8845
927.525	8807
927.631	8883
927.737	8807
927.843	8712
927.95	8686
928.056	8701
928.162	8781
928.267	8800
928.373	9454
928.479	8788
928.585	8606
928.69	8705
928.796	8746
928.901	8629
929.007	8537
929.112	8670
929.218	8606
929.323	8579
929.428	8602
929.533	8743
929.638	8450
929.743	8530
929.848	8556
929.953	8571
930.058	8503
930.163	8301
930.267	8332
930.372	8438
930.477	8309
930.581	8541
930.685	8442
930.79	8286
930.894	8358
930.998	8301
931.103	8446
931.207	8039
931.311	8008
931.415	7940
931.519	7769
931.623	7734
