Data from test_V78500241_3240.txt Node
Date: Fri Mar 25 14:56:16 CST 2022
User: usil
Spectrometer: V785-0024
Trigger mode: 0
Integration Time (sec): 4.000000E-1
Scans to average: 1
Nonlinearity correction enabled: false
Boxcar width: 0
Storing dark spectrum: false
XAxis mode: Wavelengths
Number of Pixels in Spectrum: 1024
>>>>>Begin Spectral Data<<<<<
801.071	21831
801.214	21899
801.356	21564
801.499	21515
801.641	21424
801.783	21378
801.926	21542
802.068	21310
802.211	21272
802.353	21123
802.496	20963
802.638	20853
802.78	20880
802.923	20682
803.065	20708
803.208	20682
803.35	20689
803.492	20800
803.635	20705
803.777	20609
803.919	20758
804.061	21081
804.204	20838
804.346	20606
804.488	20552
804.63	20651
804.773	20598
804.915	20590
805.057	20606
805.199	20484
805.341	20625
805.483	20838
805.626	20758
805.768	20609
805.91	20648
806.052	20651
806.194	20473
806.336	20716
806.478	20526
806.62	20571
806.762	20602
806.904	20826
807.046	21005
807.188	20857
807.33	20891
807.472	20933
807.614	20826
807.756	20819
807.898	20750
808.04	20537
808.182	20689
808.324	20765
808.465	20762
808.607	20746
808.749	21051
808.891	20994
809.033	21169
809.174	20963
809.316	20963
809.458	20967
809.6	20941
809.741	21039
809.883	21096
810.025	21070
810.166	21150
810.308	21085
810.45	21112
810.591	20998
810.733	20800
810.875	20724
811.016	20659
811.158	20670
811.299	20708
811.441	20826
811.582	20815
811.724	20655
811.865	20659
812.007	20743
812.148	20762
812.29	20765
812.431	20982
812.573	21062
812.714	21180
812.855	21192
812.997	21340
813.138	21504
813.279	21344
813.421	21157
813.562	21131
813.703	20918
813.845	20834
813.986	20667
814.127	20336
814.268	20358
814.41	20336
814.551	20298
814.692	20366
814.833	20240
814.974	20252
815.115	20218
815.256	20218
815.397	20180
815.539	20092
815.68	20001
815.821	20035
815.962	19982
816.103	20050
816.244	19776
816.385	19731
816.526	19700
816.666	19460
816.807	19441
816.948	19552
817.089	19571
817.23	19483
817.371	19419
817.512	19384
817.653	19369
817.793	19388
817.934	19419
818.075	19400
818.216	19369
818.356	19419
818.497	19274
818.638	19118
818.778	19137
818.919	19023
819.06	19118
819.2	19228
819.341	19384
819.481	19312
819.622	19403
819.762	19594
819.903	19518
820.043	19468
820.184	19297
820.324	19358
820.465	19468
820.605	19346
820.746	19358
820.886	19236
821.026	19346
821.167	19343
821.307	19384
821.447	19293
821.588	19137
821.728	19114
821.868	18924
822.008	18787
822.149	18802
822.289	18837
822.429	18506
822.569	18426
822.709	18460
822.849	18270
822.99	18292
823.13	18232
823.27	18174
823.41	18289
823.55	17999
823.69	18064
823.83	18068
823.97	18060
824.11	17851
824.25	17866
824.389	17859
824.529	17927
824.669	17866
824.809	18015
824.949	17821
825.089	17882
825.228	17836
825.368	17619
825.508	17653
825.648	17653
825.787	17630
825.927	17634
826.067	17611
826.206	17516
826.346	17680
826.485	17619
826.625	17581
826.765	17619
826.904	17684
827.044	17433
827.183	17520
827.323	17337
827.462	17299
827.601	17307
827.741	17303
827.88	17345
828.02	17181
828.159	17292
828.298	17303
828.437	17383
828.577	17284
828.716	17448
828.855	17212
828.994	17128
829.134	17132
829.273	17056
829.412	16999
829.551	17071
829.69	17003
829.829	17189
829.968	17056
830.107	17079
830.246	17102
830.385	16961
830.524	16965
830.663	16927
830.802	16801
830.941	16733
831.08	16607
831.219	16694
831.357	16744
831.496	16904
831.635	16733
831.774	16569
831.913	16523
832.051	16542
832.19	16478
832.329	16455
832.467	16474
832.606	16306
832.744	16253
832.883	16402
833.022	16375
833.16	16436
833.299	16440
833.437	16402
833.576	16421
833.714	16436
833.852	16466
833.991	16451
834.129	16531
834.267	16481
834.406	16402
834.544	16436
834.682	16500
834.821	16443
834.959	16542
835.097	16466
835.235	16504
835.373	16466
835.511	16428
835.65	16234
835.788	16341
835.926	16219
836.064	16242
836.202	16219
836.34	16379
836.478	16440
836.615	16360
836.753	16398
836.891	16421
837.029	16481
837.167	16337
837.305	16382
837.443	16265
837.58	16188
837.718	16287
837.856	16238
837.993	16150
838.131	16314
838.269	16166
838.406	16150
838.544	16150
838.681	15930
838.819	15945
838.956	15819
839.094	15838
839.231	15892
839.369	15991
839.506	16147
839.643	16006
839.781	15766
839.918	15671
840.055	15808
840.193	15861
840.33	15705
840.467	15614
840.604	15827
840.742	16032
840.879	15644
841.016	15648
841.153	15660
841.29	15930
841.427	15827
841.564	15797
841.701	15861
841.838	15785
841.975	15625
842.112	15705
842.249	15599
842.385	15473
842.522	15800
842.659	15652
842.796	15526
842.933	15603
843.069	15439
843.206	15542
843.343	15591
843.479	15511
843.616	15538
843.752	15294
843.889	15310
844.025	15462
844.162	15313
844.298	15329
844.435	15306
844.571	15329
844.708	15355
844.844	15515
844.98	15473
845.117	15428
845.253	15287
845.389	15241
845.525	15241
845.661	15283
845.798	15169
845.934	15146
846.07	15123
846.206	15142
846.342	15256
846.478	15058
846.614	14929
846.75	14929
846.886	14853
847.022	15028
847.158	14948
847.294	14902
847.429	14929
847.565	14906
847.701	15112
847.837	14629
847.972	14708
848.108	14689
848.244	14785
848.379	14590
848.515	14625
848.65	14457
848.786	14522
848.921	14583
849.057	14590
849.192	14667
849.328	14488
849.463	14541
849.598	14503
849.734	14541
849.869	14389
850.004	14317
850.14	14343
850.275	14339
850.41	14206
850.545	14225
850.68	14275
850.815	14218
850.95	14229
851.085	14503
851.22	14305
851.355	14282
851.49	14214
851.625	14298
851.76	14263
851.895	14164
852.03	14206
852.165	14206
852.299	14343
852.434	14313
852.569	14343
852.703	14309
852.838	14347
852.973	14358
853.107	14396
853.242	14202
853.376	14187
853.511	14001
853.645	14096
853.78	14298
853.914	14081
854.048	14031
854.183	14145
854.317	14187
854.451	14324
854.585	14199
854.72	14183
854.854	14210
854.988	14123
855.122	14100
855.256	14005
855.39	14077
855.524	14240
855.658	14103
855.792	14111
855.926	14035
856.06	14252
856.194	14256
856.327	14084
856.461	14088
856.595	14092
856.729	14046
856.862	14301
856.996	14168
857.13	14225
857.263	14240
857.397	14278
857.53	14187
857.664	14149
857.797	14237
857.931	14244
858.064	14172
858.197	14282
858.331	14195
858.464	14126
858.597	14065
858.731	14180
858.864	14142
858.997	14058
859.13	14176
859.263	14221
859.396	14191
859.529	14126
859.662	14164
859.795	14134
859.928	14176
860.061	14206
860.194	14237
860.327	14191
860.46	14225
860.592	14229
860.725	14336
860.858	14244
860.99	14164
861.123	14005
861.256	14164
861.388	14046
861.521	14914
861.653	14062
861.786	14008
861.918	13936
862.05	14130
862.183	14119
862.315	14096
862.447	14145
862.58	14050
862.712	13913
862.844	13906
862.976	13944
863.108	13871
863.24	14412
863.372	13818
863.504	13917
863.636	13982
863.768	13986
863.9	13997
864.032	13864
864.164	13982
864.296	13940
864.428	14039
864.559	14069
864.691	14073
864.823	14024
864.954	13982
865.086	14065
865.217	13936
865.349	13750
865.48	13894
865.612	13982
865.743	14020
865.875	13955
866.006	13883
866.137	13906
866.269	13917
866.4	13970
866.531	13803
866.662	13871
866.793	13913
866.924	13883
867.055	13890
867.186	13902
867.317	13928
867.448	13902
867.579	13864
867.71	13849
867.841	13906
867.972	13921
868.103	13944
868.233	13906
868.364	14012
868.495	14062
868.625	14107
868.756	14271
868.886	14016
869.017	14016
869.147	14267
869.278	14180
869.408	14195
869.539	14202
869.669	14244
869.799	14294
869.929	14320
870.06	14237
870.19	14552
870.32	14533
870.45	14549
870.58	14541
870.71	14815
870.84	14682
870.97	14579
871.1	14610
871.23	14777
871.36	14785
871.489	14632
871.619	14762
871.749	14758
871.879	14823
872.008	14929
872.138	14731
872.267	14762
872.397	14594
872.526	14670
872.656	14549
872.785	14507
872.915	14815
873.044	14838
873.173	14830
873.303	14906
873.432	14876
873.561	14891
873.69	14849
873.819	14868
873.948	14929
874.077	14944
874.206	14769
874.335	14883
874.464	15024
874.593	15138
874.722	14975
874.851	15066
874.979	15138
875.108	15226
875.237	15097
875.365	15009
875.494	15165
875.623	15184
875.751	15074
875.88	15138
876.008	15336
876.136	15397
876.265	15580
876.393	15709
876.521	15644
876.65	15663
876.778	15603
876.906	15530
877.034	15511
877.162	15523
877.29	15564
877.418	15603
877.546	15477
877.674	15519
877.802	15610
877.93	15568
878.058	15447
878.185	15507
878.313	15557
878.441	15599
878.568	15378
878.696	15473
878.824	15606
878.951	15671
879.079	15724
879.206	15869
879.333	15705
879.461	15599
879.588	15603
879.715	15747
879.842	15827
879.97	15644
880.097	15374
880.224	15351
880.351	15466
880.478	15511
880.605	15378
880.732	15389
880.859	15656
880.986	15412
881.112	15488
881.239	15237
881.366	15173
881.493	15184
881.619	14967
881.746	15077
881.872	15123
881.999	15066
882.125	14975
882.252	15066
882.378	15039
882.505	15173
882.631	15081
882.757	14861
882.883	15055
883.01	14826
883.136	14887
883.262	14678
883.388	14739
883.514	14845
883.64	14948
883.766	14834
883.892	14697
884.018	14724
884.143	14929
884.269	14918
884.395	14720
884.52	14549
884.646	14457
884.772	14530
884.897	14537
885.023	14606
885.148	14655
885.274	14762
885.399	14750
885.524	14689
885.65	14610
885.775	14621
885.9	14625
886.025	14739
886.15	14667
886.275	14613
886.4	14495
886.525	14541
886.65	14438
886.775	14480
886.9	14720
887.025	14849
887.149	14473
887.274	14507
887.399	14324
887.523	14473
887.648	14415
887.773	14240
887.897	14541
888.021	14457
888.146	14366
888.27	14507
888.395	14518
888.519	14571
888.643	14484
888.767	14446
888.891	14305
889.015	14339
889.139	14343
889.263	14271
889.387	14450
889.511	14545
889.635	14419
889.759	14256
889.883	14233
890.006	14263
890.13	14461
890.254	14366
890.377	14313
890.501	14111
890.624	14062
890.748	14134
890.871	14001
890.995	13974
891.118	13902
891.241	14008
891.364	13963
891.488	14100
891.611	14081
891.734	14005
891.857	14107
891.98	13986
892.103	14206
892.226	14012
892.349	13951
892.471	13913
892.594	13982
892.717	14024
892.839	14024
892.962	14043
893.085	14008
893.207	13974
893.33	13913
893.452	14039
893.575	14046
893.697	14020
893.819	14210
893.941	14282
894.064	14237
894.186	14012
894.308	13917
894.43	14100
894.552	14286
894.674	14142
894.796	14065
894.918	14031
895.04	14100
895.161	14259
895.283	14199
895.405	14103
895.526	14081
895.648	14153
895.769	14103
895.891	14237
896.012	14286
896.134	14218
896.255	14240
896.376	14164
896.498	14214
896.619	14214
896.74	14233
896.861	14286
896.982	14571
897.103	14727
897.224	14522
897.345	14476
897.466	14400
897.587	14415
897.708	14583
897.828	14610
897.949	14476
898.07	14431
898.19	14514
898.311	14625
898.431	14427
898.552	14590
898.672	14632
898.792	14655
898.913	14549
899.033	14537
899.153	14446
899.273	14358
899.393	14450
899.513	14408
899.633	14412
899.753	14385
899.873	14351
899.993	14419
900.113	14419
900.232	14438
900.352	14408
900.472	14317
900.591	14294
900.711	14336
900.83	14161
900.95	14332
901.069	14370
901.189	14240
901.308	13986
901.427	13978
901.546	13913
901.665	14039
901.784	13917
901.904	13799
902.023	13704
902.141	13559
902.26	13609
902.379	13582
902.498	13438
902.617	13460
902.735	13540
902.854	13582
902.973	13468
903.091	13251
903.21	13171
903.328	13285
903.446	13171
903.565	13057
903.683	13122
903.801	13015
903.919	13012
904.038	13015
904.156	12932
904.274	13008
904.392	12897
904.51	12962
904.627	12916
904.745	13076
904.863	13015
904.981	12730
905.098	12658
905.216	12650
905.334	12608
905.451	12551
905.569	12532
905.686	12525
905.803	12582
905.921	12441
906.038	12570
906.155	12365
906.272	12330
906.389	12330
906.506	12163
906.623	12270
906.74	12136
906.857	12079
906.974	12049
907.091	12235
907.208	12266
907.324	12190
907.441	12079
907.557	11942
907.674	11916
907.79	11882
907.907	11790
908.023	12064
908.139	11897
908.256	11912
908.372	11897
908.488	11859
908.604	11752
908.72	11642
908.836	11729
908.952	11741
909.068	11699
909.184	11851
909.3	11668
909.415	11741
909.531	11680
909.647	11463
909.762	11429
909.878	11474
909.993	11532
910.108	11444
910.224	11387
910.339	11455
910.454	11406
910.57	11265
910.685	11296
910.8	11562
910.915	11425
911.03	11337
911.145	11246
911.259	11124
911.374	11147
911.489	11064
911.604	11113
911.718	10850
911.833	10961
911.947	10816
912.062	10740
912.176	10953
912.291	10828
912.405	10869
912.519	11121
912.633	11136
912.748	10927
912.862	10957
912.976	10778
913.09	10672
913.204	10668
913.318	10908
913.431	10953
913.545	10862
913.659	10968
913.772	10782
913.886	10653
914	10656
914.113	10778
914.226	10843
914.34	10717
914.453	10656
914.566	10809
914.68	10622
914.793	10660
914.906	10516
915.019	10390
915.132	10325
915.245	10405
915.358	10405
915.47	10512
915.583	10455
915.696	10558
915.809	10634
915.921	10603
916.034	10455
916.146	10424
916.259	10352
916.371	10436
916.483	10447
916.595	10360
916.708	10382
916.82	10405
916.932	10390
917.044	10428
917.156	10325
917.268	10268
917.38	10230
917.491	10265
917.603	10325
917.715	10379
917.826	10348
917.938	10265
918.049	10284
918.161	10284
918.272	10466
918.384	10386
918.495	10306
918.606	10192
918.717	10059
918.828	10242
918.939	10162
919.05	10112
919.161	10192
919.272	10010
919.383	9972
919.494	10253
919.604	10295
919.715	10185
919.826	10105
919.936	10185
920.047	10303
920.157	10124
920.267	10417
920.378	10196
920.488	10211
920.598	10356
920.708	10508
920.818	10344
920.928	10382
921.038	10577
921.148	10489
921.258	10261
921.368	10143
921.477	9987
921.587	10101
921.697	9899
921.806	10090
921.916	9911
922.025	9743
922.134	9667
922.244	9679
922.353	9793
922.462	9629
922.571	9572
922.68	9401
922.789	9500
922.898	9488
923.007	9336
923.116	9431
923.224	9416
923.333	9447
923.442	9313
923.55	9317
923.659	9317
923.767	9298
923.876	9332
923.984	9450
924.092	9260
924.201	9313
924.309	9298
924.417	9310
924.525	9203
924.633	9351
924.741	10139
924.849	9066
924.956	9199
925.064	9097
925.172	9039
925.279	9043
925.387	9131
925.494	9135
925.602	9199
925.709	9146
925.816	9085
925.924	9131
926.031	9203
926.138	9093
926.245	9131
926.352	9028
926.459	9119
926.566	9169
926.673	9047
926.779	9028
926.886	8895
926.993	8785
927.099	8864
927.206	8754
927.312	8777
927.419	8906
927.525	8880
927.631	8883
927.737	8731
927.843	8754
927.95	8575
928.056	8708
928.162	8659
928.267	8724
928.373	9260
928.479	8800
928.585	8613
928.69	8602
928.796	8762
928.901	8533
929.007	8457
929.112	8568
929.218	8545
929.323	8530
929.428	8541
929.533	8636
929.638	8438
929.743	8579
929.848	8560
929.953	8473
930.058	8412
930.163	8286
930.267	8290
930.372	8389
930.477	8263
930.581	8602
930.685	8320
930.79	8279
930.894	8271
930.998	8187
931.103	8336
931.207	8084
931.311	7978
931.415	7894
931.519	7772
931.623	7734
