Data from test_V78500241_2262.txt Node
Date: Fri Mar 25 14:49:27 CST 2022
User: usil
Spectrometer: V785-0024
Trigger mode: 0
Integration Time (sec): 4.000000E-1
Scans to average: 1
Nonlinearity correction enabled: false
Boxcar width: 0
Storing dark spectrum: false
XAxis mode: Wavelengths
Number of Pixels in Spectrum: 1024
>>>>>Begin Spectral Data<<<<<
801.071	22169
801.214	22036
801.356	21759
801.499	21785
801.641	21568
801.783	21458
801.926	21576
802.068	21420
802.211	21469
802.353	21416
802.496	21142
802.638	21116
802.78	21058
802.923	20982
803.065	20937
803.208	20769
803.35	20838
803.492	21005
803.635	21032
803.777	20891
803.919	20986
804.061	21321
804.204	20902
804.346	20826
804.488	20853
804.63	20906
804.773	20796
804.915	20933
805.057	20895
805.199	20712
805.341	20876
805.483	20899
805.626	20975
805.768	20689
805.91	20769
806.052	20876
806.194	20663
806.336	20971
806.478	20716
806.62	20800
806.762	20754
806.904	21058
807.046	21275
807.188	21024
807.33	21165
807.472	21150
807.614	21089
807.756	20990
807.898	20887
808.04	20842
808.182	20933
808.324	20921
808.465	20982
808.607	21119
808.749	21146
808.891	21405
809.033	21428
809.174	21294
809.316	21230
809.458	21222
809.6	21138
809.741	21283
809.883	21188
810.025	21405
810.166	21325
810.308	21466
810.45	21173
810.591	21214
810.733	21043
810.875	20986
811.016	20937
811.158	21028
811.299	21051
811.441	21047
811.582	21051
811.724	20921
811.865	20982
812.007	20868
812.148	20960
812.29	20948
812.431	21283
812.573	21306
812.714	21302
812.855	21458
812.997	21450
813.138	21717
813.279	21599
813.421	21477
813.562	21466
813.703	21203
813.845	21066
813.986	20880
814.127	20758
814.268	20499
814.41	20629
814.551	20549
814.692	20590
814.833	20450
814.974	20488
815.115	20552
815.256	20393
815.397	20408
815.539	20355
815.68	20377
815.821	20180
815.962	20229
816.103	20275
816.244	20149
816.385	19928
816.526	19890
816.666	19795
816.807	19674
816.948	19750
817.089	19791
817.23	19712
817.371	19635
817.512	19624
817.653	19605
817.793	19620
817.934	19826
818.075	19700
818.216	19662
818.356	19525
818.497	19369
818.638	19274
818.778	19282
818.919	19278
819.06	19270
819.2	19377
819.341	19559
819.481	19559
819.622	19651
819.762	19856
819.903	19693
820.043	19693
820.184	19784
820.324	19651
820.465	19674
820.605	19601
820.746	19563
820.886	19525
821.026	19506
821.167	19552
821.307	19696
821.447	19597
821.588	19597
821.728	19350
821.868	19160
822.008	18958
822.149	19053
822.289	18939
822.429	18795
822.569	18665
822.709	18715
822.849	18551
822.99	18578
823.13	18551
823.27	18475
823.41	18410
823.55	18190
823.69	18342
823.83	18372
823.97	18315
824.11	18003
824.25	18068
824.389	18117
824.529	18178
824.669	18121
824.809	18224
824.949	18121
825.089	18140
825.228	18102
825.368	17954
825.508	17855
825.648	17882
825.787	17946
825.927	17980
826.067	17889
826.206	17786
826.346	17851
826.485	17973
826.625	17863
826.765	17961
826.904	17912
827.044	17600
827.183	17634
827.323	17596
827.462	17562
827.601	17509
827.741	17551
827.88	17634
828.02	17433
828.159	17482
828.298	17547
828.437	17421
828.577	17505
828.716	17676
828.855	17653
828.994	17299
829.134	17311
829.273	17368
829.412	17170
829.551	17227
829.69	17216
829.829	17349
829.968	17330
830.107	17303
830.246	17296
830.385	17208
830.524	17242
830.663	17143
830.802	16972
830.941	16889
831.08	16889
831.219	17014
831.357	17014
831.496	17041
831.635	16908
831.774	16866
831.913	16831
832.051	16782
832.19	16634
832.329	16694
832.467	16569
832.606	16592
832.744	16470
832.883	16497
833.022	16611
833.16	16634
833.299	16535
833.437	16580
833.576	16694
833.714	16668
833.852	16622
833.991	16618
834.129	16653
834.267	16698
834.406	16645
834.544	16672
834.682	16565
834.821	16607
834.959	16854
835.097	16599
835.235	16679
835.373	16702
835.511	16611
835.65	16481
835.788	16550
835.926	16337
836.064	16424
836.202	16523
836.34	16481
836.478	16580
836.615	16466
836.753	16451
836.891	16588
837.029	16622
837.167	16344
837.305	16489
837.443	16322
837.58	16276
837.718	16421
837.856	16325
837.993	16234
838.131	16314
838.269	16265
838.406	16219
838.544	16143
838.681	16124
838.819	16021
838.956	15926
839.094	15937
839.231	15945
839.369	15991
839.506	16322
839.643	16109
839.781	15968
839.918	15915
840.055	15911
840.193	15953
840.33	15953
840.467	15964
840.604	15911
840.742	16078
840.879	15789
841.016	15789
841.153	15857
841.29	16021
841.427	16017
841.564	15987
841.701	15911
841.838	15854
841.975	15835
842.112	15766
842.249	15854
842.385	15709
842.522	15804
842.659	15739
842.796	15679
842.933	15641
843.069	15679
843.206	15595
843.343	15846
843.479	15781
843.616	15713
843.752	15549
843.889	15526
844.025	15515
844.162	15439
844.298	15488
844.435	15344
844.571	15530
844.708	15599
844.844	15652
844.98	15614
845.117	15637
845.253	15420
845.389	15298
845.525	15348
845.661	15408
845.798	15230
845.934	15382
846.07	15180
846.206	15412
846.342	15416
846.478	15367
846.614	15024
846.75	15047
846.886	15005
847.022	15150
847.158	15081
847.294	15055
847.429	15127
847.565	15051
847.701	15283
847.837	14788
847.972	14811
848.108	14899
848.244	14914
848.379	14705
848.515	14632
848.65	14632
848.786	14708
848.921	14636
849.057	14735
849.192	14785
849.328	14663
849.463	14701
849.598	14602
849.734	14564
849.869	14541
850.004	14465
850.14	14404
850.275	14507
850.41	14320
850.545	14351
850.68	14415
850.815	14473
850.95	14434
851.085	14598
851.22	14514
851.355	14495
851.49	14423
851.625	14408
851.76	14271
851.895	14275
852.03	14343
852.165	14309
852.299	14457
852.434	14537
852.569	14495
852.703	14465
852.838	14484
852.973	14602
853.107	14507
853.242	14438
853.376	14377
853.511	14164
853.645	14233
853.78	14419
853.914	14317
854.048	14202
854.183	14286
854.317	14332
854.451	14492
854.585	14259
854.72	14263
854.854	14286
854.988	14233
855.122	14275
855.256	14202
855.39	14130
855.524	14336
855.658	14347
855.792	14370
855.926	14294
856.06	14298
856.194	14408
856.327	14229
856.461	14240
856.595	14214
856.729	14229
856.862	14396
856.996	14389
857.13	14438
857.263	14351
857.397	14374
857.53	14309
857.664	14317
857.797	14374
857.931	14446
858.064	14370
858.197	14408
858.331	14389
858.464	14195
858.597	14134
858.731	14362
858.864	14320
858.997	14328
859.13	14252
859.263	14278
859.396	14476
859.529	14248
859.662	14298
859.795	14221
859.928	14256
860.061	14396
860.194	14431
860.327	14332
860.46	14324
860.592	14313
860.725	14461
860.858	14404
860.99	14267
861.123	14206
861.256	14259
861.388	14309
861.521	14796
861.653	14248
861.786	14145
861.918	14134
862.05	14259
862.183	14271
862.315	14206
862.447	14438
862.58	14206
862.712	14046
862.844	13993
862.976	14115
863.108	14149
863.24	14423
863.372	14035
863.504	14168
863.636	14065
863.768	14115
863.9	14054
864.032	14020
864.164	14035
864.296	14119
864.428	14202
864.559	14206
864.691	14168
864.823	14100
864.954	14054
865.086	14031
865.217	13986
865.349	13993
865.48	13974
865.612	14065
865.743	14123
865.875	14008
866.006	13989
866.137	14031
866.269	14153
866.4	14062
866.531	14058
866.662	13993
866.793	13974
866.924	14039
867.055	14046
867.186	14119
867.317	13963
867.448	13959
867.579	13974
867.71	13940
867.841	13925
867.972	14062
868.103	14073
868.233	14043
868.364	14096
868.495	14149
868.625	14237
868.756	14347
868.886	14214
869.017	14172
869.147	14404
869.278	14362
869.408	14320
869.539	14320
869.669	14408
869.799	14324
869.929	14370
870.06	14419
870.19	14651
870.32	14686
870.45	14610
870.58	14739
870.71	14853
870.84	14899
870.97	14640
871.1	14674
871.23	14792
871.36	14899
871.489	14781
871.619	14857
871.749	14853
871.879	14876
872.008	14998
872.138	14956
872.267	14864
872.397	14765
872.526	14739
872.656	14682
872.785	14701
872.915	14971
873.044	15070
873.173	14990
873.303	14918
873.432	14990
873.561	14921
873.69	14925
873.819	14910
873.948	15089
874.077	15005
874.206	14868
874.335	14986
874.464	15047
874.593	15226
874.722	15127
874.851	15237
874.979	15367
875.108	15340
875.237	15161
875.365	15180
875.494	15218
875.623	15329
875.751	15245
875.88	15279
876.008	15329
876.136	15428
876.265	15713
876.393	15850
876.521	15671
876.65	15789
876.778	15576
876.906	15587
877.034	15610
877.162	15614
877.29	15641
877.418	15667
877.546	15732
877.674	15614
877.802	15766
877.93	15705
878.058	15698
878.185	15545
878.313	15675
878.441	15732
878.568	15523
878.696	15572
878.824	15747
878.951	15679
879.079	15895
879.206	16029
879.333	15846
879.461	15694
879.588	15778
879.715	15823
879.842	16048
879.97	15766
880.097	15618
880.224	15511
880.351	15622
880.478	15523
880.605	15450
880.732	15568
880.859	15766
880.986	15382
881.112	15507
881.239	15515
881.366	15378
881.493	15245
881.619	15142
881.746	15131
881.872	15283
881.999	15043
882.125	15077
882.252	15230
882.378	15287
882.505	15348
882.631	15116
882.757	14998
882.883	15039
883.01	14948
883.136	14929
883.262	14727
883.388	14845
883.514	14891
883.64	14929
883.766	14994
883.892	14785
884.018	14883
884.143	14948
884.269	15036
884.395	14754
884.52	14686
884.646	14716
884.772	14640
884.897	14632
885.023	14701
885.148	14762
885.274	14754
885.399	14823
885.524	14708
885.65	14762
885.775	14674
885.9	14632
886.025	14826
886.15	14762
886.275	14678
886.4	14606
886.525	14701
886.65	14552
886.775	14610
886.9	14807
887.025	14948
887.149	14693
887.274	14556
887.399	14431
887.523	14564
887.648	14423
887.773	14404
887.897	14583
888.021	14689
888.146	14522
888.27	14613
888.395	14617
888.519	14686
888.643	14579
888.767	14571
888.891	14556
889.015	14419
889.139	14427
889.263	14385
889.387	14511
889.511	14617
889.635	14522
889.759	14362
889.883	14431
890.006	14374
890.13	14511
890.254	14374
890.377	14305
890.501	14218
890.624	14134
890.748	14298
890.871	14126
890.995	14084
891.118	13982
891.241	14187
891.364	14100
891.488	14180
891.611	14107
891.734	14058
891.857	14199
891.98	14065
892.103	14183
892.226	14199
892.349	14039
892.471	14012
892.594	14050
892.717	14195
892.839	14157
892.962	14100
893.085	14210
893.207	14130
893.33	14043
893.452	14043
893.575	14233
893.697	14149
893.819	14320
893.941	14317
894.064	14210
894.186	14130
894.308	14096
894.43	14218
894.552	14347
894.674	14263
894.796	14142
894.918	14240
895.04	14134
895.161	14377
895.283	14240
895.405	14199
895.526	14157
895.648	14214
895.769	14290
895.891	14290
896.012	14358
896.134	14381
896.255	14301
896.376	14221
896.498	14275
896.619	14336
896.74	14320
896.861	14305
896.982	14606
897.103	14826
897.224	14560
897.345	14560
897.466	14446
897.587	14629
897.708	14743
897.828	14533
897.949	14469
898.07	14385
898.19	14530
898.311	14708
898.431	14579
898.552	14629
898.672	14674
898.792	14758
898.913	14739
899.033	14530
899.153	14457
899.273	14438
899.393	14537
899.513	14423
899.633	14514
899.753	14476
899.873	14442
899.993	14511
900.113	14476
900.232	14480
900.352	14412
900.472	14336
900.591	14419
900.711	14465
900.83	14389
900.95	14492
901.069	14480
901.189	14229
901.308	14111
901.427	14107
901.546	14054
901.665	14096
901.784	14180
901.904	13978
902.023	13871
902.141	13693
902.26	13639
902.379	13693
902.498	13620
902.617	13586
902.735	13674
902.854	13723
902.973	13502
903.091	13384
903.21	13373
903.328	13350
903.446	13160
903.565	13217
903.683	13293
903.801	13107
903.919	13183
904.038	13213
904.156	12954
904.274	13095
904.392	12920
904.51	13031
904.627	12977
904.745	13129
904.863	13088
904.981	12886
905.098	12730
905.216	12696
905.334	12715
905.451	12738
905.569	12631
905.686	12677
905.803	12654
905.921	12563
906.038	12585
906.155	12486
906.272	12433
906.389	12372
906.506	12342
906.623	12285
906.74	12209
906.857	12167
906.974	12277
907.091	12330
907.208	12365
907.324	12327
907.441	12125
907.557	12022
907.674	12034
907.79	12003
907.907	11931
908.023	12091
908.139	11992
908.256	11992
908.372	11935
908.488	11969
908.604	11798
908.72	11741
908.836	11748
908.952	11752
909.068	11783
909.184	11946
909.3	11748
909.415	11847
909.531	11809
909.647	11615
909.762	11577
909.878	11524
909.993	11589
910.108	11448
910.224	11528
910.339	11562
910.454	11539
910.57	11425
910.685	11334
910.8	11558
910.915	11611
911.03	11440
911.145	11239
911.259	11292
911.374	11181
911.489	11258
911.604	11204
911.718	11048
911.833	10991
911.947	10904
912.062	10850
912.176	10984
912.291	11037
912.405	11090
912.519	11151
912.633	11113
912.748	11083
912.862	11014
912.976	10843
913.09	10782
913.204	10873
913.318	10900
913.431	10999
913.545	10995
913.659	10980
913.772	10866
913.886	10816
914	10790
914.113	10885
914.226	10927
914.34	10866
914.453	10714
914.566	10839
914.68	10683
914.793	10660
914.906	10504
915.019	10542
915.132	10493
915.245	10478
915.358	10565
915.47	10481
915.583	10558
915.696	10546
915.809	10645
915.921	10611
916.034	10451
916.146	10447
916.259	10440
916.371	10523
916.483	10447
916.595	10470
916.708	10409
916.82	10497
916.932	10424
917.044	10451
917.156	10428
917.268	10318
917.38	10432
917.491	10280
917.603	10428
917.715	10451
917.826	10462
917.938	10314
918.049	10227
918.161	10367
918.272	10546
918.384	10432
918.495	10394
918.606	10295
918.717	10150
918.828	10227
918.939	10261
919.05	10109
919.161	10135
919.272	10120
919.383	10116
919.494	10261
919.604	10417
919.715	10280
919.826	10124
919.936	10162
920.047	10367
920.157	10284
920.267	10409
920.378	10280
920.488	10238
920.598	10440
920.708	10561
920.818	10474
920.928	10379
921.038	10649
921.148	10622
921.258	10261
921.368	10204
921.477	10192
921.587	10093
921.697	9911
921.806	10090
921.916	10013
922.025	9812
922.134	9816
922.244	9740
922.353	9728
922.462	9736
922.571	9625
922.68	9534
922.789	9496
922.898	9504
923.007	9439
923.116	9507
923.224	9500
923.333	9439
923.442	9439
923.55	9447
923.659	9408
923.767	9405
923.876	9291
923.984	9466
924.092	9325
924.201	9317
924.309	9340
924.417	9401
924.525	9272
924.633	9306
924.741	10272
924.849	9116
924.956	9306
925.064	9123
925.172	9062
925.279	9085
925.387	9108
925.494	9150
925.602	9294
925.709	9233
925.816	9165
925.924	9188
926.031	9260
926.138	9195
926.245	9127
926.352	9123
926.459	9207
926.566	9241
926.673	9074
926.779	9028
926.886	8971
926.993	8849
927.099	8853
927.206	8857
927.312	8800
927.419	8967
927.525	8902
927.631	8788
927.737	8838
927.843	8724
927.95	8590
928.056	8743
928.162	8754
928.267	8807
928.373	9420
928.479	8876
928.585	8556
928.69	8766
928.796	8731
928.901	8663
929.007	8537
929.112	8727
929.218	8716
929.323	8552
929.428	8590
929.533	8670
929.638	8530
929.743	8514
929.848	8625
929.953	8556
930.058	8587
930.163	8339
930.267	8355
930.372	8488
930.477	8301
930.581	8541
930.685	8427
930.79	8320
930.894	8324
930.998	8259
931.103	8400
931.207	8130
931.311	8065
931.415	7917
931.519	7845
931.623	7807
