Data from test_V78500241_1970.txt Node
Date: Fri Mar 25 14:47:25 CST 2022
User: usil
Spectrometer: V785-0024
Trigger mode: 0
Integration Time (sec): 4.000000E-1
Scans to average: 1
Nonlinearity correction enabled: false
Boxcar width: 0
Storing dark spectrum: false
XAxis mode: Wavelengths
Number of Pixels in Spectrum: 1024
>>>>>Begin Spectral Data<<<<<
801.071	22162
801.214	21895
801.356	21587
801.499	21686
801.641	21473
801.783	21469
801.926	21424
802.068	21416
802.211	21355
802.353	21283
802.496	21062
802.638	20937
802.78	20906
802.923	20849
803.065	20712
803.208	20739
803.35	20739
803.492	20990
803.635	20823
803.777	20754
803.919	20750
804.061	21146
804.204	20811
804.346	20918
804.488	20678
804.63	20773
804.773	20689
804.915	20727
805.057	20762
805.199	20792
805.341	20918
805.483	20944
805.626	20792
805.768	20590
805.91	20636
806.052	20697
806.194	20644
806.336	20849
806.478	20720
806.62	20743
806.762	20765
806.904	20952
807.046	21112
807.188	21085
807.33	20982
807.472	21058
807.614	20906
807.756	20960
807.898	20842
808.04	20648
808.182	20697
808.324	20758
808.465	20842
808.607	20906
808.749	21085
808.891	21188
809.033	21184
809.174	21157
809.316	20944
809.458	21104
809.6	21096
809.741	21096
809.883	21161
810.025	21329
810.166	21237
810.308	21260
810.45	21188
810.591	21165
810.733	21005
810.875	20956
811.016	20800
811.158	20731
811.299	20887
811.441	20944
811.582	20902
811.724	20842
811.865	20842
812.007	20921
812.148	20849
812.29	20811
812.431	21028
812.573	21203
812.714	21321
812.855	21325
812.997	21526
813.138	21507
813.279	21473
813.421	21382
813.562	21313
813.703	21108
813.845	20990
813.986	20636
814.127	20499
814.268	20412
814.41	20423
814.551	20343
814.692	20511
814.833	20442
814.974	20286
815.115	20412
815.256	20256
815.397	20282
815.539	20225
815.68	20103
815.821	20088
815.962	20081
816.103	20035
816.244	20031
816.385	19898
816.526	19856
816.666	19864
816.807	19582
816.948	19616
817.089	19651
817.23	19533
817.371	19609
817.512	19495
817.653	19537
817.793	19502
817.934	19544
818.075	19514
818.216	19510
818.356	19464
818.497	19327
818.638	19171
818.778	19110
818.919	19217
819.06	19301
819.2	19377
819.341	19495
819.481	19449
819.622	19514
819.762	19685
819.903	19647
820.043	19597
820.184	19453
820.324	19537
820.465	19643
820.605	19556
820.746	19441
820.886	19365
821.026	19476
821.167	19487
821.307	19426
821.447	19449
821.588	19259
821.728	19278
821.868	19122
822.008	18920
822.149	18871
822.289	18878
822.429	18650
822.569	18593
822.709	18578
822.849	18498
822.99	18566
823.13	18391
823.27	18346
823.41	18239
823.55	18148
823.69	18270
823.83	18228
823.97	18167
824.11	18030
824.25	17961
824.389	17958
824.529	17984
824.669	17946
824.809	18110
824.949	18057
825.089	18072
825.228	17939
825.368	17813
825.508	17779
825.648	17832
825.787	17828
825.927	17836
826.067	17737
826.206	17726
826.346	17904
826.485	17809
826.625	17764
826.765	17882
826.904	17870
827.044	17501
827.183	17509
827.323	17353
827.462	17596
827.601	17406
827.741	17455
827.88	17554
828.02	17429
828.159	17448
828.298	17509
828.437	17551
828.577	17497
828.716	17630
828.855	17490
828.994	17235
829.134	17258
829.273	17284
829.412	17212
829.551	17197
829.69	17170
829.829	17258
829.968	17341
830.107	17395
830.246	17239
830.385	17273
830.524	17197
830.663	17079
830.802	16953
830.941	16919
831.08	16908
831.219	16900
831.357	17041
831.496	17124
831.635	16927
831.774	16778
831.913	16778
832.051	16649
832.19	16710
832.329	16698
832.467	16641
832.606	16607
832.744	16519
832.883	16546
833.022	16565
833.16	16664
833.299	16523
833.437	16607
833.576	16603
833.714	16649
833.852	16736
833.991	16733
834.129	16763
834.267	16702
834.406	16577
834.544	16637
834.682	16641
834.821	16679
834.959	16824
835.097	16634
835.235	16744
835.373	16660
835.511	16691
835.65	16580
835.788	16485
835.926	16405
836.064	16314
836.202	16459
836.34	16630
836.478	16542
836.615	16546
836.753	16516
836.891	16558
837.029	16592
837.167	16569
837.305	16424
837.443	16306
837.58	16375
837.718	16485
837.856	16459
837.993	16344
838.131	16405
838.269	16238
838.406	16344
838.544	16253
838.681	16109
838.819	16044
838.956	15968
839.094	16029
839.231	16097
839.369	16139
839.506	16432
839.643	16192
839.781	16055
839.918	15888
840.055	15979
840.193	15888
840.33	15907
840.467	15975
840.604	16059
840.742	16268
840.879	15778
841.016	15842
841.153	15838
841.29	16120
841.427	16040
841.564	15941
841.701	15903
841.838	15899
841.975	15892
842.112	15865
842.249	15861
842.385	15823
842.522	15915
842.659	15823
842.796	15633
842.933	15781
843.069	15709
843.206	15720
843.343	15854
843.479	15747
843.616	15785
843.752	15622
843.889	15488
844.025	15648
844.162	15523
844.298	15857
844.435	15496
844.571	15515
844.708	15564
844.844	15618
844.98	15793
845.117	15705
845.253	15515
845.389	15523
845.525	15443
845.661	15466
845.798	15336
845.934	15428
846.07	15260
846.206	15386
846.342	15454
846.478	15283
846.614	15093
846.75	15074
846.886	15131
847.022	15173
847.158	15108
847.294	15119
847.429	15138
847.565	15089
847.701	15370
847.837	14998
847.972	14838
848.108	14944
848.244	14910
848.379	14804
848.515	14712
848.65	14678
848.786	14667
848.921	14682
849.057	14876
849.192	14864
849.328	14705
849.463	14762
849.598	14739
849.734	14678
849.869	14613
850.004	14465
850.14	14469
850.275	14514
850.41	14427
850.545	14427
850.68	14488
850.815	14484
850.95	14457
851.085	14613
851.22	14556
851.355	14511
851.49	14450
851.625	14465
851.76	14450
851.895	14442
852.03	14374
852.165	14431
852.299	14465
852.434	14518
852.569	14594
852.703	14408
852.838	14594
852.973	14667
853.107	14587
853.242	14495
853.376	14389
853.511	14309
853.645	14324
853.78	14476
853.914	14347
854.048	14362
854.183	14381
854.317	14355
854.451	14480
854.585	14374
854.72	14374
854.854	14450
854.988	14294
855.122	14362
855.256	14195
855.39	14351
855.524	14446
855.658	14347
855.792	14358
855.926	14469
856.06	14427
856.194	14465
856.327	14423
856.461	14313
856.595	14259
856.729	14351
856.862	14309
856.996	14385
857.13	14419
857.263	14427
857.397	14503
857.53	14339
857.664	14396
857.797	14355
857.931	14431
858.064	14480
858.197	14446
858.331	14332
858.464	14336
858.597	14237
858.731	14313
858.864	14396
858.997	14427
859.13	14275
859.263	14419
859.396	14511
859.529	14408
859.662	14324
859.795	14320
859.928	14374
860.061	14480
860.194	14495
860.327	14476
860.46	14377
860.592	14571
860.725	14442
860.858	14446
860.99	14259
861.123	14328
861.256	14317
861.388	14332
861.521	15055
861.653	14191
861.786	14084
861.918	14195
862.05	14290
862.183	14267
862.315	14385
862.447	14408
862.58	14317
862.712	14153
862.844	14077
862.976	14183
863.108	14214
863.24	14454
863.372	14134
863.504	14180
863.636	14111
863.768	14282
863.9	14210
864.032	14027
864.164	14077
864.296	14195
864.428	14290
864.559	14199
864.691	14294
864.823	14282
864.954	14168
865.086	14138
865.217	14130
865.349	14039
865.48	14145
865.612	14187
865.743	14202
865.875	14142
866.006	14050
866.137	14092
866.269	14024
866.4	14100
866.531	13982
866.662	14062
866.793	14111
866.924	14001
867.055	14088
867.186	14149
867.317	14157
867.448	13970
867.579	14107
867.71	14046
867.841	14054
867.972	14050
868.103	14142
868.233	14256
868.364	14176
868.495	14100
868.625	14278
868.756	14400
868.886	14404
869.017	14332
869.147	14442
869.278	14507
869.408	14415
869.539	14320
869.669	14465
869.799	14396
869.929	14511
870.06	14427
870.19	14644
870.32	14549
870.45	14602
870.58	14678
870.71	14823
870.84	14842
870.97	14788
871.1	14648
871.23	14872
871.36	14979
871.489	14887
871.619	14887
871.749	14921
871.879	15017
872.008	15066
872.138	14967
872.267	14948
872.397	14861
872.526	14769
872.656	14895
872.785	14819
872.915	15013
873.044	15028
873.173	15020
873.303	15020
873.432	15009
873.561	15157
873.69	15024
873.819	15005
873.948	15043
874.077	15036
874.206	15085
874.335	15062
874.464	15173
874.593	15226
874.722	15264
874.851	15359
874.979	15283
875.108	15321
875.237	15340
875.365	15195
875.494	15291
875.623	15397
875.751	15336
875.88	15428
876.008	15515
876.136	15595
876.265	15747
876.393	15876
876.521	15709
876.65	15819
876.778	15739
876.906	15667
877.034	15584
877.162	15732
877.29	15709
877.418	15755
877.546	15713
877.674	15835
877.802	15732
877.93	15629
878.058	15633
878.185	15606
878.313	15724
878.441	15838
878.568	15610
878.696	15633
878.824	15732
878.951	15812
879.079	15880
879.206	16067
879.333	15850
879.461	15762
879.588	15800
879.715	16017
879.842	15972
879.97	15785
880.097	15603
880.224	15500
880.351	15545
880.478	15682
880.605	15587
880.732	15553
880.859	15770
880.986	15625
881.112	15671
881.239	15454
881.366	15321
881.493	15199
881.619	15214
881.746	15233
881.872	15348
881.999	15138
882.125	15207
882.252	15340
882.378	15306
882.505	15310
882.631	15252
882.757	15043
882.883	15047
883.01	15036
883.136	14990
883.262	14941
883.388	14910
883.514	15036
883.64	15085
883.766	14929
883.892	14876
884.018	14902
884.143	15032
884.269	15104
884.395	14842
884.52	14689
884.646	14746
884.772	14758
884.897	14598
885.023	14807
885.148	14895
885.274	14921
885.399	14842
885.524	14735
885.65	14682
885.775	14807
885.9	14727
886.025	14914
886.15	14769
886.275	14750
886.4	14636
886.525	14720
886.65	14651
886.775	14758
886.9	14941
887.025	14937
887.149	14762
887.274	14606
887.399	14629
887.523	14431
887.648	14492
887.773	14526
887.897	14739
888.021	14590
888.146	14473
888.27	14735
888.395	14674
888.519	14682
888.643	14583
888.767	14693
888.891	14545
889.015	14454
889.139	14454
889.263	14476
889.387	14492
889.511	14655
889.635	14590
889.759	14381
889.883	14495
890.006	14473
890.13	14583
890.254	14389
890.377	14328
890.501	14252
890.624	14183
890.748	14366
890.871	14183
890.995	14134
891.118	14062
891.241	14115
891.364	14130
891.488	14286
891.611	14168
891.734	14119
891.857	14191
891.98	14145
892.103	14210
892.226	14240
892.349	14111
892.471	14088
892.594	14142
892.717	14191
892.839	14142
892.962	14168
893.085	14290
893.207	14218
893.33	14008
893.452	13997
893.575	14263
893.697	14100
893.819	14248
893.941	14358
894.064	14305
894.186	14119
894.308	14149
894.43	14294
894.552	14450
894.674	14263
894.796	14199
894.918	14202
895.04	14229
895.161	14259
895.283	14275
895.405	14271
895.526	14271
895.648	14286
895.769	14309
895.891	14187
896.012	14309
896.134	14381
896.255	14374
896.376	14263
896.498	14256
896.619	14282
896.74	14339
896.861	14282
896.982	14716
897.103	14842
897.224	14651
897.345	14522
897.466	14556
897.587	14530
897.708	14701
897.828	14682
897.949	14587
898.07	14537
898.19	14488
898.311	14769
898.431	14621
898.552	14575
898.672	14731
898.792	14754
898.913	14746
899.033	14636
899.153	14503
899.273	14389
899.393	14579
899.513	14499
899.633	14549
899.753	14606
899.873	14450
899.993	14564
900.113	14473
900.232	14530
900.352	14446
900.472	14377
900.591	14324
900.711	14336
900.83	14294
900.95	14495
901.069	14454
901.189	14275
901.308	14103
901.427	13951
901.546	13921
901.665	14062
901.784	14073
901.904	13940
902.023	13845
902.141	13723
902.26	13681
902.379	13670
902.498	13514
902.617	13597
902.735	13636
902.854	13548
902.973	13605
903.091	13415
903.21	13411
903.328	13354
903.446	13263
903.565	13255
903.683	13164
903.801	13118
903.919	13217
904.038	13228
904.156	13019
904.274	13088
904.392	12970
904.51	12932
904.627	13004
904.745	13012
904.863	13065
904.981	12920
905.098	12719
905.216	12726
905.334	12703
905.451	12692
905.569	12741
905.686	12795
905.803	12741
905.921	12513
906.038	12627
906.155	12570
906.272	12414
906.389	12464
906.506	12338
906.623	12315
906.74	12289
906.857	12205
906.974	12254
907.091	12380
907.208	12475
907.324	12353
907.441	12361
907.557	12129
907.674	11999
907.79	11999
907.907	11927
908.023	12087
908.139	12087
908.256	12121
908.372	11988
908.488	11965
908.604	11798
908.72	11794
908.836	11821
908.952	11851
909.068	11779
909.184	11965
909.3	11824
909.415	11847
909.531	11809
909.647	11611
909.762	11638
909.878	11585
909.993	11528
910.108	11604
910.224	11604
910.339	11680
910.454	11455
910.57	11463
910.685	11379
910.8	11691
910.915	11592
911.03	11509
911.145	11273
911.259	11288
911.374	11345
911.489	11284
911.604	11273
911.718	11075
911.833	11105
911.947	10938
912.062	10896
912.176	11010
912.291	11060
912.405	11075
912.519	11288
912.633	11353
912.748	11105
912.862	11029
912.976	10873
913.09	10850
913.204	10869
913.318	11022
913.431	11025
913.545	11003
913.659	11003
913.772	10911
913.886	10782
914	10805
914.113	10889
914.226	10930
914.34	10949
914.453	10649
914.566	10858
914.68	10721
914.793	10714
914.906	10618
915.019	10542
915.132	10474
915.245	10573
915.358	10550
915.47	10565
915.583	10561
915.696	10565
915.809	10763
915.921	10733
916.034	10569
916.146	10493
916.259	10459
916.371	10558
916.483	10558
916.595	10493
916.708	10440
916.82	10455
916.932	10421
917.044	10554
917.156	10500
917.268	10447
917.38	10363
917.491	10341
917.603	10428
917.715	10436
917.826	10531
917.938	10356
918.049	10280
918.161	10417
918.272	10519
918.384	10489
918.495	10413
918.606	10322
918.717	10143
918.828	10371
918.939	10200
919.05	10059
919.161	10200
919.272	9998
919.383	10090
919.494	10360
919.604	10436
919.715	10227
919.826	10188
919.936	10246
920.047	10455
920.157	10386
920.267	10508
920.378	10238
920.488	10227
920.598	10466
920.708	10615
920.818	10497
920.928	10451
921.038	10569
921.148	10622
921.258	10234
921.368	10272
921.477	10116
921.587	10139
921.697	10006
921.806	10112
921.916	9934
922.025	9827
922.134	9816
922.244	9785
922.353	9926
922.462	9701
922.571	9694
922.68	9599
922.789	9496
922.898	9526
923.007	9466
923.116	9610
923.224	9561
923.333	9542
923.442	9408
923.55	9370
923.659	9454
923.767	9504
923.876	9321
923.984	9439
924.092	9355
924.201	9408
924.309	9416
924.417	9370
924.525	9389
924.633	9378
924.741	10196
924.849	9165
924.956	9317
925.064	9207
925.172	9055
925.279	9112
925.387	9226
925.494	9150
925.602	9241
925.709	9291
925.816	9085
925.924	9188
926.031	9237
926.138	9173
926.245	9188
926.352	9043
926.459	9192
926.566	9268
926.673	9154
926.779	8975
926.886	9047
926.993	8906
927.099	8918
927.206	8773
927.312	8880
927.419	8918
927.525	8849
927.631	8849
927.737	8815
927.843	8766
927.95	8648
928.056	8663
928.162	8769
928.267	8876
928.373	9401
928.479	8876
928.585	8674
928.69	8842
928.796	8777
928.901	8708
929.007	8530
929.112	8735
929.218	8731
929.323	8636
929.428	8606
929.533	8785
929.638	8484
929.743	8606
929.848	8598
929.953	8568
930.058	8571
930.163	8393
930.267	8279
930.372	8530
930.477	8339
930.581	8571
930.685	8404
930.79	8336
930.894	8381
930.998	8339
931.103	8438
931.207	8153
931.311	7989
931.415	8039
931.519	7830
931.623	7799
