Data from test_V78500241_3213.txt Node
Date: Fri Mar 25 14:56:05 CST 2022
User: usil
Spectrometer: V785-0024
Trigger mode: 0
Integration Time (sec): 4.000000E-1
Scans to average: 1
Nonlinearity correction enabled: false
Boxcar width: 0
Storing dark spectrum: false
XAxis mode: Wavelengths
Number of Pixels in Spectrum: 1024
>>>>>Begin Spectral Data<<<<<
801.071	22078
801.214	21937
801.356	21526
801.499	21526
801.641	21443
801.783	21420
801.926	21420
802.068	21310
802.211	21165
802.353	21298
802.496	20952
802.638	20849
802.78	20864
802.923	20902
803.065	20644
803.208	20609
803.35	20617
803.492	20788
803.635	20937
803.777	20693
803.919	20716
804.061	20956
804.204	20792
804.346	20663
804.488	20648
804.63	20712
804.773	20514
804.915	20693
805.057	20796
805.199	20579
805.341	20640
805.483	20678
805.626	20587
805.768	20606
805.91	20575
806.052	20644
806.194	20461
806.336	20811
806.478	20541
806.62	20541
806.762	20648
806.904	20701
807.046	21081
807.188	20868
807.33	20910
807.472	20883
807.614	20849
807.756	20819
807.898	20720
808.04	20598
808.182	20674
808.324	20716
808.465	20777
808.607	20853
808.749	20952
808.891	20990
809.033	21058
809.174	21081
809.316	20925
809.458	20861
809.6	20952
809.741	21047
809.883	21077
810.025	21184
810.166	21131
810.308	21051
810.45	21074
810.591	20944
810.733	20773
810.875	20727
811.016	20724
811.158	20552
811.299	20712
811.441	20906
811.582	20910
811.724	20781
811.865	20667
812.007	20708
812.148	20724
812.29	20773
812.431	20857
812.573	21001
812.714	21214
812.855	21306
812.997	21180
813.138	21443
813.279	21336
813.421	21272
813.562	21176
813.703	21066
813.845	20918
813.986	20621
814.127	20499
814.268	20320
814.41	20301
814.551	20145
814.692	20343
814.833	20161
814.974	20233
815.115	20355
815.256	20081
815.397	20183
815.539	20134
815.68	19963
815.821	19879
815.962	20073
816.103	19852
816.244	19906
816.385	19826
816.526	19689
816.666	19628
816.807	19384
816.948	19529
817.089	19613
817.23	19521
817.371	19571
817.512	19396
817.653	19525
817.793	19392
817.934	19346
818.075	19426
818.216	19365
818.356	19354
818.497	19232
818.638	19000
818.778	19148
818.919	19133
819.06	19046
819.2	19217
819.341	19179
819.481	19247
819.622	19403
819.762	19666
819.903	19434
820.043	19419
820.184	19411
820.324	19487
820.465	19400
820.605	19362
820.746	19411
820.886	19289
821.026	19381
821.167	19244
821.307	19396
821.447	19213
821.588	19194
821.728	19084
821.868	19107
822.008	18840
822.149	18810
822.289	18821
822.429	18555
822.569	18479
822.709	18456
822.849	18258
822.99	18342
823.13	18376
823.27	18292
823.41	18110
823.55	18068
823.69	18022
823.83	18098
823.97	18057
824.11	17935
824.25	17901
824.389	17729
824.529	17935
824.669	17885
824.809	17965
824.949	17893
825.089	17927
825.228	17828
825.368	17623
825.508	17634
825.648	17649
825.787	17710
825.927	17630
826.067	17608
826.206	17649
826.346	17611
826.485	17596
826.625	17646
826.765	17771
826.904	17767
827.044	17452
827.183	17372
827.323	17337
827.462	17463
827.601	17235
827.741	17250
827.88	17356
828.02	17223
828.159	17341
828.298	17246
828.437	17383
828.577	17269
828.716	17452
828.855	17170
828.994	17162
829.134	17045
829.273	17117
829.412	16984
829.551	17025
829.69	17197
829.829	17239
829.968	17239
830.107	17197
830.246	17181
830.385	16949
830.524	17029
830.663	16892
830.802	16847
830.941	16691
831.08	16683
831.219	16748
831.357	16740
831.496	16965
831.635	16664
831.774	16679
831.913	16569
832.051	16497
832.19	16417
832.329	16588
832.467	16440
832.606	16379
832.744	16440
832.883	16329
833.022	16272
833.16	16394
833.299	16394
833.437	16519
833.576	16424
833.714	16341
833.852	16428
833.991	16394
834.129	16516
834.267	16531
834.406	16424
834.544	16497
834.682	16527
834.821	16535
834.959	16512
835.097	16333
835.235	16451
835.373	16462
835.511	16409
835.65	16379
835.788	16341
835.926	16234
836.064	16143
836.202	16287
836.34	16447
836.478	16443
836.615	16360
836.753	16455
836.891	16413
837.029	16405
837.167	16314
837.305	16238
837.443	16238
837.58	16204
837.718	16386
837.856	16196
837.993	16071
838.131	16177
838.269	16185
838.406	16150
838.544	16074
838.681	15922
838.819	15911
838.956	15835
839.094	15797
839.231	15899
839.369	15956
839.506	16158
839.643	15975
839.781	15785
839.918	15625
840.055	15736
840.193	15686
840.33	15675
840.467	15755
840.604	15873
840.742	15953
840.879	15572
841.016	15728
841.153	15641
841.29	15857
841.427	15854
841.564	15732
841.701	15861
841.838	15701
841.975	15785
842.112	15637
842.249	15591
842.385	15469
842.522	15724
842.659	15515
842.796	15500
842.933	15564
843.069	15469
843.206	15488
843.343	15564
843.479	15587
843.616	15660
843.752	15367
843.889	15405
844.025	15458
844.162	15291
844.298	15439
844.435	15302
844.571	15294
844.708	15294
844.844	15492
844.98	15416
845.117	15504
845.253	15287
845.389	15207
845.525	15184
845.661	15302
845.798	15157
845.934	15123
846.07	15100
846.206	15161
846.342	15256
846.478	15169
846.614	14975
846.75	14811
846.886	14842
847.022	14982
847.158	14963
847.294	14883
847.429	14956
847.565	14887
847.701	15146
847.837	14648
847.972	14590
848.108	14735
848.244	14750
848.379	14571
848.515	14503
848.65	14457
848.786	14530
848.921	14541
849.057	14564
849.192	14621
849.328	14549
849.463	14568
849.598	14537
849.734	14408
849.869	14415
850.004	14256
850.14	14278
850.275	14248
850.41	14244
850.545	14202
850.68	14298
850.815	14225
850.95	14290
851.085	14446
851.22	14476
851.355	14347
851.49	14320
851.625	14252
851.76	14294
851.895	14176
852.03	14088
852.165	14164
852.299	14317
852.434	14336
852.569	14336
852.703	14286
852.838	14347
852.973	14427
853.107	14457
853.242	14214
853.376	14191
853.511	14046
853.645	14149
853.78	14278
853.914	14126
854.048	14157
854.183	14103
854.317	14195
854.451	14374
854.585	14073
854.72	14119
854.854	14210
854.988	14024
855.122	14126
855.256	13928
855.39	14153
855.524	14248
855.658	14233
855.792	14134
855.926	14153
856.06	14130
856.194	14275
856.327	14172
856.461	14153
856.595	14168
856.729	14100
856.862	14351
856.996	14187
857.13	14282
857.263	14206
857.397	14252
857.53	14157
857.664	14244
857.797	14282
857.931	14336
858.064	14256
858.197	14271
858.331	14119
858.464	14164
858.597	14027
858.731	14062
858.864	14187
858.997	14199
859.13	14157
859.263	14153
859.396	14313
859.529	14180
859.662	14058
859.795	14027
859.928	14149
860.061	14317
860.194	14355
860.327	14214
860.46	14142
860.592	14240
860.725	14252
860.858	14298
860.99	14077
861.123	14077
861.256	14138
861.388	14111
861.521	14956
861.653	14043
861.786	13959
861.918	13986
862.05	13963
862.183	14130
862.315	14172
862.447	14138
862.58	14062
862.712	13982
862.844	13970
862.976	13974
863.108	13993
863.24	14298
863.372	13807
863.504	13932
863.636	13936
863.768	13993
863.9	13894
864.032	13868
864.164	13830
864.296	14020
864.428	13959
864.559	14024
864.691	14058
864.823	13970
864.954	13959
865.086	13955
865.217	13902
865.349	13811
865.48	13814
865.612	13932
865.743	14050
865.875	14039
866.006	13898
866.137	13917
866.269	13932
866.4	13970
866.531	13909
866.662	13830
866.793	13814
866.924	13833
867.055	13906
867.186	13982
867.317	13879
867.448	13822
867.579	13932
867.71	13814
867.841	13852
867.972	13921
868.103	13875
868.233	13970
868.364	13959
868.495	13879
868.625	14062
868.756	14339
868.886	14054
869.017	14126
869.147	14389
869.278	14282
869.408	14164
869.539	14221
869.669	14206
869.799	14214
869.929	14328
870.06	14377
870.19	14473
870.32	14404
870.45	14457
870.58	14552
870.71	14693
870.84	14606
870.97	14594
871.1	14461
871.23	14781
871.36	14823
871.489	14640
871.619	14830
871.749	14891
871.879	14830
872.008	14823
872.138	14758
872.267	14678
872.397	14625
872.526	14606
872.656	14594
872.785	14617
872.915	14815
873.044	14868
873.173	14735
873.303	14796
873.432	14929
873.561	14952
873.69	14849
873.819	14864
873.948	14880
874.077	14864
874.206	14712
874.335	14891
874.464	14944
874.593	15112
874.722	15005
874.851	15108
874.979	15207
875.108	15169
875.237	15089
875.365	15104
875.494	15093
875.623	15298
875.751	15097
875.88	15252
876.008	15195
876.136	15336
876.265	15511
876.393	15759
876.521	15652
876.65	15675
876.778	15530
876.906	15488
877.034	15637
877.162	15580
877.29	15481
877.418	15504
877.546	15595
877.674	15557
877.802	15580
877.93	15561
878.058	15530
878.185	15313
878.313	15519
878.441	15629
878.568	15401
878.696	15504
878.824	15644
878.951	15724
879.079	15846
879.206	15838
879.333	15747
879.461	15625
879.588	15705
879.715	15747
879.842	15838
879.97	15644
880.097	15420
880.224	15439
880.351	15496
880.478	15443
880.605	15393
880.732	15397
880.859	15641
880.986	15473
881.112	15439
881.239	15310
881.366	15131
881.493	15127
881.619	14994
881.746	15032
881.872	15081
881.999	14963
882.125	14975
882.252	15161
882.378	15097
882.505	15199
882.631	14914
882.757	14891
882.883	14861
883.01	14796
883.136	14807
883.262	14807
883.388	14762
883.514	14861
883.64	14876
883.766	14819
883.892	14632
884.018	14819
884.143	14868
884.269	14990
884.395	14705
884.52	14636
884.646	14636
884.772	14541
884.897	14571
885.023	14579
885.148	14716
885.274	14800
885.399	14587
885.524	14583
885.65	14602
885.775	14556
885.9	14610
886.025	14705
886.15	14644
886.275	14632
886.4	14518
886.525	14457
886.65	14465
886.775	14606
886.9	14720
887.025	14902
887.149	14640
887.274	14419
887.399	14366
887.523	14461
887.648	14282
887.773	14347
887.897	14488
888.021	14530
888.146	14408
888.27	14480
888.395	14587
888.519	14590
888.643	14492
888.767	14541
888.891	14347
889.015	14320
889.139	14351
889.263	14248
889.387	14336
889.511	14533
889.635	14511
889.759	14252
889.883	14263
890.006	14286
890.13	14366
890.254	14305
890.377	14256
890.501	14069
890.624	14172
890.748	14111
890.871	14020
890.995	13906
891.118	13898
891.241	14054
891.364	14001
891.488	14077
891.611	13986
891.734	14065
891.857	14005
891.98	13993
892.103	14081
892.226	13906
892.349	13936
892.471	13856
892.594	13898
892.717	14100
892.839	13932
892.962	13970
893.085	14031
893.207	13997
893.33	13769
893.452	13917
893.575	13997
893.697	14020
893.819	14202
893.941	14157
894.064	14149
894.186	13982
894.308	13894
894.43	14176
894.552	14221
894.674	14164
894.796	13978
894.918	14001
895.04	14107
895.161	14172
895.283	14081
895.405	14130
895.526	13955
895.648	14100
895.769	14130
895.891	14153
896.012	14206
896.134	14142
896.255	14187
896.376	14115
896.498	14157
896.619	14130
896.74	14202
896.861	14237
896.982	14552
897.103	14640
897.224	14476
897.345	14473
897.466	14328
897.587	14438
897.708	14602
897.828	14438
897.949	14454
898.07	14370
898.19	14396
898.311	14590
898.431	14450
898.552	14442
898.672	14648
898.792	14636
898.913	14579
899.033	14492
899.153	14328
899.273	14187
899.393	14347
899.513	14305
899.633	14343
899.753	14396
899.873	14286
899.993	14434
900.113	14328
900.232	14313
900.352	14400
900.472	14282
900.591	14153
900.711	14320
900.83	14115
900.95	14301
901.069	14343
901.189	14153
901.308	14027
901.427	14008
901.546	14016
901.665	13879
901.784	14001
901.904	13879
902.023	13704
902.141	13628
902.26	13529
902.379	13594
902.498	13476
902.617	13480
902.735	13464
902.854	13499
902.973	13411
903.091	13247
903.21	13206
903.328	13168
903.446	13137
903.565	13110
903.683	13110
903.801	13034
903.919	13122
904.038	13031
904.156	12905
904.274	12894
904.392	12909
904.51	12859
904.627	12817
904.745	12932
904.863	12932
904.981	12688
905.098	12582
905.216	12464
905.334	12547
905.451	12589
905.569	12471
905.686	12601
905.803	12563
905.921	12365
906.038	12456
906.155	12441
906.272	12155
906.389	12330
906.506	12167
906.623	12098
906.74	12106
906.857	12087
906.974	12087
907.091	12216
907.208	12311
907.324	12159
907.441	12102
907.557	11946
907.674	11939
907.79	11920
907.907	11889
908.023	11882
908.139	11817
908.256	11870
908.372	11843
908.488	11832
908.604	11695
908.72	11627
908.836	11680
908.952	11608
909.068	11729
909.184	11802
909.3	11608
909.415	11726
909.531	11691
909.647	11425
909.762	11398
909.878	11387
909.993	11433
910.108	11459
910.224	11364
910.339	11459
910.454	11353
910.57	11318
910.685	11136
910.8	11486
910.915	11501
911.03	11337
911.145	11201
911.259	11086
911.374	11166
911.489	11041
911.604	11029
911.718	10847
911.833	10862
911.947	10854
912.062	10714
912.176	10782
912.291	10889
912.405	10942
912.519	11162
912.633	11067
912.748	11006
912.862	10911
912.976	10771
913.09	10569
913.204	10717
913.318	10801
913.431	10896
913.545	10862
913.659	10965
913.772	10774
913.886	10615
914	10599
914.113	10691
914.226	10725
914.34	10736
914.453	10584
914.566	10691
914.68	10588
914.793	10584
914.906	10462
915.019	10367
915.132	10348
915.245	10409
915.358	10413
915.47	10466
915.583	10382
915.696	10447
915.809	10531
915.921	10538
916.034	10390
916.146	10417
916.259	10322
916.371	10432
916.483	10390
916.595	10367
916.708	10333
916.82	10394
916.932	10360
917.044	10363
917.156	10344
917.268	10299
917.38	10242
917.491	10177
917.603	10295
917.715	10398
917.826	10303
917.938	10249
918.049	10116
918.161	10284
918.272	10386
918.384	10348
918.495	10333
918.606	10120
918.717	9968
918.828	10135
918.939	10185
919.05	10036
919.161	10044
919.272	9907
919.383	10006
919.494	10139
919.604	10402
919.715	10093
919.826	10021
919.936	10086
920.047	10268
920.157	10196
920.267	10379
920.378	10181
920.488	10135
920.598	10318
920.708	10516
920.818	10352
920.928	10242
921.038	10519
921.148	10421
921.258	10200
921.368	10139
921.477	10021
921.587	9991
921.697	9975
921.806	10010
921.916	9926
922.025	9743
922.134	9759
922.244	9690
922.353	9747
922.462	9523
922.571	9561
922.68	9386
922.789	9363
922.898	9416
923.007	9359
923.116	9428
923.224	9450
923.333	9298
923.442	9329
923.55	9336
923.659	9310
923.767	9355
923.876	9226
923.984	9344
924.092	9180
924.201	9287
924.309	9302
924.417	9287
924.525	9157
924.633	9264
924.741	10162
924.849	8994
924.956	9123
925.064	9020
925.172	8971
925.279	9032
925.387	9116
925.494	9074
925.602	9077
925.709	9173
925.816	8975
925.924	9058
926.031	9161
926.138	9104
926.245	9116
926.352	8967
926.459	9180
926.566	9211
926.673	9058
926.779	8914
926.886	8849
926.993	8762
927.099	8769
927.206	8731
927.312	8823
927.419	8861
927.525	8758
927.631	8823
927.737	8693
927.843	8640
927.95	8545
928.056	8606
928.162	8686
928.267	8674
928.373	9211
928.479	8785
928.585	8552
928.69	8678
928.796	8708
928.901	8575
929.007	8457
929.112	8575
929.218	8583
929.323	8533
929.428	8522
929.533	8617
929.638	8438
929.743	8514
929.848	8530
929.953	8469
930.058	8324
930.163	8187
930.267	8294
930.372	8427
930.477	8202
930.581	8454
930.685	8343
930.79	8180
930.894	8214
930.998	8176
931.103	8294
931.207	8096
931.311	7928
931.415	7864
931.519	7738
931.623	7696
