Data from test_V78500241_1423.txt Node
Date: Fri Mar 25 14:43:37 CST 2022
User: usil
Spectrometer: V785-0024
Trigger mode: 0
Integration Time (sec): 4.000000E-1
Scans to average: 1
Nonlinearity correction enabled: false
Boxcar width: 0
Storing dark spectrum: false
XAxis mode: Wavelengths
Number of Pixels in Spectrum: 1024
>>>>>Begin Spectral Data<<<<<
801.071	22432
801.214	22363
801.356	22070
801.499	22097
801.641	21865
801.783	21701
801.926	21759
802.068	21717
802.211	21701
802.353	21606
802.496	21389
802.638	21226
802.78	21348
802.923	21112
803.065	21055
803.208	21108
803.35	21188
803.492	21157
803.635	21184
803.777	21138
803.919	21062
804.061	21572
804.204	21203
804.346	20963
804.488	21154
804.63	21062
804.773	20937
804.915	21123
805.057	21214
805.199	21036
805.341	21066
805.483	21188
805.626	21138
805.768	21024
805.91	21051
806.052	21036
806.194	21013
806.336	21173
806.478	21001
806.62	21051
806.762	21032
806.904	21260
807.046	21629
807.188	21477
807.33	21428
807.472	21477
807.614	21275
807.756	21237
807.898	21260
808.04	21370
808.182	21302
808.324	21272
808.465	21367
808.607	21572
808.749	21629
808.891	21781
809.033	21934
809.174	21789
809.316	21557
809.458	21724
809.6	21515
809.741	21652
809.883	21549
810.025	21679
810.166	21808
810.308	21759
810.45	21580
810.591	21443
810.733	21443
810.875	21272
811.016	21127
811.158	21150
811.299	21313
811.441	21428
811.582	21203
811.724	21443
811.865	21188
812.007	21195
812.148	21188
812.29	21291
812.431	21374
812.573	21564
812.714	21686
812.855	21705
812.997	21846
813.138	21953
813.279	21895
813.421	21686
813.562	21717
813.703	21591
813.845	21405
813.986	21176
814.127	20956
814.268	20644
814.41	20659
814.551	20823
814.692	20861
814.833	20686
814.974	20899
815.115	20868
815.256	20602
815.397	20564
815.539	20552
815.68	20556
815.821	20469
815.962	20400
816.103	20518
816.244	20434
816.385	20278
816.526	20206
816.666	20096
816.807	19894
816.948	20043
817.089	20065
817.23	20088
817.371	19921
817.512	19951
817.653	19997
817.793	19883
817.934	19921
818.075	19856
818.216	19932
818.356	19860
818.497	19635
818.638	19548
818.778	19639
818.919	19575
819.06	19700
819.2	19765
819.341	19890
819.481	19715
819.622	19932
819.762	20084
819.903	20054
820.043	19989
820.184	19898
820.324	19944
820.465	20024
820.605	19917
820.746	19921
820.886	19719
821.026	19887
821.167	19772
821.307	19879
821.447	19757
821.588	19670
821.728	19594
821.868	19483
822.008	19266
822.149	19244
822.289	19232
822.429	19012
822.569	18901
822.709	19023
822.849	18863
822.99	18821
823.13	18859
823.27	18802
823.41	18650
823.55	18566
823.69	18559
823.83	18669
823.97	18467
824.11	18342
824.25	18262
824.389	18330
824.529	18475
824.669	18388
824.809	18540
824.949	18407
825.089	18365
825.228	18460
825.368	18064
825.508	18190
825.648	18163
825.787	18277
825.927	18220
826.067	18190
826.206	18174
826.346	18152
826.485	18136
826.625	18216
826.765	18186
826.904	18171
827.044	17912
827.183	17969
827.323	17817
827.462	17920
827.601	17828
827.741	17840
827.88	17912
828.02	17737
828.159	17775
828.298	17897
828.437	17897
828.577	17893
828.716	17988
828.855	17821
828.994	17661
829.134	17619
829.273	17623
829.412	17615
829.551	17570
829.69	17653
829.829	17657
829.968	17726
830.107	17581
830.246	17566
830.385	17558
830.524	17444
830.663	17406
830.802	17269
830.941	17254
831.08	17121
831.219	17208
831.357	17197
831.496	17528
831.635	17220
831.774	17140
831.913	17045
832.051	17033
832.19	17022
832.329	16999
832.467	16869
832.606	16774
832.744	16858
832.883	16847
833.022	16927
833.16	16820
833.299	16885
833.437	16896
833.576	16930
833.714	16881
833.852	17056
833.991	16968
834.129	17067
834.267	16965
834.406	16972
834.544	17033
834.682	16991
834.821	16885
834.959	17124
835.097	16911
835.235	17010
835.373	16957
835.511	17075
835.65	16812
835.788	16771
835.926	16664
836.064	16645
836.202	16706
836.34	16873
836.478	16866
836.615	16793
836.753	16885
836.891	16869
837.029	16835
837.167	16816
837.305	16793
837.443	16653
837.58	16771
837.718	16774
837.856	16752
837.993	16698
838.131	16729
838.269	16554
838.406	16527
838.544	16607
838.681	16424
838.819	16413
838.956	16333
839.094	16238
839.231	16344
839.369	16421
839.506	16615
839.643	16558
839.781	16261
839.918	16242
840.055	16322
840.193	16265
840.33	16219
840.467	16234
840.604	16192
840.742	16443
840.879	16177
841.016	16242
841.153	16280
841.29	16348
841.427	16219
841.564	16284
841.701	16265
841.838	16196
841.975	16162
842.112	16196
842.249	16017
842.385	15911
842.522	16128
842.659	16105
842.796	16097
842.933	15998
843.069	16090
843.206	15991
843.343	16188
843.479	15930
843.616	16044
843.752	15785
843.889	15804
844.025	16021
844.162	15827
844.298	15899
844.435	15838
844.571	15770
844.708	15907
844.844	16093
844.98	15979
845.117	16071
845.253	15789
845.389	15736
845.525	15865
845.661	15797
845.798	15880
845.934	15865
846.07	15857
846.206	15895
846.342	15930
846.478	15720
846.614	15606
846.75	15469
846.886	15473
847.022	15584
847.158	15355
847.294	15393
847.429	15454
847.565	15344
847.701	15500
847.837	15104
847.972	15066
848.108	15154
848.244	15233
848.379	15066
848.515	15039
848.65	14883
848.786	15013
848.921	14933
849.057	15047
849.192	15070
849.328	15032
849.463	14990
849.598	14925
849.734	14925
849.869	14849
850.004	14739
850.14	14838
850.275	14864
850.41	14712
850.545	14716
850.68	14727
850.815	14773
850.95	14781
851.085	14891
851.22	14800
851.355	14731
851.49	14659
851.625	14800
851.76	14792
851.895	14613
852.03	14610
852.165	14754
852.299	14792
852.434	14811
852.569	14724
852.703	14796
852.838	14895
852.973	14941
853.107	14864
853.242	14762
853.376	14602
853.511	14461
853.645	14526
853.78	14762
853.914	14583
854.048	14545
854.183	14575
854.317	14617
854.451	14807
854.585	14629
854.72	14621
854.854	14712
854.988	14545
855.122	14636
855.256	14480
855.39	14640
855.524	14625
855.658	14686
855.792	14724
855.926	14724
856.06	14663
856.194	14758
856.327	14549
856.461	14526
856.595	14632
856.729	14530
856.862	14800
856.996	14632
857.13	14701
857.263	14731
857.397	14739
857.53	14590
857.664	14792
857.797	14769
857.931	14651
858.064	14682
858.197	14724
858.331	14533
858.464	14556
858.597	14514
858.731	14648
858.864	14648
858.997	14651
859.13	14678
859.263	14583
859.396	14636
859.529	14629
859.662	14499
859.795	14610
859.928	14610
860.061	14823
860.194	14819
860.327	14655
860.46	14617
860.592	14731
860.725	14773
860.858	14701
860.99	14636
861.123	14556
861.256	14533
861.388	14590
861.521	15435
861.653	14492
861.786	14423
861.918	14461
862.05	14484
862.183	14499
862.315	14655
862.447	14564
862.58	14537
862.712	14377
862.844	14366
862.976	14431
863.108	14412
863.24	14872
863.372	14317
863.504	14370
863.636	14385
863.768	14412
863.9	14374
864.032	14446
864.164	14294
864.296	14465
864.428	14530
864.559	14450
864.691	14579
864.823	14492
864.954	14484
865.086	14450
865.217	14438
865.349	14240
865.48	14404
865.612	14358
865.743	14541
865.875	14374
866.006	14271
866.137	14374
866.269	14446
866.4	14419
866.531	14271
866.662	14385
866.793	14282
866.924	14355
867.055	14374
867.186	14339
867.317	14393
867.448	14278
867.579	14320
867.71	14377
867.841	14244
867.972	14408
868.103	14457
868.233	14415
868.364	14313
868.495	14454
868.625	14537
868.756	14682
868.886	14545
869.017	14636
869.147	14731
869.278	14788
869.408	14629
869.539	14602
869.669	14857
869.799	14651
869.929	14655
870.06	14712
870.19	14998
870.32	14899
870.45	14952
870.58	15020
870.71	15104
870.84	15104
870.97	14982
871.1	14941
871.23	15157
871.36	15062
871.489	15097
871.619	15222
871.749	15093
871.879	15294
872.008	15298
872.138	15176
872.267	15222
872.397	15077
872.526	15055
872.656	15020
872.785	15157
872.915	15211
873.044	15416
873.173	15188
873.303	15287
873.432	15370
873.561	15355
873.69	15405
873.819	15241
873.948	15336
874.077	15237
874.206	15306
874.335	15279
874.464	15477
874.593	15603
874.722	15420
874.851	15698
874.979	15572
875.108	15614
875.237	15481
875.365	15492
875.494	15488
875.623	15679
875.751	15526
875.88	15587
876.008	15641
876.136	15774
876.265	15983
876.393	16131
876.521	16162
876.65	16063
876.778	16032
876.906	15968
877.034	15895
877.162	15979
877.29	15945
877.418	15918
877.546	16032
877.674	15987
877.802	15956
877.93	15945
878.058	15972
878.185	15846
878.313	16006
878.441	15960
878.568	15884
878.696	15960
878.824	16116
878.951	16162
879.079	16207
879.206	16523
879.333	16352
879.461	16101
879.588	16257
879.715	16276
879.842	16291
879.97	16169
880.097	15972
880.224	15800
880.351	15876
880.478	15911
880.605	15842
880.732	15785
880.859	16109
880.986	15968
881.112	15956
881.239	15739
881.366	15557
881.493	15511
881.619	15572
881.746	15504
881.872	15439
881.999	15557
882.125	15393
882.252	15511
882.378	15542
882.505	15660
882.631	15492
882.757	15393
882.883	15393
883.01	15351
883.136	15382
883.262	15218
883.388	15188
883.514	15386
883.64	15325
883.766	15260
883.892	15237
884.018	15176
884.143	15348
884.269	15466
884.395	15161
884.52	15020
884.646	15009
884.772	14876
884.897	14941
885.023	15036
885.148	15127
885.274	15150
885.399	15154
885.524	15017
885.65	15058
885.775	14994
885.9	15005
886.025	15214
886.15	15074
886.275	15062
886.4	14918
886.525	15009
886.65	14883
886.775	14994
886.9	15199
887.025	15374
887.149	15020
887.274	14857
887.399	14830
887.523	14750
887.648	14697
887.773	14735
887.897	14986
888.021	14933
888.146	14716
888.27	14971
888.395	14990
888.519	14819
888.643	14929
888.767	14963
888.891	14785
889.015	14727
889.139	14758
889.263	14625
889.387	14815
889.511	14944
889.635	14785
889.759	14674
889.883	14743
890.006	14655
890.13	14895
890.254	14632
890.377	14739
890.501	14514
890.624	14454
890.748	14560
890.871	14400
890.995	14358
891.118	14324
891.241	14499
891.364	14370
891.488	14514
891.611	14366
891.734	14324
891.857	14514
891.98	14374
892.103	14480
892.226	14469
892.349	14385
892.471	14233
892.594	14419
892.717	14415
892.839	14332
892.962	14400
893.085	14484
893.207	14309
893.33	14199
893.452	14385
893.575	14396
893.697	14358
893.819	14606
893.941	14625
894.064	14556
894.186	14343
894.308	14377
894.43	14473
894.552	14583
894.674	14522
894.796	14358
894.918	14374
895.04	14336
895.161	14503
895.283	14514
895.405	14438
895.526	14488
895.648	14415
895.769	14492
895.891	14514
896.012	14606
896.134	14678
896.255	14644
896.376	14457
896.498	14594
896.619	14606
896.74	14689
896.861	14594
896.982	14902
897.103	14990
897.224	14800
897.345	14800
897.466	14807
897.587	14823
897.708	14921
897.828	14891
897.949	14754
898.07	14735
898.19	14815
898.311	14883
898.431	14830
898.552	14838
898.672	14975
898.792	15001
898.913	14963
899.033	14800
899.153	14758
899.273	14625
899.393	14720
899.513	14807
899.633	14697
899.753	14758
899.873	14720
899.993	14857
900.113	14796
900.232	14716
900.352	14739
900.472	14579
900.591	14606
900.711	14678
900.83	14575
900.95	14640
901.069	14689
901.189	14545
901.308	14317
901.427	14237
901.546	14259
901.665	14286
901.784	14290
901.904	14199
902.023	14103
902.141	13986
902.26	13974
902.379	13890
902.498	13849
902.617	13772
902.735	13830
902.854	13871
902.973	13776
903.091	13597
903.21	13533
903.328	13464
903.446	13495
903.565	13457
903.683	13415
903.801	13304
903.919	13343
904.038	13331
904.156	13225
904.274	13278
904.392	13225
904.51	13217
904.627	13110
904.745	13149
904.863	13312
904.981	13065
905.098	12913
905.216	12943
905.334	12905
905.451	12943
905.569	12913
905.686	12962
905.803	12951
905.921	12741
906.038	12863
906.155	12753
906.272	12608
906.389	12627
906.506	12528
906.623	12502
906.74	12490
906.857	12372
906.974	12471
907.091	12490
907.208	12563
907.324	12536
907.441	12353
907.557	12277
907.674	12304
907.79	12201
907.907	12205
908.023	12273
908.139	12254
908.256	12243
908.372	12186
908.488	12205
908.604	12034
908.72	12079
908.836	11999
908.952	11885
909.068	12076
909.184	12087
909.3	12022
909.415	12102
909.531	12011
909.647	11748
909.762	11767
909.878	11722
909.993	11726
910.108	11783
910.224	11767
910.339	11817
910.454	11767
910.57	11608
910.685	11611
910.8	11893
910.915	11748
911.03	11695
911.145	11455
911.259	11452
911.374	11493
911.489	11414
911.604	11337
911.718	11140
911.833	11216
911.947	11086
912.062	10972
912.176	11185
912.291	11212
912.405	11185
912.519	11383
912.633	11376
912.748	11307
912.862	11181
912.976	11048
913.09	10942
913.204	11014
913.318	11102
913.431	11235
913.545	11113
913.659	11155
913.772	11079
913.886	10987
914	10961
914.113	11071
914.226	11025
914.34	11018
914.453	10812
914.566	11121
914.68	10915
914.793	10911
914.906	10733
915.019	10691
915.132	10531
915.245	10660
915.358	10771
915.47	10733
915.583	10729
915.696	10774
915.809	10828
915.921	10885
916.034	10592
916.146	10717
916.259	10698
916.371	10752
916.483	10816
916.595	10622
916.708	10618
916.82	10626
916.932	10580
917.044	10577
917.156	10634
917.268	10535
917.38	10512
917.491	10519
917.603	10618
917.715	10554
917.826	10691
917.938	10455
918.049	10386
918.161	10535
918.272	10634
918.384	10706
918.495	10565
918.606	10428
918.717	10390
918.828	10386
918.939	10356
919.05	10280
919.161	10455
919.272	10265
919.383	10246
919.494	10440
919.604	10573
919.715	10417
919.826	10424
919.936	10424
920.047	10462
920.157	10470
920.267	10592
920.378	10424
920.488	10367
920.598	10630
920.708	10809
920.818	10596
920.928	10656
921.038	10805
921.148	10763
921.258	10485
921.368	10382
921.477	10257
921.587	10223
921.697	10093
921.806	10379
921.916	10173
922.025	9922
922.134	9998
922.244	9937
922.353	10067
922.462	9850
922.571	9720
922.68	9713
922.789	9622
922.898	9637
923.007	9660
923.116	9682
923.224	9660
923.333	9641
923.442	9534
923.55	9526
923.659	9591
923.767	9603
923.876	9511
923.984	9580
924.092	9439
924.201	9545
924.309	9481
924.417	9466
924.525	9466
924.633	9477
924.741	10386
924.849	9291
924.956	9450
925.064	9214
925.172	9245
925.279	9203
925.387	9294
925.494	9313
925.602	9443
925.709	9367
925.816	9256
925.924	9298
926.031	9351
926.138	9237
926.245	9329
926.352	9199
926.459	9332
926.566	9374
926.673	9272
926.779	9154
926.886	9173
926.993	9017
927.099	9051
927.206	8963
927.312	8933
927.419	9066
927.525	8998
927.631	9085
927.737	8937
927.843	8902
927.95	8716
928.056	8876
928.162	8876
928.267	8944
928.373	9637
928.479	8933
928.585	8743
928.69	8861
928.796	8921
928.901	8830
929.007	8617
929.112	8785
929.218	8807
929.323	8731
929.428	8701
929.533	8853
929.638	8606
929.743	8682
929.848	8785
929.953	8678
930.058	8590
930.163	8465
930.267	8480
930.372	8583
930.477	8431
930.581	8720
930.685	8514
930.79	8434
930.894	8522
930.998	8446
931.103	8537
931.207	8233
931.311	8172
931.415	8103
931.519	7989
931.623	7852
