Data from test_V78500241_1634.txt Node
Date: Fri Mar 25 14:45:05 CST 2022
User: usil
Spectrometer: V785-0024
Trigger mode: 0
Integration Time (sec): 4.000000E-1
Scans to average: 1
Nonlinearity correction enabled: false
Boxcar width: 0
Storing dark spectrum: false
XAxis mode: Wavelengths
Number of Pixels in Spectrum: 1024
>>>>>Begin Spectral Data<<<<<
801.071	22211
801.214	22211
801.356	22017
801.499	21876
801.641	21812
801.783	21572
801.926	21759
802.068	21618
802.211	21572
802.353	21462
802.496	21207
802.638	21218
802.78	21230
802.923	21108
803.065	21001
803.208	21017
803.35	20975
803.492	21039
803.635	21154
803.777	21051
803.919	21203
804.061	21340
804.204	21020
804.346	20918
804.488	20857
804.63	20990
804.773	20857
804.915	20990
805.057	21062
805.199	20986
805.341	20956
805.483	21131
805.626	20918
805.768	20872
805.91	20952
806.052	20948
806.194	20891
806.336	20979
806.478	20902
806.62	20914
806.762	20994
806.904	21085
807.046	21325
807.188	21230
807.33	21393
807.472	21298
807.614	21226
807.756	21169
807.898	21237
808.04	21013
808.182	21058
808.324	21066
808.465	21051
808.607	21325
808.749	21408
808.891	21412
809.033	21462
809.174	21576
809.316	21355
809.458	21310
809.6	21351
809.741	21374
809.883	21443
810.025	21504
810.166	21443
810.308	21545
810.45	21424
810.591	21226
810.733	21272
810.875	21112
811.016	20982
811.158	21051
811.299	21058
811.441	21287
811.582	21123
811.724	21150
811.865	21100
812.007	21142
812.148	21256
812.29	21104
812.431	21336
812.573	21382
812.714	21469
812.855	21603
812.997	21701
813.138	21793
813.279	21713
813.421	21526
813.562	21553
813.703	21355
813.845	21173
813.986	20941
814.127	20838
814.268	20606
814.41	20663
814.551	20602
814.692	20731
814.833	20556
814.974	20552
815.115	20598
815.256	20465
815.397	20473
815.539	20503
815.68	20313
815.821	20423
815.962	20454
816.103	20446
816.244	20259
816.385	20130
816.526	20065
816.666	19970
816.807	19864
816.948	19822
817.089	20012
817.23	19830
817.371	19814
817.512	19837
817.653	19780
817.793	19795
817.934	19879
818.075	19811
818.216	19860
818.356	19685
818.497	19525
818.638	19449
818.778	19499
818.919	19563
819.06	19499
819.2	19571
819.341	19708
819.481	19605
819.622	19715
819.762	19860
819.903	19955
820.043	19852
820.184	19837
820.324	19849
820.465	19841
820.605	19784
820.746	19731
820.886	19742
821.026	19757
821.167	19738
821.307	19772
821.447	19620
821.588	19548
821.728	19445
821.868	19274
822.008	19187
822.149	19164
822.289	19145
822.429	18916
822.569	18817
822.709	18894
822.849	18582
822.99	18677
823.13	18688
823.27	18688
823.41	18441
823.55	18376
823.69	18437
823.83	18521
823.97	18422
824.11	18224
824.25	18106
824.389	18194
824.529	18418
824.669	18171
824.809	18365
824.949	18452
825.089	18266
825.228	18190
825.368	18133
825.508	18057
825.648	18110
825.787	18026
825.927	18201
826.067	18041
826.206	18041
826.346	18022
826.485	18003
826.625	18003
826.765	18133
826.904	18007
827.044	17798
827.183	17767
827.323	17714
827.462	17855
827.601	17653
827.741	17676
827.88	17741
828.02	17699
828.159	17703
828.298	17775
828.437	17771
828.577	17570
828.716	17817
828.855	17699
828.994	17497
829.134	17471
829.273	17486
829.412	17398
829.551	17440
829.69	17341
829.829	17391
829.968	17573
830.107	17505
830.246	17528
830.385	17322
830.524	17353
830.663	17311
830.802	17246
830.941	17117
831.08	16938
831.219	17250
831.357	17079
831.496	17223
831.635	17094
831.774	16968
831.913	16987
832.051	16862
832.19	16930
832.329	16763
832.467	16820
832.606	16679
832.744	16771
832.883	16805
833.022	16717
833.16	16626
833.299	16786
833.437	16854
833.576	16740
833.714	16790
833.852	16752
833.991	16816
834.129	16881
834.267	16763
834.406	16759
834.544	16930
834.682	16755
834.821	16786
834.959	17033
835.097	16824
835.235	16946
835.373	16774
835.511	16790
835.65	16668
835.788	16759
835.926	16573
836.064	16531
836.202	16565
836.34	16778
836.478	16877
836.615	16740
836.753	16672
836.891	16793
837.029	16721
837.167	16767
837.305	16702
837.443	16527
837.58	16462
837.718	16626
837.856	16668
837.993	16554
838.131	16634
838.269	16531
838.406	16398
838.544	16451
838.681	16238
838.819	16211
838.956	16032
839.094	16135
839.231	16154
839.369	16253
839.506	16489
839.643	16295
839.781	16150
839.918	16059
840.055	16154
840.193	16025
840.33	16063
840.467	16120
840.604	16067
840.742	16322
840.879	16063
841.016	16063
841.153	16051
841.29	16215
841.427	16124
841.564	16173
841.701	16188
841.838	16082
841.975	16048
842.112	15945
842.249	16010
842.385	15888
842.522	16032
842.659	15838
842.796	15953
842.933	15884
843.069	15755
843.206	15778
843.343	16025
843.479	15793
843.616	15846
843.752	15747
843.889	15660
844.025	15774
844.162	15660
844.298	15720
844.435	15587
844.571	15599
844.708	15724
844.844	15785
844.98	15793
845.117	15823
845.253	15564
845.389	15603
845.525	15694
845.661	15625
845.798	15519
845.934	15519
846.07	15545
846.206	15603
846.342	15625
846.478	15572
846.614	15329
846.75	15207
846.886	15203
847.022	15340
847.158	15226
847.294	15317
847.429	15199
847.565	15279
847.701	15485
847.837	14960
847.972	14960
848.108	15009
848.244	15043
848.379	14929
848.515	14807
848.65	14849
848.786	14819
848.921	14941
849.057	14906
849.192	14948
849.328	14891
849.463	14857
849.598	14781
849.734	14754
849.869	14712
850.004	14648
850.14	14670
850.275	14682
850.41	14556
850.545	14667
850.68	14629
850.815	14674
850.95	14617
851.085	14800
851.22	14720
851.355	14594
851.49	14663
851.625	14488
851.76	14625
851.895	14552
852.03	14442
852.165	14469
852.299	14724
852.434	14682
852.569	14746
852.703	14682
852.838	14701
852.973	14807
853.107	14773
853.242	14697
853.376	14533
853.511	14476
853.645	14396
853.78	14705
853.914	14587
854.048	14412
854.183	14598
854.317	14533
854.451	14708
854.585	14503
854.72	14465
854.854	14537
854.988	14423
855.122	14518
855.256	14320
855.39	14446
855.524	14511
855.658	14450
855.792	14533
855.926	14522
856.06	14575
856.194	14640
856.327	14476
856.461	14450
856.595	14495
856.729	14507
856.862	14537
856.996	14495
857.13	14541
857.263	14575
857.397	14648
857.53	14579
857.664	14602
857.797	14579
857.931	14682
858.064	14457
858.197	14492
858.331	14514
858.464	14446
858.597	14442
858.731	14587
858.864	14480
858.997	14457
859.13	14571
859.263	14602
859.396	14488
859.529	14457
859.662	14454
859.795	14511
859.928	14514
860.061	14689
860.194	14610
860.327	14541
860.46	14503
860.592	14594
860.725	14648
860.858	14686
860.99	14526
861.123	14389
861.256	14461
861.388	14530
861.521	15279
861.653	14412
861.786	14317
861.918	14298
862.05	14419
862.183	14480
862.315	14473
862.447	14476
862.58	14457
862.712	14180
862.844	14214
862.976	14362
863.108	14339
863.24	14686
863.372	14240
863.504	14259
863.636	14336
863.768	14237
863.9	14294
864.032	14187
864.164	14225
864.296	14267
864.428	14366
864.559	14324
864.691	14377
864.823	14351
864.954	14332
865.086	14313
865.217	14275
865.349	14161
865.48	14336
865.612	14233
865.743	14362
865.875	14180
866.006	14202
866.137	14275
866.269	14244
866.4	14252
866.531	14206
866.662	14168
866.793	14142
866.924	14328
867.055	14275
867.186	14305
867.317	14199
867.448	14119
867.579	14271
867.71	14149
867.841	14123
867.972	14263
868.103	14229
868.233	14286
868.364	14301
868.495	14263
868.625	14556
868.756	14571
868.886	14434
869.017	14438
869.147	14606
869.278	14594
869.408	14590
869.539	14473
869.669	14613
869.799	14587
869.929	14549
870.06	14575
870.19	14857
870.32	14800
870.45	14788
870.58	14910
870.71	15020
870.84	15066
870.97	14933
871.1	14918
871.23	15047
871.36	15104
871.489	15009
871.619	15131
871.749	15089
871.879	15116
872.008	15188
872.138	15085
872.267	15043
872.397	15051
872.526	14906
872.656	14941
872.785	14933
872.915	15142
873.044	15188
873.173	15142
873.303	15173
873.432	15173
873.561	15165
873.69	15176
873.819	15192
873.948	15218
874.077	15211
874.206	15089
874.335	15237
874.464	15287
874.593	15458
874.722	15310
874.851	15481
874.979	15492
875.108	15553
875.237	15439
875.365	15405
875.494	15420
875.623	15542
875.751	15412
875.88	15526
876.008	15580
876.136	15660
876.265	15911
876.393	15960
876.521	15956
876.65	15941
876.778	15892
876.906	15903
877.034	15778
877.162	15793
877.29	15812
877.418	15895
877.546	15899
877.674	15861
877.802	15865
877.93	15880
878.058	15869
878.185	15812
878.313	15991
878.441	15861
878.568	15747
878.696	15827
878.824	15903
878.951	15949
879.079	16063
879.206	16268
879.333	16013
879.461	15911
879.588	16002
879.715	16013
879.842	16230
879.97	15888
880.097	15724
880.224	15819
880.351	15816
880.478	15720
880.605	15751
880.732	15656
880.859	15930
880.986	15709
881.112	15865
881.239	15629
881.366	15496
881.493	15542
881.619	15378
881.746	15382
881.872	15382
881.999	15367
882.125	15447
882.252	15504
882.378	15401
882.505	15526
882.631	15348
882.757	15230
882.883	15283
883.01	15222
883.136	15081
883.262	15047
883.388	15066
883.514	15188
883.64	15256
883.766	15173
883.892	15001
884.018	14963
884.143	15165
884.269	15355
884.395	14895
884.52	14876
884.646	14857
884.772	14807
884.897	14800
885.023	14876
885.148	15013
885.274	15028
885.399	15089
885.524	14986
885.65	14933
885.775	14979
885.9	15001
886.025	14998
886.15	14861
886.275	14849
886.4	14880
886.525	14910
886.65	14693
886.775	14788
886.9	14944
887.025	15097
887.149	14902
887.274	14678
887.399	14689
887.523	14648
887.648	14667
887.773	14556
887.897	14788
888.021	14731
888.146	14724
888.27	14811
888.395	14895
888.519	14762
888.643	14731
888.767	14777
888.891	14632
889.015	14480
889.139	14636
889.263	14602
889.387	14769
889.511	14769
889.635	14670
889.759	14579
889.883	14556
890.006	14610
890.13	14708
890.254	14545
890.377	14537
890.501	14320
890.624	14313
890.748	14454
890.871	14370
890.995	14282
891.118	14248
891.241	14328
891.364	14381
891.488	14461
891.611	14332
891.734	14328
891.857	14355
891.98	14298
892.103	14431
892.226	14290
892.349	14233
892.471	14164
892.594	14256
892.717	14240
892.839	14290
892.962	14301
893.085	14282
893.207	14358
893.33	14199
893.452	14161
893.575	14278
893.697	14202
893.819	14393
893.941	14396
894.064	14427
894.186	14328
894.308	14161
894.43	14415
894.552	14450
894.674	14465
894.796	14195
894.918	14252
895.04	14313
895.161	14434
895.283	14396
895.405	14305
895.526	14461
895.648	14381
895.769	14351
895.891	14476
896.012	14492
896.134	14598
896.255	14450
896.376	14389
896.498	14473
896.619	14495
896.74	14454
896.861	14434
896.982	14849
897.103	14891
897.224	14682
897.345	14632
897.466	14640
897.587	14746
897.708	14876
897.828	14765
897.949	14724
898.07	14495
898.19	14670
898.311	14857
898.431	14735
898.552	14746
898.672	14819
898.792	14815
898.913	14743
899.033	14701
899.153	14617
899.273	14434
899.393	14659
899.513	14644
899.633	14667
899.753	14754
899.873	14727
899.993	14716
900.113	14579
900.232	14746
900.352	14716
900.472	14556
900.591	14450
900.711	14590
900.83	14461
900.95	14659
901.069	14670
901.189	14495
901.308	14233
901.427	14111
901.546	14081
901.665	14191
901.784	14153
901.904	14100
902.023	13913
902.141	13765
902.26	13677
902.379	13788
902.498	13715
902.617	13795
902.735	13818
902.854	13700
902.973	13639
903.091	13476
903.21	13426
903.328	13483
903.446	13411
903.565	13308
903.683	13324
903.801	13297
903.919	13312
904.038	13206
904.156	13160
904.274	13164
904.392	13129
904.51	13141
904.627	13088
904.745	13122
904.863	13164
904.981	12882
905.098	12764
905.216	12833
905.334	12909
905.451	12817
905.569	12871
905.686	12840
905.803	12810
905.921	12604
906.038	12665
906.155	12684
906.272	12540
906.389	12582
906.506	12410
906.623	12407
906.74	12414
906.857	12292
906.974	12296
907.091	12452
907.208	12559
907.324	12418
907.441	12308
907.557	12251
907.674	12186
907.79	12053
907.907	12121
908.023	12155
908.139	12091
908.256	12152
908.372	12136
908.488	12007
908.604	11893
908.72	11904
908.836	11908
908.952	11863
909.068	11935
909.184	12019
909.3	11904
909.415	11961
909.531	11855
909.647	11668
909.762	11710
909.878	11699
909.993	11672
910.108	11649
910.224	11570
910.339	11703
910.454	11619
910.57	11516
910.685	11425
910.8	11748
910.915	11672
911.03	11512
911.145	11455
911.259	11299
911.374	11261
911.489	11406
911.604	11121
911.718	11067
911.833	11143
911.947	11025
912.062	10949
912.176	11086
912.291	11102
912.405	11041
912.519	11322
912.633	11288
912.748	11246
912.862	11151
912.976	11067
913.09	10854
913.204	11037
913.318	10957
913.431	11083
913.545	11025
913.659	11060
913.772	10968
913.886	10862
914	10896
914.113	11003
914.226	10896
914.34	10908
914.453	10774
914.566	10980
914.68	10892
914.793	10850
914.906	10656
915.019	10569
915.132	10588
915.245	10668
915.358	10656
915.47	10596
915.583	10653
915.696	10786
915.809	10869
915.921	10759
916.034	10603
916.146	10596
916.259	10622
916.371	10626
916.483	10653
916.595	10538
916.708	10599
916.82	10668
916.932	10592
917.044	10531
917.156	10569
917.268	10462
917.38	10382
917.491	10405
917.603	10554
917.715	10527
917.826	10565
917.938	10440
918.049	10329
918.161	10538
918.272	10656
918.384	10546
918.495	10569
918.606	10261
918.717	10246
918.828	10306
918.939	10417
919.05	10272
919.161	10356
919.272	10109
919.383	10196
919.494	10371
919.604	10622
919.715	10382
919.826	10299
919.936	10287
920.047	10428
920.157	10375
920.267	10550
920.378	10367
920.488	10310
920.598	10672
920.708	10672
920.818	10500
920.928	10561
921.038	10668
921.148	10736
921.258	10500
921.368	10306
921.477	10147
921.587	10223
921.697	10192
921.806	10219
921.916	10162
922.025	9975
922.134	9941
922.244	9854
922.353	9934
922.462	9819
922.571	9816
922.68	9637
922.789	9629
922.898	9637
923.007	9534
923.116	9580
923.224	9599
923.333	9568
923.442	9515
923.55	9504
923.659	9530
923.767	9538
923.876	9462
923.984	9500
924.092	9374
924.201	9428
924.309	9469
924.417	9504
924.525	9447
924.633	9431
924.741	10143
924.849	9294
924.956	9473
925.064	9211
925.172	9146
925.279	9188
925.387	9256
925.494	9245
925.602	9416
925.709	9363
925.816	9241
925.924	9287
926.031	9302
926.138	9275
926.245	9317
926.352	9245
926.459	9382
926.566	9351
926.673	9211
926.779	9161
926.886	9127
926.993	9028
927.099	8994
927.206	9020
927.312	8960
927.419	9074
927.525	8941
927.631	9043
927.737	8883
927.843	8883
927.95	8796
928.056	8788
928.162	8880
928.267	8925
928.373	9477
928.479	9001
928.585	8720
928.69	8876
928.796	8849
928.901	8762
929.007	8659
929.112	8781
929.218	8800
929.323	8724
929.428	8686
929.533	8830
929.638	8640
929.743	8667
929.848	8670
929.953	8659
930.058	8590
930.163	8419
930.267	8514
930.372	8594
930.477	8461
930.581	8598
930.685	8610
930.79	8370
930.894	8438
930.998	8370
931.103	8492
931.207	8180
931.311	8138
931.415	8050
931.519	7871
931.623	7875
