Data from test_V78500241_411.txt Node
Date: Fri Mar 25 14:36:35 CST 2022
User: usil
Spectrometer: V785-0024
Trigger mode: 0
Integration Time (sec): 4.000000E-1
Scans to average: 1
Nonlinearity correction enabled: false
Boxcar width: 0
Storing dark spectrum: false
XAxis mode: Wavelengths
Number of Pixels in Spectrum: 1024
>>>>>Begin Spectral Data<<<<<
801.071	26670
801.214	26495
801.356	26271
801.499	26187
801.641	25986
801.783	26119
801.926	26122
802.068	26024
802.211	25955
802.353	25841
802.496	25731
802.638	25734
802.78	25563
802.923	25685
803.065	25499
803.208	25567
803.35	25476
803.492	25677
803.635	25685
803.777	25662
803.919	25658
804.061	25947
804.204	25666
804.346	25639
804.488	25521
804.63	25449
804.773	25491
804.915	25609
805.057	25693
805.199	25575
805.341	25605
805.483	25731
805.626	25674
805.768	25666
805.91	25616
806.052	25693
806.194	25445
806.336	25833
806.478	25635
806.62	25609
806.762	25826
806.904	25917
807.046	26126
807.188	25925
807.33	25932
807.472	25997
807.614	25803
807.756	26107
807.898	25719
808.04	25704
808.182	25791
808.324	25928
808.465	25765
808.607	25868
808.749	25997
808.891	26126
809.033	26343
809.174	26103
809.316	26084
809.458	26168
809.6	26107
809.741	26161
809.883	26225
810.025	26343
810.166	26206
810.308	26427
810.45	26142
810.591	26263
810.733	25906
810.875	25875
811.016	25989
811.158	25715
811.299	26001
811.441	26069
811.582	26096
811.724	25936
811.865	26001
812.007	25868
812.148	26054
812.29	26043
812.431	26134
812.573	26176
812.714	26294
812.855	26343
812.997	26530
813.138	26670
813.279	26438
813.421	26492
813.562	26317
813.703	26309
813.845	26126
813.986	25879
814.127	25723
814.268	25457
814.41	25487
814.551	25453
814.692	25639
814.833	25381
814.974	25460
815.115	25362
815.256	25285
815.397	25293
815.539	25381
815.68	25285
815.821	25202
815.962	25190
816.103	25156
816.244	25118
816.385	24954
816.526	24973
816.666	24928
816.807	24707
816.948	24738
817.089	24757
817.23	24612
817.371	24616
817.512	24665
817.653	24486
817.793	24688
817.934	24719
818.075	24760
818.216	24681
818.356	24631
818.497	24559
818.638	24350
818.778	24327
818.919	24315
819.06	24410
819.2	24346
819.341	24532
819.481	24467
819.622	24688
819.762	24795
819.903	24722
820.043	24791
820.184	24582
820.324	24681
820.465	24692
820.605	24719
820.746	24513
820.886	24403
821.026	24574
821.167	24467
821.307	24559
821.447	24414
821.588	24296
821.728	24232
821.868	24163
822.008	23996
822.149	23946
822.289	23863
822.429	23570
822.569	23611
822.709	23661
822.849	23356
822.99	23414
823.13	23334
823.27	23277
823.41	23189
823.55	23174
823.69	23250
823.83	23239
823.97	23181
824.11	22934
824.25	22919
824.389	22980
824.529	22965
824.669	22923
824.809	22942
824.949	23048
825.089	23033
825.228	22892
825.368	22782
825.508	22755
825.648	22869
825.787	22763
825.927	22889
826.067	22713
826.206	22767
826.346	22866
826.485	22850
826.625	22805
826.765	22889
826.904	22752
827.044	22588
827.183	22424
827.323	22462
827.462	22421
827.601	22474
827.741	22489
827.88	22497
828.02	22352
828.159	22367
828.298	22436
828.437	22447
828.577	22310
828.716	22405
828.855	22310
828.994	22150
829.134	22192
829.273	22090
829.412	22010
829.551	22070
829.69	22101
829.829	22097
829.968	22158
830.107	22158
830.246	21975
830.385	22116
830.524	22040
830.663	21960
830.802	21876
830.941	21857
831.08	21720
831.219	21701
831.357	21686
831.496	21907
831.635	21686
831.774	21610
831.913	21572
832.051	21477
832.19	21466
832.329	21538
832.467	21454
832.606	21313
832.744	21439
832.883	21287
833.022	21393
833.16	21481
833.299	21294
833.437	21302
833.576	21332
833.714	21382
833.852	21401
833.991	21431
834.129	21500
834.267	21405
834.406	21344
834.544	21454
834.682	21332
834.821	21336
834.959	21412
835.097	21367
835.235	21443
835.373	21302
835.511	21332
835.65	21222
835.788	21252
835.926	21062
836.064	21001
836.202	21051
836.34	21203
836.478	21241
836.615	21222
836.753	21287
836.891	21184
837.029	21298
837.167	21108
837.305	21207
837.443	21077
837.58	21104
837.718	21199
837.856	21013
837.993	21165
838.131	21074
838.269	20971
838.406	20963
838.544	20823
838.681	20777
838.819	20765
838.956	20514
839.094	20552
839.231	20571
839.369	20667
839.506	20952
839.643	20811
839.781	20377
839.918	20541
840.055	20533
840.193	20530
840.33	20450
840.467	20415
840.604	20526
840.742	20712
840.879	20320
841.016	20374
841.153	20332
841.29	20347
841.427	20370
841.564	20427
841.701	20457
841.838	20317
841.975	20290
842.112	20286
842.249	20107
842.385	20138
842.522	20332
842.659	20172
842.796	20240
842.933	20001
843.069	20054
843.206	20069
843.343	20191
843.479	20122
843.616	20050
843.752	19830
843.889	19906
844.025	20164
844.162	19856
844.298	20069
844.435	19879
844.571	19970
844.708	19967
844.844	20062
844.98	20088
845.117	20027
845.253	19818
845.389	19913
845.525	19822
845.661	19860
845.798	19655
845.934	19685
846.07	19651
846.206	19826
846.342	19811
846.478	19666
846.614	19506
846.75	19373
846.886	19255
847.022	19403
847.158	19525
847.294	19415
847.429	19354
847.565	19316
847.701	19674
847.837	19050
847.972	19110
848.108	19221
848.244	19145
848.379	18935
848.515	19027
848.65	18894
848.786	18901
848.921	18958
849.057	18996
849.192	18993
849.328	18878
849.463	18954
849.598	19004
849.734	18878
849.869	18768
850.004	18738
850.14	18707
850.275	18787
850.41	18631
850.545	18627
850.68	18623
850.815	18738
850.95	18749
851.085	18829
851.22	18745
851.355	18757
851.49	18673
851.625	18570
851.76	18574
851.895	18422
852.03	18559
852.165	18654
852.299	18597
852.434	18688
852.569	18620
852.703	18654
852.838	18677
852.973	18795
853.107	18730
853.242	18684
853.376	18494
853.511	18292
853.645	18422
853.78	18612
853.914	18433
854.048	18441
854.183	18479
854.317	18426
854.451	18639
854.585	18384
854.72	18384
854.854	18540
854.988	18506
855.122	18456
855.256	18517
855.39	18422
855.524	18536
855.658	18517
855.792	18475
855.926	18464
856.06	18494
856.194	18547
856.327	18464
856.461	18445
856.595	18441
856.729	18479
856.862	18525
856.996	18517
857.13	18532
857.263	18589
857.397	18589
857.53	18342
857.664	18555
857.797	18544
857.931	18536
858.064	18422
858.197	18555
858.331	18456
858.464	18353
858.597	18251
858.731	18353
858.864	18391
858.997	18372
859.13	18532
859.263	18506
859.396	18376
859.529	18391
859.662	18338
859.795	18384
859.928	18433
860.061	18540
860.194	18506
860.327	18407
860.46	18448
860.592	18486
860.725	18448
860.858	18661
860.99	18467
861.123	18338
861.256	18315
861.388	18426
861.521	19198
861.653	18327
861.786	18174
861.918	18216
862.05	18448
862.183	18414
862.315	18517
862.447	18441
862.58	18448
862.712	18102
862.844	18114
862.976	18266
863.108	18220
863.24	18502
863.372	18095
863.504	18114
863.636	18011
863.768	18163
863.9	18110
864.032	18095
864.164	18136
864.296	18076
864.428	18201
864.559	18247
864.691	18171
864.823	18007
864.954	18133
865.086	18114
865.217	18110
865.349	18022
865.48	18022
865.612	18102
865.743	18266
865.875	18079
866.006	18026
866.137	17992
866.269	18068
866.4	18072
866.531	17996
866.662	18049
866.793	17980
866.924	18045
867.055	18140
867.186	18072
867.317	17961
867.448	17874
867.579	18030
867.71	17961
867.841	17923
867.972	18030
868.103	18129
868.233	17988
868.364	17950
868.495	18076
868.625	18194
868.756	18350
868.886	18133
869.017	18144
869.147	18273
869.278	18429
869.408	18254
869.539	18281
869.669	18315
869.799	18380
869.929	18342
870.06	18304
870.19	18467
870.32	18563
870.45	18566
870.58	18601
870.71	18692
870.84	18741
870.97	18620
871.1	18639
871.23	18722
871.36	18840
871.489	18726
871.619	18787
871.749	18882
871.879	18787
872.008	18985
872.138	18829
872.267	18894
872.397	18646
872.526	18658
872.656	18722
872.785	18757
872.915	18837
873.044	18913
873.173	18844
873.303	18897
873.432	18924
873.561	18924
873.69	18901
873.819	18867
873.948	18973
874.077	18844
874.206	18825
874.335	18833
874.464	18962
874.593	19114
874.722	19091
874.851	19122
874.979	19225
875.108	19160
875.237	19084
875.365	19000
875.494	19080
875.623	19209
875.751	19122
875.88	19160
876.008	19202
876.136	19312
876.265	19537
876.393	19723
876.521	19624
876.65	19578
876.778	19468
876.906	19521
877.034	19388
877.162	19502
877.29	19381
877.418	19693
877.546	19635
877.674	19594
877.802	19468
877.93	19464
878.058	19563
878.185	19430
878.313	19651
878.441	19586
878.568	19327
878.696	19582
878.824	19548
878.951	19563
879.079	19662
879.206	19856
879.333	19632
879.461	19594
879.588	19658
879.715	19803
879.842	19791
879.97	19548
880.097	19377
880.224	19304
880.351	19365
880.478	19365
880.605	19381
880.732	19339
880.859	19597
880.986	19430
881.112	19411
881.239	19228
881.366	19061
881.493	19000
881.619	19046
881.746	19038
881.872	19042
881.999	19038
882.125	18817
882.252	19095
882.378	18916
882.505	19148
882.631	18859
882.757	18833
882.883	18840
883.01	18760
883.136	18741
883.262	18620
883.388	18639
883.514	18722
883.64	18890
883.766	18597
883.892	18483
884.018	18597
884.143	18806
884.269	18882
884.395	18429
884.52	18490
884.646	18437
884.772	18350
884.897	18342
885.023	18467
885.148	18536
885.274	18513
885.399	18506
885.524	18445
885.65	18498
885.775	18467
885.9	18372
886.025	18403
886.15	18448
886.275	18448
886.4	18395
886.525	18448
886.65	18376
886.775	18338
886.9	18475
887.025	18707
887.149	18338
887.274	18197
887.399	18292
887.523	18262
887.648	18254
887.773	18114
887.897	18289
888.021	18247
888.146	18224
888.27	18281
888.395	18213
888.519	18201
888.643	18213
888.767	18266
888.891	18057
889.015	18049
889.139	18121
889.263	18030
889.387	18251
889.511	18178
889.635	18277
889.759	18053
889.883	18045
890.006	18068
890.13	18098
890.254	17912
890.377	17950
890.501	17771
890.624	17760
890.748	17923
890.871	17718
890.995	17619
891.118	17638
891.241	17699
891.364	17657
891.488	17802
891.611	17493
891.734	17714
891.857	17741
891.98	17630
892.103	17786
892.226	17657
892.349	17661
892.471	17501
892.594	17493
892.717	17589
892.839	17558
892.962	17608
893.085	17733
893.207	17524
893.33	17490
893.452	17592
893.575	17710
893.697	17551
893.819	17722
893.941	17779
894.064	17802
894.186	17539
894.308	17493
894.43	17638
894.552	17813
894.674	17680
894.796	17570
894.918	17528
895.04	17509
895.161	17630
895.283	17707
895.405	17516
895.526	17600
895.648	17676
895.769	17653
895.891	17657
896.012	17824
896.134	17695
896.255	17752
896.376	17585
896.498	17585
896.619	17760
896.74	17646
896.861	17771
896.982	18121
897.103	18262
897.224	17942
897.345	18011
897.466	17775
897.587	17885
897.708	18003
897.828	17920
897.949	17889
898.07	17657
898.19	17889
898.311	17980
898.431	17916
898.552	17965
898.672	17973
898.792	17950
898.913	17950
899.033	17851
899.153	17855
899.273	17600
899.393	17741
899.513	17779
899.633	17695
899.753	17752
899.873	17672
899.993	17775
900.113	17619
900.232	17661
900.352	17611
900.472	17535
900.591	17448
900.711	17623
900.83	17554
900.95	17638
901.069	17710
901.189	17364
901.308	17250
901.427	17162
901.546	17143
901.665	17261
901.784	17105
901.904	17022
902.023	16885
902.141	16679
902.26	16679
902.379	16755
902.498	16691
902.617	16565
902.735	16694
902.854	16618
902.973	16607
903.091	16284
903.21	16424
903.328	16291
903.446	16382
903.565	16314
903.683	16226
903.801	16071
903.919	16131
904.038	16086
904.156	15926
904.274	16169
904.392	16002
904.51	15964
904.627	15899
904.745	16086
904.863	15991
904.981	15732
905.098	15622
905.216	15682
905.334	15671
905.451	15629
905.569	15553
905.686	15644
905.803	15720
905.921	15408
906.038	15450
906.155	15450
906.272	15332
906.389	15279
906.506	15119
906.623	15230
906.74	15188
906.857	15024
906.974	15013
907.091	15173
907.208	15348
907.324	15165
907.441	15085
907.557	15017
907.674	14899
907.79	14777
907.907	14929
908.023	14956
908.139	14876
908.256	14777
908.372	14773
908.488	14708
908.604	14708
908.72	14530
908.836	14552
908.952	14560
909.068	14530
909.184	14686
909.3	14689
909.415	14488
909.531	14537
909.647	14309
909.762	14275
909.878	14305
909.993	14339
910.108	14320
910.224	14301
910.339	14256
910.454	14183
910.57	14058
910.685	14084
910.8	14324
910.915	14267
911.03	14164
911.145	13970
911.259	13978
911.374	13936
911.489	13868
911.604	13833
911.718	13746
911.833	13674
911.947	13632
912.062	13594
912.176	13636
912.291	13632
912.405	13662
912.519	13860
912.633	13894
912.748	13799
912.862	13674
912.976	13575
913.09	13350
913.204	13540
913.318	13449
913.431	13578
913.545	13628
913.659	13681
913.772	13468
913.886	13343
914	13285
914.113	13483
914.226	13491
914.34	13373
914.453	13304
914.566	13403
914.68	13278
914.793	13217
914.906	13137
915.019	13122
915.132	13008
915.245	12993
915.358	13038
915.47	13027
915.583	13072
915.696	13080
915.809	13236
915.921	13232
916.034	12958
916.146	12901
916.259	12913
916.371	13027
916.483	13038
916.595	12932
916.708	12897
916.82	12894
916.932	12840
917.044	12833
917.156	12829
917.268	12745
917.38	12787
917.491	12688
917.603	12779
917.715	12798
917.826	12867
917.938	12745
918.049	12559
918.161	12665
918.272	12833
918.384	12894
918.495	12722
918.606	12471
918.717	12521
918.828	12654
918.939	12604
919.05	12418
919.161	12471
919.272	12380
919.383	12418
919.494	12563
919.604	12745
919.715	12509
919.826	12547
919.936	12467
920.047	12620
920.157	12536
920.267	12757
920.378	12612
920.488	12532
920.598	12646
920.708	12791
920.818	12681
920.928	12711
921.038	12787
921.148	12791
921.258	12464
921.368	12369
921.477	12285
921.587	12258
921.697	12163
921.806	12300
921.916	12152
922.025	12121
922.134	11969
922.244	11954
922.353	11927
922.462	11786
922.571	11824
922.68	11638
922.789	11615
922.898	11619
923.007	11554
923.116	11695
923.224	11604
923.333	11570
923.442	11402
923.55	11474
923.659	11440
923.767	11524
923.876	11429
923.984	11558
924.092	11395
924.201	11425
924.309	11379
924.417	11402
924.525	11417
924.633	11383
924.741	12289
924.849	11265
924.956	11341
925.064	11121
925.172	11064
925.279	11090
925.387	11166
925.494	11189
925.602	11261
925.709	11208
925.816	11083
925.924	11117
926.031	11284
926.138	11261
926.245	11185
926.352	11052
926.459	11140
926.566	11189
926.673	11022
926.779	10949
926.886	10927
926.993	10858
927.099	10782
927.206	10740
927.312	10786
927.419	10790
927.525	10812
927.631	10793
927.737	10744
927.843	10637
927.95	10527
928.056	10577
928.162	10714
928.267	10679
928.373	11288
928.479	10683
928.585	10481
928.69	10653
928.796	10634
928.901	10489
929.007	10432
929.112	10580
929.218	10443
929.323	10447
929.428	10417
929.533	10523
929.638	10310
929.743	10360
929.848	10421
929.953	10333
930.058	10253
930.163	10124
930.267	10131
930.372	10234
930.477	10071
930.581	10352
930.685	10162
930.79	9987
930.894	10071
930.998	9972
931.103	10143
931.207	9793
931.311	9720
931.415	9656
931.519	9485
931.623	9549
