Data from test_V78500241_2108.txt Node
Date: Fri Mar 25 14:48:23 CST 2022
User: usil
Spectrometer: V785-0024
Trigger mode: 0
Integration Time (sec): 4.000000E-1
Scans to average: 1
Nonlinearity correction enabled: false
Boxcar width: 0
Storing dark spectrum: false
XAxis mode: Wavelengths
Number of Pixels in Spectrum: 1024
>>>>>Begin Spectral Data<<<<<
801.071	22162
801.214	22036
801.356	21781
801.499	21671
801.641	21572
801.783	21538
801.926	21511
802.068	21428
802.211	21325
802.353	21272
802.496	21233
802.638	21001
802.78	21005
802.923	20788
803.065	20743
803.208	20807
803.35	20895
803.492	20952
803.635	21001
803.777	20765
803.919	20975
804.061	21127
804.204	20929
804.346	20731
804.488	20693
804.63	20804
804.773	20811
804.915	20769
805.057	20864
805.199	20743
805.341	20880
805.483	20952
805.626	20914
805.768	20682
805.91	20731
806.052	20826
806.194	20537
806.336	20826
806.478	20750
806.62	20712
806.762	20716
806.904	20956
807.046	21233
807.188	21028
807.33	20994
807.472	21104
807.614	20876
807.756	21020
807.898	20887
808.04	20845
808.182	20807
808.324	20811
808.465	20891
808.607	21009
808.749	21104
808.891	21119
809.033	21332
809.174	21043
809.316	21142
809.458	21138
809.6	21093
809.741	21173
809.883	21287
810.025	21241
810.166	21260
810.308	21222
810.45	21230
810.591	21051
810.733	21017
810.875	20887
811.016	20864
811.158	20758
811.299	20815
811.441	21009
811.582	20998
811.724	21062
811.865	20849
812.007	20807
812.148	20849
812.29	20956
812.431	21085
812.573	21161
812.714	21211
812.855	21393
812.997	21519
813.138	21599
813.279	21580
813.421	21325
813.562	21275
813.703	21100
813.845	21024
813.986	20754
814.127	20503
814.268	20438
814.41	20404
814.551	20454
814.692	20457
814.833	20324
814.974	20339
815.115	20366
815.256	20442
815.397	20271
815.539	20317
815.68	20240
815.821	20058
815.962	20271
816.103	20187
816.244	20016
816.385	19955
816.526	19864
816.666	19651
816.807	19605
816.948	19757
817.089	19624
817.23	19514
817.371	19609
817.512	19613
817.653	19616
817.793	19540
817.934	19563
818.075	19647
818.216	19533
818.356	19407
818.497	19540
818.638	19228
818.778	19339
818.919	19354
819.06	19343
819.2	19396
819.341	19411
819.481	19480
819.622	19613
819.762	19738
819.903	19666
820.043	19655
820.184	19613
820.324	19613
820.465	19643
820.605	19689
820.746	19518
820.886	19472
821.026	19601
821.167	19525
821.307	19537
821.447	19552
821.588	19358
821.728	19301
821.868	18973
822.008	19019
822.149	19088
822.289	19023
822.429	18722
822.569	18673
822.709	18681
822.849	18525
822.99	18486
823.13	18456
823.27	18437
823.41	18197
823.55	18155
823.69	18186
823.83	18353
823.97	18076
824.11	17939
824.25	17988
824.389	18026
824.529	18030
824.669	18106
824.809	18133
824.949	18121
825.089	18178
825.228	17950
825.368	17805
825.508	17878
825.648	17859
825.787	17802
825.927	17912
826.067	17786
826.206	17752
826.346	17863
826.485	17832
826.625	17821
826.765	17870
826.904	17935
827.044	17653
827.183	17581
827.323	17493
827.462	17562
827.601	17551
827.741	17577
827.88	17532
828.02	17398
828.159	17501
828.298	17505
828.437	17520
828.577	17341
828.716	17680
828.855	17551
828.994	17356
829.134	17311
829.273	17364
829.412	17200
829.551	17166
829.69	17204
829.829	17227
829.968	17330
830.107	17296
830.246	17250
830.385	17193
830.524	17254
830.663	17159
830.802	16995
830.941	16896
831.08	16854
831.219	16938
831.357	16984
831.496	17109
831.635	16854
831.774	16710
831.913	16778
832.051	16580
832.19	16630
832.329	16713
832.467	16694
832.606	16519
832.744	16531
832.883	16512
833.022	16470
833.16	16607
833.299	16634
833.437	16607
833.576	16668
833.714	16538
833.852	16580
833.991	16664
834.129	16713
834.267	16740
834.406	16626
834.544	16596
834.682	16542
834.821	16683
834.959	16790
835.097	16637
835.235	16725
835.373	16649
835.511	16584
835.65	16554
835.788	16508
835.926	16363
836.064	16325
836.202	16367
836.34	16489
836.478	16630
836.615	16527
836.753	16588
836.891	16660
837.029	16565
837.167	16413
837.305	16363
837.443	16322
837.58	16341
837.718	16382
837.856	16386
837.993	16409
838.131	16367
838.269	16276
838.406	16325
838.544	16287
838.681	16051
838.819	15994
838.956	15899
839.094	15968
839.231	15979
839.369	16112
839.506	16344
839.643	16173
839.781	15937
839.918	15842
840.055	15899
840.193	15934
840.33	15945
840.467	16013
840.604	15987
840.742	16162
840.879	15789
841.016	15854
841.153	15895
841.29	16097
841.427	15922
841.564	15945
841.701	15918
841.838	15899
841.975	15945
842.112	15937
842.249	15770
842.385	15637
842.522	15911
842.659	15732
842.796	15808
842.933	15694
843.069	15709
843.206	15709
843.343	15709
843.479	15774
843.616	15675
843.752	15519
843.889	15382
844.025	15614
844.162	15473
844.298	15625
844.435	15431
844.571	15485
844.708	15485
844.844	15511
844.98	15675
845.117	15648
845.253	15500
845.389	15393
845.525	15462
845.661	15424
845.798	15325
845.934	15344
846.07	15283
846.206	15405
846.342	15412
846.478	15260
846.614	15055
846.75	15028
846.886	15051
847.022	15184
847.158	15112
847.294	15043
847.429	15039
847.565	15062
847.701	15408
847.837	14800
847.972	14743
848.108	14960
848.244	14948
848.379	14800
848.515	14693
848.65	14667
848.786	14678
848.921	14724
849.057	14804
849.192	14804
849.328	14743
849.463	14750
849.598	14678
849.734	14579
849.869	14503
850.004	14503
850.14	14518
850.275	14454
850.41	14374
850.545	14351
850.68	14434
850.815	14484
850.95	14400
851.085	14602
851.22	14526
851.355	14438
851.49	14438
851.625	14438
851.76	14309
851.895	14374
852.03	14355
852.165	14476
852.299	14385
852.434	14492
852.569	14568
852.703	14442
852.838	14560
852.973	14552
853.107	14651
853.242	14419
853.376	14332
853.511	14210
853.645	14282
853.78	14427
853.914	14317
854.048	14290
854.183	14332
854.317	14301
854.451	14476
854.585	14233
854.72	14351
854.854	14358
854.988	14149
855.122	14301
855.256	14282
855.39	14298
855.524	14396
855.658	14282
855.792	14385
855.926	14343
856.06	14393
856.194	14362
856.327	14317
856.461	14233
856.595	14290
856.729	14305
856.862	14431
856.996	14355
857.13	14328
857.263	14370
857.397	14431
857.53	14332
857.664	14351
857.797	14362
857.931	14412
858.064	14389
858.197	14423
858.331	14374
858.464	14256
858.597	14286
858.731	14271
858.864	14294
858.997	14324
859.13	14263
859.263	14415
859.396	14298
859.529	14286
859.662	14328
859.795	14298
859.928	14339
860.061	14533
860.194	14438
860.327	14282
860.46	14305
860.592	14396
860.725	14404
860.858	14537
860.99	14229
861.123	14161
861.256	14180
861.388	14301
861.521	14845
861.653	14191
861.786	14161
861.918	14176
862.05	14282
862.183	14290
862.315	14366
862.447	14393
862.58	14237
862.712	14088
862.844	14046
862.976	14092
863.108	14153
863.24	14457
863.372	14001
863.504	14107
863.636	14183
863.768	14103
863.9	14123
864.032	13986
864.164	14073
864.296	14103
864.428	14172
864.559	14191
864.691	14225
864.823	14081
864.954	14149
865.086	14100
865.217	14062
865.349	13909
865.48	14191
865.612	14027
865.743	14248
865.875	14077
866.006	13978
866.137	14107
866.269	14073
866.4	14012
866.531	14073
866.662	14096
866.793	14027
866.924	14031
867.055	14050
867.186	13959
867.317	14096
867.448	14054
867.579	14096
867.71	13997
867.841	13963
867.972	14081
868.103	14050
868.233	14027
868.364	14088
868.495	14123
868.625	14210
868.756	14400
868.886	14157
869.017	14278
869.147	14396
869.278	14434
869.408	14309
869.539	14214
869.669	14511
869.799	14305
869.929	14423
870.06	14473
870.19	14697
870.32	14594
870.45	14594
870.58	14686
870.71	14853
870.84	14883
870.97	14693
871.1	14724
871.23	14902
871.36	14971
871.489	14883
871.619	14826
871.749	14819
871.879	14952
872.008	15074
872.138	14838
872.267	15017
872.397	14800
872.526	14750
872.656	14708
872.785	14792
872.915	14952
873.044	14952
873.173	15039
873.303	15036
873.432	15051
873.561	15100
873.69	14944
873.819	15062
873.948	15093
874.077	14956
874.206	14933
874.335	15058
874.464	15062
874.593	15264
874.722	15169
874.851	15291
874.979	15294
875.108	15370
875.237	15310
875.365	15256
875.494	15184
875.623	15424
875.751	15264
875.88	15348
876.008	15458
876.136	15580
876.265	15690
876.393	15778
876.521	15724
876.65	15789
876.778	15717
876.906	15610
877.034	15667
877.162	15641
877.29	15610
877.418	15656
877.546	15751
877.674	15724
877.802	15713
877.93	15641
878.058	15728
878.185	15595
878.313	15663
878.441	15644
878.568	15564
878.696	15728
878.824	15762
878.951	15873
879.079	15838
879.206	15865
879.333	15949
879.461	15861
879.588	15835
879.715	15880
879.842	15998
879.97	15770
880.097	15584
880.224	15511
880.351	15584
880.478	15667
880.605	15500
880.732	15488
880.859	15808
880.986	15530
881.112	15641
881.239	15416
881.366	15256
881.493	15294
881.619	15283
881.746	15203
881.872	15218
881.999	15157
882.125	15043
882.252	15226
882.378	15230
882.505	15386
882.631	15195
882.757	15169
882.883	15070
883.01	15070
883.136	15009
883.262	14918
883.388	14845
883.514	14986
883.64	15138
883.766	15039
883.892	14906
884.018	14800
884.143	14960
884.269	15241
884.395	14720
884.52	14648
884.646	14788
884.772	14648
884.897	14571
885.023	14727
885.148	14883
885.274	14887
885.399	14899
885.524	14693
885.65	14750
885.775	14739
885.9	14716
886.025	14857
886.15	14811
886.275	14701
886.4	14682
886.525	14731
886.65	14610
886.775	14648
886.9	14895
887.025	14925
887.149	14769
887.274	14640
887.399	14511
887.523	14549
887.648	14488
887.773	14457
887.897	14594
888.021	14590
888.146	14518
888.27	14682
888.395	14686
888.519	14568
888.643	14564
888.767	14629
888.891	14438
889.015	14423
889.139	14461
889.263	14389
889.387	14594
889.511	14648
889.635	14667
889.759	14431
889.883	14374
890.006	14454
890.13	14499
890.254	14267
890.377	14377
890.501	14244
890.624	14180
890.748	14324
890.871	14149
890.995	14138
891.118	14054
891.241	14142
891.364	14024
891.488	14195
891.611	14233
891.734	14039
891.857	14187
891.98	14126
892.103	14275
892.226	14161
892.349	14130
892.471	13940
892.594	14058
892.717	14054
892.839	14199
892.962	14119
893.085	14206
893.207	14218
893.33	14027
893.452	14054
893.575	14183
893.697	14054
893.819	14248
893.941	14393
894.064	14263
894.186	14096
894.308	14046
894.43	14123
894.552	14317
894.674	14199
894.796	14043
894.918	14153
895.04	14134
895.161	14290
895.283	14271
895.405	14134
895.526	14195
895.648	14275
895.769	14298
895.891	14290
896.012	14404
896.134	14282
896.255	14317
896.376	14244
896.498	14248
896.619	14336
896.74	14218
896.861	14320
896.982	14731
897.103	14864
897.224	14663
897.345	14552
897.466	14457
897.587	14549
897.708	14682
897.828	14621
897.949	14480
898.07	14404
898.19	14602
898.311	14689
898.431	14594
898.552	14602
898.672	14640
898.792	14640
898.913	14682
899.033	14545
899.153	14465
899.273	14313
899.393	14484
899.513	14438
899.633	14545
899.753	14412
899.873	14419
899.993	14587
900.113	14431
900.232	14568
900.352	14488
900.472	14419
900.591	14396
900.711	14438
900.83	14347
900.95	14518
901.069	14400
901.189	14248
901.308	14016
901.427	14005
901.546	14005
901.665	13997
901.784	14031
901.904	13875
902.023	13795
902.141	13590
902.26	13636
902.379	13776
902.498	13571
902.617	13651
902.735	13651
902.854	13677
902.973	13559
903.091	13343
903.21	13320
903.328	13297
903.446	13289
903.565	13168
903.683	13141
903.801	13080
903.919	13061
904.038	13160
904.156	12996
904.274	13008
904.392	12973
904.51	12947
904.627	13069
904.745	12977
904.863	13065
904.981	12730
905.098	12700
905.216	12662
905.334	12707
905.451	12700
905.569	12635
905.686	12768
905.803	12711
905.921	12532
906.038	12658
906.155	12578
906.272	12414
906.389	12399
906.506	12311
906.623	12251
906.74	12323
906.857	12194
906.974	12201
907.091	12289
907.208	12467
907.324	12270
907.441	12159
907.557	12053
907.674	12121
907.79	11980
907.907	12106
908.023	12045
908.139	11996
908.256	11942
908.372	11973
908.488	11893
908.604	11764
908.72	11684
908.836	11786
908.952	11756
909.068	11767
909.184	11851
909.3	11843
909.415	11729
909.531	11756
909.647	11566
909.762	11520
909.878	11535
909.993	11535
910.108	11535
910.224	11512
910.339	11566
910.454	11448
910.57	11391
910.685	11372
910.8	11726
910.915	11532
911.03	11478
911.145	11193
911.259	11159
911.374	11212
911.489	11193
911.604	11083
911.718	10911
911.833	11025
911.947	11041
912.062	10835
912.176	10987
912.291	10995
912.405	10995
912.519	11174
912.633	11193
912.748	11064
912.862	11151
912.976	10900
913.09	10759
913.204	10771
913.318	10877
913.431	10987
913.545	10972
913.659	10984
913.772	10881
913.886	10801
914	10649
914.113	10927
914.226	10862
914.34	10934
914.453	10725
914.566	10869
914.68	10710
914.793	10702
914.906	10527
915.019	10436
915.132	10447
915.245	10451
915.358	10535
915.47	10462
915.583	10580
915.696	10554
915.809	10561
915.921	10672
916.034	10413
916.146	10424
916.259	10474
916.371	10554
916.483	10497
916.595	10485
916.708	10519
916.82	10436
916.932	10504
917.044	10363
917.156	10462
917.268	10398
917.38	10242
917.491	10337
917.603	10295
917.715	10386
917.826	10402
917.938	10356
918.049	10261
918.161	10360
918.272	10478
918.384	10500
918.495	10314
918.606	10173
918.717	10150
918.828	10158
918.939	10246
919.05	10249
919.161	10112
919.272	9975
919.383	10055
919.494	10303
919.604	10390
919.715	10257
919.826	10215
919.936	10177
920.047	10329
920.157	10257
920.267	10409
920.378	10265
920.488	10249
920.598	10413
920.708	10516
920.818	10390
920.928	10481
921.038	10584
921.148	10542
921.258	10337
921.368	10227
921.477	10120
921.587	10124
921.697	9998
921.806	10112
921.916	10021
922.025	9789
922.134	9812
922.244	9728
922.353	9846
922.462	9690
922.571	9568
922.68	9492
922.789	9454
922.898	9477
923.007	9393
923.116	9523
923.224	9500
923.333	9485
923.442	9310
923.55	9370
923.659	9386
923.767	9389
923.876	9294
923.984	9325
924.092	9313
924.201	9359
924.309	9374
924.417	9389
924.525	9294
924.633	9253
924.741	10246
924.849	9116
924.956	9226
925.064	9138
925.172	9112
925.279	9062
925.387	9138
925.494	9116
925.602	9253
925.709	9226
925.816	9058
925.924	9184
926.031	9218
926.138	9165
926.245	9131
926.352	9032
926.459	9161
926.566	9256
926.673	9032
926.779	8979
926.886	8963
926.993	8853
927.099	8849
927.206	8861
927.312	8777
927.419	8868
927.525	8937
927.631	8902
927.737	8788
927.843	8785
927.95	8625
928.056	8785
928.162	8796
928.267	8735
928.373	9378
928.479	8815
928.585	8583
928.69	8766
928.796	8754
928.901	8674
929.007	8476
929.112	8689
929.218	8674
929.323	8587
929.428	8514
929.533	8689
929.638	8511
929.743	8503
929.848	8648
929.953	8514
930.058	8522
930.163	8259
930.267	8374
930.372	8503
930.477	8362
930.581	8549
930.685	8492
930.79	8225
930.894	8282
930.998	8233
931.103	8347
931.207	8020
931.311	7997
931.415	7955
931.519	7826
931.623	7750
