Data from test_V78500241_1561.txt Node
Date: Fri Mar 25 14:44:35 CST 2022
User: usil
Spectrometer: V785-0024
Trigger mode: 0
Integration Time (sec): 4.000000E-1
Scans to average: 1
Nonlinearity correction enabled: false
Boxcar width: 0
Storing dark spectrum: false
XAxis mode: Wavelengths
Number of Pixels in Spectrum: 1024
>>>>>Begin Spectral Data<<<<<
801.071	22443
801.214	22257
801.356	22036
801.499	21892
801.641	21865
801.783	21648
801.926	21755
802.068	21671
802.211	21580
802.353	21557
802.496	21386
802.638	21272
802.78	21184
802.923	21199
803.065	20979
803.208	20982
803.35	21116
803.492	21112
803.635	21283
803.777	21169
803.919	21188
804.061	21420
804.204	21222
804.346	20975
804.488	21032
804.63	21062
804.773	20891
804.915	21104
805.057	21294
805.199	21089
805.341	21180
805.483	21226
805.626	21070
805.768	20998
805.91	21085
806.052	21062
806.194	20891
806.336	21199
806.478	20929
806.62	21032
806.762	21055
806.904	21226
807.046	21363
807.188	21485
807.33	21306
807.472	21428
807.614	21310
807.756	21378
807.898	21260
808.04	21112
808.182	21207
808.324	21218
808.465	21367
808.607	21431
808.749	21405
808.891	21637
809.033	21747
809.174	21675
809.316	21420
809.458	21557
809.6	21511
809.741	21507
809.883	21667
810.025	21553
810.166	21519
810.308	21637
810.45	21576
810.591	21507
810.733	21374
810.875	21154
811.016	21226
811.158	21173
811.299	21340
811.441	21424
811.582	21332
811.724	21135
811.865	21169
812.007	21230
812.148	21214
812.29	21283
812.431	21397
812.573	21504
812.714	21755
812.855	21660
812.997	21732
813.138	22006
813.279	21827
813.421	21660
813.562	21587
813.703	21526
813.845	21397
813.986	21135
814.127	21024
814.268	20880
814.41	20769
814.551	20746
814.692	20823
814.833	20750
814.974	20788
815.115	20689
815.256	20655
815.397	20674
815.539	20583
815.68	20541
815.821	20514
815.962	20568
816.103	20442
816.244	20263
816.385	20233
816.526	20206
816.666	20008
816.807	19974
816.948	19982
817.089	19898
817.23	19837
817.371	19902
817.512	20001
817.653	19932
817.793	19909
817.934	19982
818.075	19951
818.216	19921
818.356	19871
818.497	19681
818.638	19597
818.778	19578
818.919	19563
819.06	19514
819.2	19776
819.341	19799
819.481	19807
819.622	19845
819.762	20088
819.903	19951
820.043	19978
820.184	19837
820.324	19890
820.465	19925
820.605	19967
820.746	19799
820.886	19807
821.026	19860
821.167	19803
821.307	19852
821.447	19696
821.588	19647
821.728	19571
821.868	19438
822.008	19209
822.149	19190
822.289	19285
822.429	19023
822.569	19031
822.709	18939
822.849	18745
822.99	18753
823.13	18661
823.27	18601
823.41	18612
823.55	18570
823.69	18551
823.83	18658
823.97	18578
824.11	18445
824.25	18384
824.389	18361
824.529	18353
824.669	18350
824.809	18422
824.949	18365
825.089	18445
825.228	18304
825.368	18186
825.508	18171
825.648	18148
825.787	18285
825.927	18224
826.067	18087
826.206	18133
826.346	18144
826.485	18159
826.625	18148
826.765	18228
826.904	18163
827.044	17954
827.183	17847
827.323	17843
827.462	17794
827.601	17802
827.741	17714
827.88	17874
828.02	17726
828.159	17745
828.298	17790
828.437	17908
828.577	17748
828.716	18019
828.855	17687
828.994	17558
829.134	17577
829.273	17668
829.412	17532
829.551	17558
829.69	17535
829.829	17440
829.968	17684
830.107	17680
830.246	17551
830.385	17459
830.524	17376
830.663	17341
830.802	17280
830.941	17147
831.08	17159
831.219	17273
831.357	17162
831.496	17376
831.635	17189
831.774	17109
831.913	17048
832.051	16869
832.19	16942
832.329	16995
832.467	16953
832.606	16809
832.744	16862
832.883	16797
833.022	16755
833.16	16793
833.299	16885
833.437	16919
833.576	16911
833.714	16908
833.852	16980
833.991	16953
834.129	16904
834.267	17060
834.406	16942
834.544	16889
834.682	17010
834.821	16835
834.959	16919
835.097	16812
835.235	16980
835.373	16949
835.511	16877
835.65	16786
835.788	16710
835.926	16679
836.064	16546
836.202	16599
836.34	16790
836.478	16961
836.615	16801
836.753	16763
836.891	16919
837.029	16858
837.167	16740
837.305	16694
837.443	16641
837.58	16615
837.718	16717
837.856	16622
837.993	16683
838.131	16634
838.269	16569
838.406	16630
838.544	16409
838.681	16405
838.819	16360
838.956	16147
839.094	16124
839.231	16219
839.369	16405
839.506	16462
839.643	16508
839.781	16204
839.918	16154
840.055	16154
840.193	16166
840.33	16154
840.467	16124
840.604	16177
840.742	16519
840.879	16086
841.016	16150
841.153	16116
841.29	16329
841.427	16177
841.564	16253
841.701	16158
841.838	16097
841.975	16147
842.112	16105
842.249	16002
842.385	16021
842.522	16154
842.659	16044
842.796	15876
842.933	15926
843.069	16017
843.206	15934
843.343	16097
843.479	15915
843.616	16032
843.752	15778
843.889	15785
844.025	15903
844.162	15766
844.298	15892
844.435	15720
844.571	15770
844.708	15751
844.844	15960
844.98	15892
845.117	15873
845.253	15720
845.389	15656
845.525	15736
845.661	15720
845.798	15644
845.934	15827
846.07	15705
846.206	15759
846.342	15743
846.478	15679
846.614	15382
846.75	15336
846.886	15207
847.022	15431
847.158	15351
847.294	15279
847.429	15268
847.565	15264
847.701	15557
847.837	15043
847.972	14960
848.108	15104
848.244	15116
848.379	15001
848.515	14838
848.65	14830
848.786	14918
848.921	14944
849.057	15058
849.192	14963
849.328	14994
849.463	14914
849.598	14842
849.734	14720
849.869	14735
850.004	14674
850.14	14735
850.275	14724
850.41	14648
850.545	14670
850.68	14648
850.815	14697
850.95	14697
851.085	14857
851.22	14746
851.355	14701
851.49	14701
851.625	14629
851.76	14564
851.895	14526
852.03	14511
852.165	14651
852.299	14552
852.434	14758
852.569	14678
852.703	14686
852.838	14705
852.973	14765
853.107	14815
853.242	14621
853.376	14457
853.511	14381
853.645	14465
853.78	14549
853.914	14590
854.048	14450
854.183	14480
854.317	14590
854.451	14716
854.585	14473
854.72	14511
854.854	14571
854.988	14374
855.122	14579
855.256	14377
855.39	14492
855.524	14568
855.658	14606
855.792	14590
855.926	14590
856.06	14674
856.194	14682
856.327	14590
856.461	14518
856.595	14427
856.729	14495
856.862	14560
856.996	14552
857.13	14537
857.263	14693
857.397	14606
857.53	14549
857.664	14484
857.797	14617
857.931	14682
858.064	14484
858.197	14693
858.331	14587
858.464	14556
858.597	14389
858.731	14488
858.864	14484
858.997	14434
859.13	14564
859.263	14526
859.396	14606
859.529	14530
859.662	14499
859.795	14438
859.928	14514
860.061	14712
860.194	14689
860.327	14568
860.46	14480
860.592	14655
860.725	14571
860.858	14575
860.99	14636
861.123	14495
861.256	14457
861.388	14587
861.521	15077
861.653	14423
861.786	14423
861.918	14408
862.05	14415
862.183	14465
862.315	14499
862.447	14549
862.58	14507
862.712	14313
862.844	14195
862.976	14320
863.108	14461
863.24	14773
863.372	14263
863.504	14320
863.636	14290
863.768	14427
863.9	14355
864.032	14332
864.164	14385
864.296	14358
864.428	14438
864.559	14484
864.691	14328
864.823	14412
864.954	14415
865.086	14419
865.217	14393
865.349	14286
865.48	14263
865.612	14358
865.743	14393
865.875	14202
866.006	14320
866.137	14301
866.269	14336
866.4	14267
866.531	14317
866.662	14202
866.793	14286
866.924	14317
867.055	14313
867.186	14286
867.317	14271
867.448	14187
867.579	14130
867.71	14240
867.841	14256
867.972	14240
868.103	14183
868.233	14324
868.364	14252
868.495	14393
868.625	14473
868.756	14613
868.886	14488
869.017	14560
869.147	14651
869.278	14697
869.408	14556
869.539	14552
869.669	14636
869.799	14594
869.929	14606
870.06	14587
870.19	14781
870.32	14872
870.45	14861
870.58	14944
870.71	14948
870.84	15055
870.97	14990
871.1	14872
871.23	15138
871.36	15093
871.489	14994
871.619	15070
871.749	15119
871.879	15230
872.008	15264
872.138	15131
872.267	15157
872.397	14990
872.526	14899
872.656	14982
872.785	15039
872.915	15165
873.044	15230
873.173	15249
873.303	15127
873.432	15241
873.561	15199
873.69	15230
873.819	15252
873.948	15241
874.077	15211
874.206	15142
874.335	15142
874.464	15294
874.593	15435
874.722	15370
874.851	15443
874.979	15485
875.108	15496
875.237	15428
875.365	15439
875.494	15485
875.623	15656
875.751	15496
875.88	15599
876.008	15595
876.136	15679
876.265	15880
876.393	16017
876.521	15953
876.65	15930
876.778	15964
876.906	15827
877.034	15880
877.162	15979
877.29	15781
877.418	15934
877.546	16006
877.674	15953
877.802	16025
877.93	15865
878.058	15884
878.185	15865
878.313	15835
878.441	15934
878.568	15698
878.696	15968
878.824	15987
878.951	15911
879.079	16090
879.206	16215
879.333	16120
879.461	16097
879.588	16032
879.715	16143
879.842	16295
879.97	16071
880.097	15755
880.224	15747
880.351	15793
880.478	15747
880.605	15907
880.732	15835
880.859	15968
880.986	15819
881.112	15785
881.239	15675
881.366	15488
881.493	15481
881.619	15477
881.746	15355
881.872	15428
881.999	15443
882.125	15287
882.252	15485
882.378	15439
882.505	15568
882.631	15336
882.757	15241
882.883	15249
883.01	15275
883.136	15264
883.262	15032
883.388	15112
883.514	15279
883.64	15260
883.766	15165
883.892	15047
884.018	15116
884.143	15230
884.269	15302
884.395	14998
884.52	14933
884.646	14906
884.772	14944
884.897	14880
885.023	14990
885.148	14948
885.274	15085
885.399	14994
885.524	14963
885.65	14925
885.775	14933
885.9	14979
886.025	15108
886.15	15001
886.275	14925
886.4	14906
886.525	14990
886.65	14906
886.775	14937
886.9	15001
887.025	15100
887.149	14910
887.274	14781
887.399	14773
887.523	14693
887.648	14659
887.773	14777
887.897	14861
888.021	14921
888.146	14621
888.27	14887
888.395	14883
888.519	14754
888.643	14724
888.767	14743
888.891	14682
889.015	14625
889.139	14629
889.263	14686
889.387	14701
889.511	14765
889.635	14758
889.759	14583
889.883	14640
890.006	14625
890.13	14754
890.254	14590
890.377	14575
890.501	14465
890.624	14476
890.748	14423
890.871	14351
890.995	14263
891.118	14176
891.241	14286
891.364	14358
891.488	14347
891.611	14320
891.734	14324
891.857	14320
891.98	14267
892.103	14419
892.226	14404
892.349	14191
892.471	14111
892.594	14290
892.717	14381
892.839	14294
892.962	14355
893.085	14355
893.207	14294
893.33	14142
893.452	14271
893.575	14389
893.697	14328
893.819	14457
893.941	14480
894.064	14434
894.186	14263
894.308	14263
894.43	14454
894.552	14511
894.674	14492
894.796	14313
894.918	14294
895.04	14362
895.161	14480
895.283	14313
895.405	14393
895.526	14381
895.648	14465
895.769	14438
895.891	14465
896.012	14488
896.134	14503
896.255	14457
896.376	14358
896.498	14461
896.619	14442
896.74	14434
896.861	14564
896.982	14861
897.103	14921
897.224	14796
897.345	14788
897.466	14610
897.587	14716
897.708	14868
897.828	14796
897.949	14739
898.07	14613
898.19	14701
898.311	14811
898.431	14914
898.552	14781
898.672	14906
898.792	14906
898.913	14826
899.033	14773
899.153	14765
899.273	14526
899.393	14606
899.513	14689
899.633	14727
899.753	14705
899.873	14533
899.993	14769
900.113	14587
900.232	14708
900.352	14823
900.472	14503
900.591	14446
900.711	14583
900.83	14469
900.95	14541
901.069	14750
901.189	14457
901.308	14275
901.427	14180
901.546	14278
901.665	14240
901.784	14176
901.904	14103
902.023	14088
902.141	13826
902.26	13868
902.379	13868
902.498	13750
902.617	13761
902.735	13788
902.854	13772
902.973	13742
903.091	13636
903.21	13411
903.328	13483
903.446	13407
903.565	13331
903.683	13392
903.801	13285
903.919	13316
904.038	13358
904.156	13228
904.274	13251
904.392	13099
904.51	13080
904.627	13187
904.745	13217
904.863	13213
904.981	12924
905.098	12829
905.216	12920
905.334	12890
905.451	12909
905.569	12871
905.686	12935
905.803	12890
905.921	12662
906.038	12814
906.155	12650
906.272	12471
906.389	12658
906.506	12540
906.623	12426
906.74	12410
906.857	12361
906.974	12346
907.091	12437
907.208	12570
907.324	12513
907.441	12319
907.557	12182
907.674	12262
907.79	12098
907.907	12175
908.023	12213
908.139	12163
908.256	12091
908.372	12129
908.488	12049
908.604	12030
908.72	11916
908.836	12003
908.952	11954
909.068	11999
909.184	12091
909.3	11942
909.415	11950
909.531	11923
909.647	11668
909.762	11737
909.878	11668
909.993	11707
910.108	11665
910.224	11653
910.339	11688
910.454	11608
910.57	11505
910.685	11467
910.8	11828
910.915	11737
911.03	11558
911.145	11398
911.259	11398
911.374	11421
911.489	11334
911.604	11299
911.718	11143
911.833	11193
911.947	11079
912.062	11010
912.176	11147
912.291	11197
912.405	11235
912.519	11356
912.633	11315
912.748	11265
912.862	11208
912.976	11132
913.09	10934
913.204	10999
913.318	11060
913.431	11105
913.545	11124
913.659	11132
913.772	11022
913.886	10904
914	10908
914.113	11079
914.226	11136
914.34	10980
914.453	10862
914.566	10995
914.68	10927
914.793	10911
914.906	10721
915.019	10596
915.132	10493
915.245	10599
915.358	10744
915.47	10717
915.583	10626
915.696	10729
915.809	10797
915.921	10854
916.034	10599
916.146	10550
916.259	10554
916.371	10691
916.483	10664
916.595	10573
916.708	10641
916.82	10675
916.932	10489
917.044	10573
917.156	10584
917.268	10436
917.38	10451
917.491	10417
917.603	10535
917.715	10607
917.826	10603
917.938	10485
918.049	10329
918.161	10527
918.272	10592
918.384	10565
918.495	10546
918.606	10367
918.717	10261
918.828	10436
918.939	10394
919.05	10322
919.161	10360
919.272	10105
919.383	10230
919.494	10424
919.604	10577
919.715	10291
919.826	10257
919.936	10386
920.047	10443
920.157	10382
920.267	10580
920.378	10394
920.488	10348
920.598	10573
920.708	10744
920.818	10580
920.928	10485
921.038	10733
921.148	10706
921.258	10386
921.368	10295
921.477	10227
921.587	10166
921.697	10105
921.806	10219
921.916	10196
922.025	9922
922.134	9930
922.244	9915
922.353	9918
922.462	9736
922.571	9785
922.68	9705
922.789	9633
922.898	9705
923.007	9523
923.116	9751
923.224	9633
923.333	9599
923.442	9507
923.55	9428
923.659	9526
923.767	9564
923.876	9458
923.984	9561
924.092	9416
924.201	9408
924.309	9378
924.417	9507
924.525	9412
924.633	9389
924.741	10333
924.849	9260
924.956	9378
925.064	9294
925.172	9211
925.279	9195
925.387	9260
925.494	9313
925.602	9348
925.709	9321
925.816	9192
925.924	9249
926.031	9378
926.138	9195
926.245	9222
926.352	9184
926.459	9287
926.566	9428
926.673	9218
926.779	9188
926.886	9123
926.993	8979
927.099	8994
927.206	8914
927.312	8910
927.419	9047
927.525	9009
927.631	9047
927.737	8952
927.843	8921
927.95	8781
928.056	8811
928.162	8925
928.267	8967
928.373	9389
928.479	8872
928.585	8758
928.69	8819
928.796	8823
928.901	8800
929.007	8583
929.112	8788
929.218	8777
929.323	8735
929.428	8667
929.533	8781
929.638	8697
929.743	8629
929.848	8705
929.953	8640
930.058	8617
930.163	8400
930.267	8404
930.372	8598
930.477	8438
930.581	8613
930.685	8549
930.79	8438
930.894	8396
930.998	8415
931.103	8526
931.207	8168
931.311	8145
931.415	8084
931.519	7871
931.623	7902
