Data from test_V78500241_2214.txt Node
Date: Fri Mar 25 14:49:07 CST 2022
User: usil
Spectrometer: V785-0024
Trigger mode: 0
Integration Time (sec): 4.000000E-1
Scans to average: 1
Nonlinearity correction enabled: false
Boxcar width: 0
Storing dark spectrum: false
XAxis mode: Wavelengths
Number of Pixels in Spectrum: 1024
>>>>>Begin Spectral Data<<<<<
801.071	22181
801.214	21991
801.356	21835
801.499	21827
801.641	21606
801.783	21587
801.926	21663
802.068	21496
802.211	21386
802.353	21302
802.496	21047
802.638	21062
802.78	20963
802.923	21047
803.065	20876
803.208	20899
803.35	20944
803.492	21024
803.635	20979
803.777	20963
803.919	20998
804.061	21180
804.204	20918
804.346	20765
804.488	20861
804.63	20807
804.773	20872
804.915	20765
805.057	20861
805.199	20743
805.341	20902
805.483	20956
805.626	20956
805.768	20769
805.91	20842
806.052	20872
806.194	20686
806.336	20952
806.478	20743
806.62	20830
806.762	20956
806.904	21055
807.046	21230
807.188	21192
807.33	21173
807.472	21256
807.614	21051
807.756	21039
807.898	21001
808.04	20750
808.182	20944
808.324	20933
808.465	20921
808.607	21203
808.749	21252
808.891	21332
809.033	21454
809.174	21214
809.316	21135
809.458	21127
809.6	21184
809.741	21230
809.883	21184
810.025	21420
810.166	21382
810.308	21378
810.45	21317
810.591	21192
810.733	21127
810.875	21009
811.016	20842
811.158	20826
811.299	21096
811.441	21013
811.582	21043
811.724	21032
811.865	20906
812.007	20796
812.148	20998
812.29	20933
812.431	21116
812.573	21291
812.714	21268
812.855	21450
812.997	21618
813.138	21774
813.279	21435
813.421	21564
813.562	21583
813.703	21154
813.845	21192
813.986	20857
814.127	20754
814.268	20541
814.41	20556
814.551	20552
814.692	20636
814.833	20552
814.974	20488
815.115	20530
815.256	20355
815.397	20358
815.539	20358
815.68	20256
815.821	20225
815.962	20320
816.103	20252
816.244	20088
816.385	19986
816.526	19936
816.666	19818
816.807	19616
816.948	19693
817.089	19761
817.23	19719
817.371	19746
817.512	19761
817.653	19655
817.793	19635
817.934	19651
818.075	19719
818.216	19677
818.356	19632
818.497	19506
818.638	19331
818.778	19343
818.919	19240
819.06	19339
819.2	19464
819.341	19392
819.481	19514
819.622	19715
819.762	19883
819.903	19791
820.043	19609
820.184	19708
820.324	19483
820.465	19788
820.605	19731
820.746	19609
820.886	19544
821.026	19670
821.167	19521
821.307	19582
821.447	19460
821.588	19460
821.728	19339
821.868	19343
822.008	19103
822.149	19061
822.289	19084
822.429	18837
822.569	18806
822.709	18669
822.849	18585
822.99	18601
823.13	18464
823.27	18490
823.41	18315
823.55	18342
823.69	18281
823.83	18376
823.97	18262
824.11	18106
824.25	18098
824.389	18011
824.529	18239
824.669	18030
824.809	18171
824.949	18186
825.089	18178
825.228	18182
825.368	17916
825.508	17904
825.648	17973
825.787	17874
825.927	17912
826.067	17878
826.206	17874
826.346	17912
826.485	17824
826.625	17904
826.765	17828
826.904	17817
827.044	17676
827.183	17627
827.323	17509
827.462	17657
827.601	17486
827.741	17573
827.88	17615
828.02	17425
828.159	17573
828.298	17558
828.437	17611
828.577	17433
828.716	17775
828.855	17547
828.994	17334
829.134	17318
829.273	17303
829.412	17231
829.551	17162
829.69	17311
829.829	17402
829.968	17448
830.107	17376
830.246	17372
830.385	17181
830.524	17178
830.663	17109
830.802	17003
830.941	16927
831.08	16873
831.219	16896
831.357	16949
831.496	17067
831.635	16915
831.774	16774
831.913	16869
832.051	16679
832.19	16778
832.329	16763
832.467	16607
832.606	16607
832.744	16580
832.883	16550
833.022	16558
833.16	16603
833.299	16607
833.437	16645
833.576	16721
833.714	16740
833.852	16725
833.991	16611
834.129	16683
834.267	16634
834.406	16691
834.544	16615
834.682	16740
834.821	16596
834.959	16740
835.097	16679
835.235	16759
835.373	16675
835.511	16618
835.65	16436
835.788	16561
835.926	16333
836.064	16333
836.202	16424
836.34	16584
836.478	16634
836.615	16516
836.753	16607
836.891	16664
837.029	16660
837.167	16432
837.305	16409
837.443	16470
837.58	16356
837.718	16535
837.856	16371
837.993	16356
838.131	16390
838.269	16310
838.406	16356
838.544	16284
838.681	16143
838.819	16044
838.956	16021
839.094	15949
839.231	16074
839.369	16143
839.506	16352
839.643	16135
839.781	16025
839.918	15998
840.055	15972
840.193	16029
840.33	15941
840.467	15953
840.604	15956
840.742	16181
840.879	15865
841.016	15846
841.153	15899
841.29	16071
841.427	16021
841.564	15899
841.701	15949
841.838	15953
841.975	15911
842.112	15937
842.249	15755
842.385	15724
842.522	15922
842.659	15835
842.796	15770
842.933	15679
843.069	15701
843.206	15713
843.343	15789
843.479	15778
843.616	15705
843.752	15523
843.889	15549
844.025	15690
844.162	15511
844.298	15580
844.435	15488
844.571	15530
844.708	15614
844.844	15644
844.98	15759
845.117	15633
845.253	15355
845.389	15405
845.525	15447
845.661	15431
845.798	15386
845.934	15298
846.07	15230
846.206	15386
846.342	15454
846.478	15313
846.614	15074
846.75	15017
846.886	15135
847.022	15169
847.158	15116
847.294	15066
847.429	15142
847.565	15104
847.701	15401
847.837	14914
847.972	14735
848.108	14963
848.244	14925
848.379	14792
848.515	14686
848.65	14701
848.786	14651
848.921	14678
849.057	14788
849.192	14743
849.328	14727
849.463	14758
849.598	14617
849.734	14575
849.869	14602
850.004	14511
850.14	14518
850.275	14476
850.41	14412
850.545	14450
850.68	14438
850.815	14560
850.95	14377
851.085	14720
851.22	14583
851.355	14457
851.49	14374
851.625	14389
851.76	14465
851.895	14282
852.03	14381
852.165	14461
852.299	14507
852.434	14545
852.569	14423
852.703	14461
852.838	14511
852.973	14655
853.107	14541
853.242	14480
853.376	14343
853.511	14202
853.645	14309
853.78	14438
853.914	14301
854.048	14366
854.183	14313
854.317	14282
854.451	14476
854.585	14389
854.72	14317
854.854	14374
854.988	14202
855.122	14400
855.256	14214
855.39	14313
855.524	14381
855.658	14275
855.792	14366
855.926	14450
856.06	14301
856.194	14423
856.327	14355
856.461	14343
856.595	14275
856.729	14320
856.862	14419
856.996	14278
857.13	14400
857.263	14389
857.397	14381
857.53	14259
857.664	14408
857.797	14362
857.931	14374
858.064	14366
858.197	14381
858.331	14317
858.464	14389
858.597	14229
858.731	14259
858.864	14343
858.997	14339
859.13	14362
859.263	14438
859.396	14457
859.529	14298
859.662	14396
859.795	14180
859.928	14366
860.061	14476
860.194	14469
860.327	14442
860.46	14324
860.592	14427
860.725	14492
860.858	14385
860.99	14332
861.123	14240
861.256	14233
861.388	14278
861.521	14826
861.653	14134
861.786	14206
861.918	14237
862.05	14248
862.183	14351
862.315	14320
862.447	14328
862.58	14259
862.712	14100
862.844	13947
862.976	14210
863.108	14149
863.24	14503
863.372	14081
863.504	14088
863.636	14130
863.768	14202
863.9	14157
864.032	14084
864.164	14001
864.296	14202
864.428	14218
864.559	14172
864.691	14187
864.823	14176
864.954	14164
865.086	14145
865.217	14069
865.349	14062
865.48	14031
865.612	14138
865.743	14183
865.875	14134
866.006	14031
866.137	14084
866.269	14012
866.4	14039
866.531	14062
866.662	13967
866.793	14035
866.924	14062
867.055	14115
867.186	14088
867.317	14062
867.448	13970
867.579	14084
867.71	14016
867.841	14008
867.972	14088
868.103	14092
868.233	14069
868.364	14119
868.495	14142
868.625	14259
868.756	14351
868.886	14290
869.017	14374
869.147	14427
869.278	14336
869.408	14347
869.539	14408
869.669	14404
869.799	14355
869.929	14431
870.06	14473
870.19	14575
870.32	14613
870.45	14606
870.58	14701
870.71	14765
870.84	14857
870.97	14670
871.1	14659
871.23	14910
871.36	14925
871.489	14845
871.619	14872
871.749	14925
871.879	14925
872.008	15055
872.138	14941
872.267	14807
872.397	14887
872.526	14754
872.656	14724
872.785	14758
872.915	14910
873.044	15028
873.173	14979
873.303	15005
873.432	14979
873.561	15005
873.69	15020
873.819	14956
873.948	15055
874.077	14921
874.206	14975
874.335	15032
874.464	15097
874.593	15275
874.722	15233
874.851	15329
874.979	15321
875.108	15355
875.237	15211
875.365	15192
875.494	15226
875.623	15397
875.751	15344
875.88	15302
876.008	15386
876.136	15454
876.265	15762
876.393	15762
876.521	15827
876.65	15797
876.778	15724
876.906	15633
877.034	15599
877.162	15797
877.29	15591
877.418	15774
877.546	15679
877.674	15633
877.802	15762
877.93	15778
878.058	15595
878.185	15652
878.313	15690
878.441	15572
878.568	15629
878.696	15694
878.824	15652
878.951	15797
879.079	15876
879.206	15964
879.333	15926
879.461	15770
879.588	15888
879.715	15915
879.842	15987
879.97	15816
880.097	15599
880.224	15553
880.351	15603
880.478	15538
880.605	15523
880.732	15599
880.859	15759
880.986	15576
881.112	15485
881.239	15450
881.366	15272
881.493	15119
881.619	15218
881.746	15310
881.872	15310
881.999	15188
882.125	15161
882.252	15218
882.378	15233
882.505	15370
882.631	15146
882.757	15009
882.883	15051
883.01	14956
883.136	14864
883.262	14826
883.388	14834
883.514	15036
883.64	15081
883.766	14902
883.892	14857
884.018	14845
884.143	14910
884.269	15108
884.395	14830
884.52	14636
884.646	14739
884.772	14663
884.897	14575
885.023	14762
885.148	14800
885.274	14956
885.399	14777
885.524	14701
885.65	14792
885.775	14777
885.9	14629
886.025	14819
886.15	14781
886.275	14804
886.4	14594
886.525	14705
886.65	14625
886.775	14610
886.9	14929
887.025	14990
887.149	14716
887.274	14606
887.399	14625
887.523	14495
887.648	14492
887.773	14560
887.897	14587
888.021	14579
888.146	14503
888.27	14598
888.395	14758
888.519	14644
888.643	14552
888.767	14689
888.891	14530
889.015	14374
889.139	14564
889.263	14412
889.387	14560
889.511	14625
889.635	14537
889.759	14290
889.883	14427
890.006	14469
890.13	14552
890.254	14301
890.377	14404
890.501	14275
890.624	14221
890.748	14301
890.871	14153
890.995	14119
891.118	14058
891.241	14073
891.364	14092
891.488	14199
891.611	14145
891.734	14195
891.857	14233
891.98	14119
892.103	14187
892.226	14199
892.349	14084
892.471	14008
892.594	14054
892.717	14126
892.839	14012
892.962	14050
893.085	14145
893.207	14153
893.33	14024
893.452	14081
893.575	14149
893.697	14081
893.819	14259
893.941	14290
894.064	14275
894.186	14107
894.308	14111
894.43	14191
894.552	14286
894.674	14313
894.796	14065
894.918	14130
895.04	14168
895.161	14248
895.283	14138
895.405	14157
895.526	14286
895.648	14145
895.769	14271
895.891	14229
896.012	14282
896.134	14385
896.255	14332
896.376	14313
896.498	14309
896.619	14282
896.74	14252
896.861	14324
896.982	14632
897.103	14769
897.224	14625
897.345	14514
897.466	14423
897.587	14613
897.708	14640
897.828	14606
897.949	14492
898.07	14370
898.19	14499
898.311	14693
898.431	14640
898.552	14552
898.672	14815
898.792	14651
898.913	14667
899.033	14568
899.153	14484
899.273	14473
899.393	14480
899.513	14461
899.633	14556
899.753	14606
899.873	14412
899.993	14575
900.113	14480
900.232	14674
900.352	14434
900.472	14347
900.591	14351
900.711	14362
900.83	14259
900.95	14503
901.069	14530
901.189	14233
901.308	14054
901.427	14020
901.546	13989
901.665	14103
901.784	14088
901.904	13894
902.023	13757
902.141	13674
902.26	13567
902.379	13719
902.498	13693
902.617	13636
902.735	13594
902.854	13544
902.973	13639
903.091	13320
903.21	13343
903.328	13308
903.446	13244
903.565	13240
903.683	13206
903.801	13088
903.919	13278
904.038	13084
904.156	13038
904.274	12977
904.392	12981
904.51	13000
904.627	13000
904.745	13008
904.863	13179
904.981	12749
905.098	12662
905.216	12547
905.334	12703
905.451	12703
905.569	12654
905.686	12715
905.803	12608
905.921	12521
906.038	12642
906.155	12429
906.272	12422
906.389	12426
906.506	12209
906.623	12167
906.74	12353
906.857	12197
906.974	12239
907.091	12361
907.208	12517
907.324	12285
907.441	12182
907.557	12098
907.674	12049
907.79	11961
907.907	12003
908.023	12041
908.139	12049
908.256	11969
908.372	11954
908.488	11897
908.604	11729
908.72	11809
908.836	11786
908.952	11745
909.068	11798
909.184	11874
909.3	11775
909.415	11817
909.531	11790
909.647	11589
909.762	11592
909.878	11528
909.993	11547
910.108	11592
910.224	11509
910.339	11493
910.454	11452
910.57	11337
910.685	11360
910.8	11668
910.915	11592
911.03	11364
911.145	11265
911.259	11318
911.374	11239
911.489	11109
911.604	11117
911.718	11003
911.833	11006
911.947	10953
912.062	10927
912.176	11033
912.291	11022
912.405	11086
912.519	11212
912.633	11265
912.748	11052
912.862	10942
912.976	10877
913.09	10752
913.204	10790
913.318	10946
913.431	10995
913.545	10930
913.659	10984
913.772	10850
913.886	10729
914	10740
914.113	10824
914.226	10911
914.34	10877
914.453	10668
914.566	10740
914.68	10687
914.793	10649
914.906	10558
915.019	10474
915.132	10478
915.245	10523
915.358	10478
915.47	10508
915.583	10478
915.696	10596
915.809	10634
915.921	10679
916.034	10519
916.146	10459
916.259	10500
916.371	10603
916.483	10421
916.595	10485
916.708	10478
916.82	10394
916.932	10417
917.044	10394
917.156	10348
917.268	10291
917.38	10371
917.491	10337
917.603	10337
917.715	10375
917.826	10356
917.938	10367
918.049	10249
918.161	10379
918.272	10489
918.384	10516
918.495	10375
918.606	10215
918.717	10135
918.828	10246
918.939	10223
919.05	10131
919.161	10154
919.272	9994
919.383	10105
919.494	10299
919.604	10398
919.715	10238
919.826	10177
919.936	10249
920.047	10337
920.157	10223
920.267	10386
920.378	10325
920.488	10227
920.598	10375
920.708	10588
920.818	10417
920.928	10409
921.038	10565
921.148	10527
921.258	10280
921.368	10223
921.477	10101
921.587	10105
921.697	9994
921.806	10147
921.916	9975
922.025	9785
922.134	9797
922.244	9762
922.353	9800
922.462	9652
922.571	9644
922.68	9485
922.789	9530
922.898	9511
923.007	9431
923.116	9511
923.224	9481
923.333	9488
923.442	9321
923.55	9359
923.659	9317
923.767	9447
923.876	9310
923.984	9389
924.092	9332
924.201	9336
924.309	9397
924.417	9382
924.525	9264
924.633	9348
924.741	10265
924.849	9154
924.956	9214
925.064	9062
925.172	9036
925.279	9142
925.387	9135
925.494	9097
925.602	9260
925.709	9180
925.816	9077
925.924	9074
926.031	9222
926.138	9150
926.245	9199
926.352	8982
926.459	9165
926.566	9207
926.673	9005
926.779	9020
926.886	9013
926.993	8868
927.099	8826
927.206	8769
927.312	8754
927.419	8891
927.525	8899
927.631	8853
927.737	8834
927.843	8758
927.95	8629
928.056	8788
928.162	8785
928.267	8834
928.373	9454
928.479	8777
928.585	8606
928.69	8766
928.796	8792
928.901	8651
929.007	8450
929.112	8644
929.218	8689
929.323	8606
929.428	8530
929.533	8644
929.638	8526
929.743	8571
929.848	8629
929.953	8507
930.058	8514
930.163	8309
930.267	8328
930.372	8427
930.477	8202
930.581	8533
930.685	8412
930.79	8221
930.894	8294
930.998	8225
931.103	8362
931.207	8043
931.311	7974
931.415	7925
931.519	7776
931.623	7780
