Data from test_V78500241_1754.txt Node
Date: Fri Mar 25 14:45:55 CST 2022
User: usil
Spectrometer: V785-0024
Trigger mode: 0
Integration Time (sec): 4.000000E-1
Scans to average: 1
Nonlinearity correction enabled: false
Boxcar width: 0
Storing dark spectrum: false
XAxis mode: Wavelengths
Number of Pixels in Spectrum: 1024
>>>>>Begin Spectral Data<<<<<
801.071	22192
801.214	22048
801.356	21823
801.499	21675
801.641	21622
801.783	21511
801.926	21717
802.068	21466
802.211	21420
802.353	21393
802.496	21085
802.638	21047
802.78	20986
802.923	20876
803.065	20777
803.208	20921
803.35	20952
803.492	20899
803.635	21081
803.777	21009
803.919	21001
804.061	21199
804.204	20990
804.346	20823
804.488	20800
804.63	20963
804.773	20716
804.915	20826
805.057	20929
805.199	20819
805.341	20838
805.483	20990
805.626	20990
805.768	20895
805.91	20765
806.052	20933
806.194	20731
806.336	21024
806.478	20727
806.62	20842
806.762	20990
806.904	20933
807.046	21222
807.188	21161
807.33	21112
807.472	21165
807.614	20994
807.756	21233
807.898	20933
808.04	20834
808.182	20891
808.324	20811
808.465	21001
808.607	21074
808.749	21199
808.891	21302
809.033	21336
809.174	21329
809.316	21211
809.458	21211
809.6	21249
809.741	21454
809.883	21119
810.025	21332
810.166	21298
810.308	21363
810.45	21431
810.591	21245
810.733	20975
810.875	20967
811.016	20826
811.158	20921
811.299	20937
811.441	21176
811.582	21203
811.724	21013
811.865	21028
812.007	20979
812.148	20948
812.29	21036
812.431	21180
812.573	21203
812.714	21336
812.855	21462
812.997	21545
813.138	21667
813.279	21675
813.421	21561
813.562	21431
813.703	21291
813.845	20975
813.986	20857
814.127	20716
814.268	20621
814.41	20598
814.551	20480
814.692	20594
814.833	20476
814.974	20393
815.115	20469
815.256	20419
815.397	20381
815.539	20419
815.68	20218
815.821	20202
815.962	20313
816.103	20149
816.244	20092
816.385	19986
816.526	20115
816.666	19928
816.807	19696
816.948	19761
817.089	19772
817.23	19689
817.371	19563
817.512	19662
817.653	19643
817.793	19655
817.934	19605
818.075	19731
818.216	19597
818.356	19518
818.497	19514
818.638	19304
818.778	19339
818.919	19426
819.06	19460
819.2	19483
819.341	19544
819.481	19552
819.622	19746
819.762	19864
819.903	19677
820.043	19814
820.184	19613
820.324	19575
820.465	19544
820.605	19597
820.746	19601
820.886	19502
821.026	19632
821.167	19559
821.307	19635
821.447	19559
821.588	19362
821.728	19411
821.868	19221
822.008	19088
822.149	19012
822.289	19015
822.429	18905
822.569	18726
822.709	18829
822.849	18570
822.99	18521
823.13	18589
823.27	18498
823.41	18414
823.55	18380
823.69	18426
823.83	18311
823.97	18308
824.11	18110
824.25	18228
824.389	18079
824.529	18289
824.669	18133
824.809	18209
824.949	18125
825.089	18076
825.228	18190
825.368	17969
825.508	18015
825.648	17973
825.787	17916
825.927	17904
826.067	17885
826.206	17863
826.346	17805
826.485	17878
826.625	17805
826.765	18038
826.904	17889
827.044	17714
827.183	17649
827.323	17570
827.462	17562
827.601	17608
827.741	17642
827.88	17528
828.02	17482
828.159	17573
828.298	17570
828.437	17638
828.577	17570
828.716	17756
828.855	17566
828.994	17288
829.134	17334
829.273	17410
829.412	17395
829.551	17239
829.69	17395
829.829	17376
829.968	17349
830.107	17417
830.246	17440
830.385	17337
830.524	17280
830.663	17159
830.802	17048
830.941	16972
831.08	16881
831.219	17033
831.357	17075
831.496	17109
831.635	16953
831.774	16930
831.913	16831
832.051	16793
832.19	16691
832.329	16603
832.467	16664
832.606	16618
832.744	16561
832.883	16660
833.022	16656
833.16	16634
833.299	16691
833.437	16717
833.576	16694
833.714	16729
833.852	16706
833.991	16725
834.129	16820
834.267	16790
834.406	16759
834.544	16698
834.682	16733
834.821	16679
834.959	16843
835.097	16615
835.235	16809
835.373	16664
835.511	16683
835.65	16580
835.788	16558
835.926	16432
836.064	16417
836.202	16497
836.34	16691
836.478	16702
836.615	16641
836.753	16672
836.891	16656
837.029	16565
837.167	16641
837.305	16451
837.443	16325
837.58	16421
837.718	16573
837.856	16519
837.993	16402
838.131	16386
838.269	16390
838.406	16329
838.544	16348
838.681	16166
838.819	16147
838.956	15876
839.094	16032
839.231	15998
839.369	16181
839.506	16386
839.643	16310
839.781	16021
839.918	15998
840.055	16002
840.193	16025
840.33	15991
840.467	15979
840.604	16063
840.742	16287
840.879	15873
841.016	15915
841.153	15998
841.29	16135
841.427	16105
841.564	16109
841.701	16048
841.838	15968
841.975	15945
842.112	15865
842.249	15911
842.385	15694
842.522	16017
842.659	15846
842.796	15774
842.933	15823
843.069	15808
843.206	15732
843.343	15751
843.479	15861
843.616	15804
843.752	15671
843.889	15561
844.025	15762
844.162	15530
844.298	15831
844.435	15633
844.571	15458
844.708	15603
844.844	15686
844.98	15762
845.117	15675
845.253	15545
845.389	15496
845.525	15443
845.661	15481
845.798	15359
845.934	15504
846.07	15291
846.206	15435
846.342	15557
846.478	15447
846.614	15233
846.75	15112
846.886	15116
847.022	15211
847.158	15214
847.294	15195
847.429	15131
847.565	15017
847.701	15321
847.837	14944
847.972	14746
848.108	14994
848.244	14994
848.379	14777
848.515	14754
848.65	14735
848.786	14830
848.921	14743
849.057	14872
849.192	14823
849.328	14765
849.463	14823
849.598	14720
849.734	14648
849.869	14621
850.004	14625
850.14	14621
850.275	14648
850.41	14423
850.545	14442
850.68	14526
850.815	14522
850.95	14396
851.085	14701
851.22	14655
851.355	14560
851.49	14533
851.625	14522
851.76	14507
851.895	14465
852.03	14419
852.165	14446
852.299	14480
852.434	14583
852.569	14526
852.703	14590
852.838	14450
852.973	14625
853.107	14667
853.242	14366
853.376	14427
853.511	14286
853.645	14332
853.78	14560
853.914	14427
854.048	14370
854.183	14450
854.317	14400
854.451	14545
854.585	14385
854.72	14370
854.854	14446
854.988	14362
855.122	14317
855.256	14176
855.39	14415
855.524	14442
855.658	14412
855.792	14377
855.926	14412
856.06	14461
856.194	14461
856.327	14415
856.461	14336
856.595	14377
856.729	14351
856.862	14473
856.996	14419
857.13	14545
857.263	14568
857.397	14488
857.53	14393
857.664	14423
857.797	14431
857.931	14511
858.064	14389
858.197	14564
858.331	14396
858.464	14374
858.597	14275
858.731	14358
858.864	14362
858.997	14408
859.13	14389
859.263	14423
859.396	14461
859.529	14374
859.662	14434
859.795	14309
859.928	14412
860.061	14545
860.194	14533
860.327	14419
860.46	14328
860.592	14465
860.725	14480
860.858	14556
860.99	14381
861.123	14324
861.256	14339
861.388	14427
861.521	15093
861.653	14199
861.786	14195
861.918	14240
862.05	14362
862.183	14351
862.315	14442
862.447	14450
862.58	14320
862.712	14088
862.844	14142
862.976	14263
863.108	14191
863.24	14541
863.372	14172
863.504	14164
863.636	14069
863.768	14237
863.9	14282
864.032	14126
864.164	14145
864.296	14157
864.428	14267
864.559	14237
864.691	14218
864.823	14206
864.954	14229
865.086	14142
865.217	14191
865.349	14103
865.48	14161
865.612	14149
865.743	14278
865.875	14134
866.006	14084
866.137	14164
866.269	14126
866.4	14142
866.531	14233
866.662	14081
866.793	14119
866.924	14164
867.055	14103
867.186	14153
867.317	14142
867.448	14024
867.579	14096
867.71	14077
867.841	14043
867.972	14149
868.103	14157
868.233	14153
868.364	14229
868.495	14218
868.625	14301
868.756	14480
868.886	14324
869.017	14324
869.147	14613
869.278	14507
869.408	14423
869.539	14374
869.669	14530
869.799	14431
869.929	14625
870.06	14495
870.19	14739
870.32	14590
870.45	14727
870.58	14864
870.71	14956
870.84	14948
870.97	14849
871.1	14758
871.23	14941
871.36	14990
871.489	14925
871.619	14941
871.749	15066
871.879	15032
872.008	15089
872.138	15055
872.267	15001
872.397	14857
872.526	14845
872.656	14834
872.785	14914
872.915	14967
873.044	15218
873.173	14952
873.303	15081
873.432	15138
873.561	15070
873.69	15127
873.819	15116
873.948	15070
874.077	15039
874.206	15043
874.335	15055
874.464	15138
874.593	15382
874.722	15256
874.851	15408
874.979	15351
875.108	15359
875.237	15275
875.365	15241
875.494	15310
875.623	15435
875.751	15321
875.88	15462
876.008	15618
876.136	15667
876.265	15679
876.393	15922
876.521	15869
876.65	15797
876.778	15774
876.906	15797
877.034	15732
877.162	15778
877.29	15747
877.418	15751
877.546	15800
877.674	15793
877.802	15861
877.93	15755
878.058	15743
878.185	15720
878.313	15736
878.441	15739
878.568	15713
878.696	15679
878.824	15827
878.951	15850
879.079	15968
879.206	16139
879.333	15964
879.461	15823
879.588	15892
879.715	15941
879.842	15918
879.97	15808
880.097	15648
880.224	15610
880.351	15660
880.478	15663
880.605	15663
880.732	15625
880.859	15888
880.986	15724
881.112	15755
881.239	15534
881.366	15405
881.493	15275
881.619	15275
881.746	15351
881.872	15169
881.999	15310
882.125	15222
882.252	15203
882.378	15211
882.505	15408
882.631	15169
882.757	15112
882.883	15142
883.01	15081
883.136	14963
883.262	14986
883.388	14975
883.514	15089
883.64	15116
883.766	15024
883.892	14872
884.018	15001
884.143	15001
884.269	15192
884.395	14914
884.52	14880
884.646	14807
884.772	14823
884.897	14663
885.023	14861
885.148	14944
885.274	14967
885.399	14975
885.524	14823
885.65	14845
885.775	14811
885.9	14758
886.025	14998
886.15	14838
886.275	14689
886.4	14689
886.525	14819
886.65	14731
886.775	14781
886.9	15013
887.025	14994
887.149	14762
887.274	14739
887.399	14598
887.523	14488
887.648	14583
887.773	14568
887.897	14644
888.021	14663
888.146	14549
888.27	14788
888.395	14750
888.519	14705
888.643	14705
888.767	14762
888.891	14552
889.015	14370
889.139	14602
889.263	14503
889.387	14640
889.511	14724
889.635	14587
889.759	14484
889.883	14511
890.006	14613
890.13	14667
890.254	14461
890.377	14412
890.501	14298
890.624	14271
890.748	14434
890.871	14237
890.995	14233
891.118	14111
891.241	14176
891.364	14221
891.488	14271
891.611	14263
891.734	14225
891.857	14313
891.98	14210
892.103	14290
892.226	14164
892.349	14161
892.471	14084
892.594	14157
892.717	14119
892.839	14172
892.962	14240
893.085	14206
893.207	14202
893.33	14103
893.452	14069
893.575	14229
893.697	14123
893.819	14320
893.941	14438
894.064	14343
894.186	14130
894.308	14142
894.43	14381
894.552	14465
894.674	14374
894.796	14119
894.918	14240
895.04	14100
895.161	14301
895.283	14263
895.405	14263
895.526	14317
895.648	14256
895.769	14362
895.891	14366
896.012	14465
896.134	14389
896.255	14290
896.376	14332
896.498	14396
896.619	14473
896.74	14339
896.861	14492
896.982	14750
897.103	14906
897.224	14621
897.345	14583
897.466	14514
897.587	14655
897.708	14705
897.828	14689
897.949	14549
898.07	14469
898.19	14522
898.311	14804
898.431	14629
898.552	14762
898.672	14781
898.792	14769
898.913	14739
899.033	14674
899.153	14636
899.273	14495
899.393	14503
899.513	14610
899.633	14663
899.753	14583
899.873	14511
899.993	14602
900.113	14564
900.232	14613
900.352	14556
900.472	14469
900.591	14305
900.711	14549
900.83	14389
900.95	14484
901.069	14522
901.189	14374
901.308	14157
901.427	14157
901.546	14054
901.665	14115
901.784	14111
901.904	14077
902.023	13940
902.141	13757
902.26	13689
902.379	13715
902.498	13651
902.617	13647
902.735	13632
902.854	13780
902.973	13662
903.091	13438
903.21	13438
903.328	13396
903.446	13289
903.565	13232
903.683	13232
903.801	13129
903.919	13244
904.038	13110
904.156	13027
904.274	13171
904.392	13019
904.51	12932
904.627	13031
904.745	13107
904.863	13141
904.981	12825
905.098	12798
905.216	12844
905.334	12802
905.451	12741
905.569	12722
905.686	12700
905.803	12806
905.921	12506
906.038	12734
906.155	12574
906.272	12456
906.389	12517
906.506	12350
906.623	12357
906.74	12350
906.857	12209
906.974	12220
907.091	12391
907.208	12448
907.324	12308
907.441	12285
907.557	12076
907.674	12098
907.79	12064
907.907	12034
908.023	12038
908.139	12068
908.256	12057
908.372	11954
908.488	11958
908.604	11832
908.72	11874
908.836	11786
908.952	11828
909.068	11931
909.184	11973
909.3	11813
909.415	11904
909.531	11882
909.647	11596
909.762	11570
909.878	11486
909.993	11551
910.108	11562
910.224	11554
910.339	11615
910.454	11604
910.57	11452
910.685	11360
910.8	11737
910.915	11532
911.03	11577
911.145	11337
911.259	11277
911.374	11345
911.489	11242
911.604	11151
911.718	11109
911.833	11033
911.947	10965
912.062	10866
912.176	11033
912.291	11151
912.405	11079
912.519	11273
912.633	11261
912.748	11033
912.862	11079
912.976	10976
913.09	10774
913.204	10915
913.318	10957
913.431	10976
913.545	11014
913.659	11079
913.772	10984
913.886	10824
914	10809
914.113	10896
914.226	10965
914.34	10877
914.453	10782
914.566	10968
914.68	10778
914.793	10694
914.906	10565
915.019	10497
915.132	10474
915.245	10512
915.358	10531
915.47	10531
915.583	10573
915.696	10607
915.809	10660
915.921	10717
916.034	10580
916.146	10481
916.259	10565
916.371	10618
916.483	10550
916.595	10519
916.708	10478
916.82	10523
916.932	10489
917.044	10497
917.156	10527
917.268	10352
917.38	10363
917.491	10436
917.603	10398
917.715	10459
917.826	10508
917.938	10367
918.049	10268
918.161	10360
918.272	10481
918.384	10554
918.495	10398
918.606	10200
918.717	10261
918.828	10223
918.939	10265
919.05	10078
919.161	10234
919.272	10063
919.383	10090
919.494	10348
919.604	10451
919.715	10280
919.826	10158
919.936	10234
920.047	10379
920.157	10227
920.267	10500
920.378	10341
920.488	10303
920.598	10500
920.708	10607
920.818	10466
920.928	10485
921.038	10721
921.148	10599
921.258	10276
921.368	10219
921.477	10196
921.587	10192
921.697	9922
921.806	10135
921.916	10013
922.025	9861
922.134	9869
922.244	9732
922.353	9846
922.462	9709
922.571	9747
922.68	9557
922.789	9511
922.898	9538
923.007	9408
923.116	9549
923.224	9576
923.333	9549
923.442	9412
923.55	9412
923.659	9443
923.767	9507
923.876	9275
923.984	9462
924.092	9283
924.201	9355
924.309	9332
924.417	9435
924.525	9302
924.633	9447
924.741	10249
924.849	9226
924.956	9321
925.064	9264
925.172	9074
925.279	9192
925.387	9116
925.494	9180
925.602	9291
925.709	9226
925.816	9047
925.924	9165
926.031	9256
926.138	9195
926.245	9184
926.352	9142
926.459	9253
926.566	9363
926.673	9180
926.779	9028
926.886	9036
926.993	8906
927.099	8891
927.206	8842
927.312	8845
927.419	8933
927.525	8952
927.631	8906
927.737	8811
927.843	8830
927.95	8625
928.056	8724
928.162	8800
928.267	8853
928.373	9439
928.479	8853
928.585	8670
928.69	8804
928.796	8826
928.901	8705
929.007	8670
929.112	8693
929.218	8693
929.323	8651
929.428	8678
929.533	8773
929.638	8533
929.743	8594
929.848	8644
929.953	8667
930.058	8556
930.163	8385
930.267	8438
930.372	8526
930.477	8279
930.581	8606
930.685	8473
930.79	8320
930.894	8404
930.998	8229
931.103	8457
931.207	8100
931.311	8073
931.415	8001
931.519	7845
931.623	7776
