Data from test_V78500241_1727.txt Node
Date: Fri Mar 25 14:45:44 CST 2022
User: usil
Spectrometer: V785-0024
Trigger mode: 0
Integration Time (sec): 4.000000E-1
Scans to average: 1
Nonlinearity correction enabled: false
Boxcar width: 0
Storing dark spectrum: false
XAxis mode: Wavelengths
Number of Pixels in Spectrum: 1024
>>>>>Begin Spectral Data<<<<<
801.071	22215
801.214	22112
801.356	21876
801.499	21808
801.641	21595
801.783	21545
801.926	21629
802.068	21458
802.211	21477
802.353	21370
802.496	21135
802.638	21165
802.78	21089
802.923	21036
803.065	20914
803.208	20815
803.35	21051
803.492	21093
803.635	21047
803.777	20880
803.919	21009
804.061	21321
804.204	21036
804.346	20857
804.488	20743
804.63	20853
804.773	20735
804.915	20918
805.057	20971
805.199	20758
805.341	20910
805.483	20986
805.626	21032
805.768	20663
805.91	20895
806.052	20880
806.194	20735
806.336	21043
806.478	20834
806.62	20800
806.762	20990
806.904	21138
807.046	21313
807.188	21199
807.33	21108
807.472	21348
807.614	21051
807.756	21131
807.898	21051
808.04	20883
808.182	20906
808.324	20914
808.465	20979
808.607	21154
808.749	21203
808.891	21344
809.033	21466
809.174	21389
809.316	21241
809.458	21310
809.6	21108
809.741	21291
809.883	21283
810.025	21435
810.166	21420
810.308	21481
810.45	21302
810.591	21275
810.733	21146
810.875	21066
811.016	20952
811.158	20880
811.299	21074
811.441	21211
811.582	21313
811.724	21108
811.865	21024
812.007	20906
812.148	21009
812.29	20963
812.431	21245
812.573	21344
812.714	21500
812.855	21412
812.997	21591
813.138	21698
813.279	21698
813.421	21519
813.562	21500
813.703	21237
813.845	21104
813.986	20899
814.127	20785
814.268	20583
814.41	20594
814.551	20541
814.692	20602
814.833	20473
814.974	20636
815.115	20507
815.256	20374
815.397	20419
815.539	20415
815.68	20419
815.821	20355
815.962	20339
816.103	20221
816.244	20119
816.385	20115
816.526	20115
816.666	19772
816.807	19750
816.948	19734
817.089	19769
817.23	19780
817.371	19772
817.512	19712
817.653	19658
817.793	19563
817.934	19708
818.075	19666
818.216	19693
818.356	19693
818.497	19559
818.638	19320
818.778	19381
818.919	19449
819.06	19358
819.2	19582
819.341	19575
819.481	19518
819.622	19761
819.762	19947
819.903	19761
820.043	19719
820.184	19685
820.324	19597
820.465	19674
820.605	19887
820.746	19723
820.886	19514
821.026	19582
821.167	19590
821.307	19677
821.447	19575
821.588	19491
821.728	19453
821.868	19221
822.008	19110
822.149	19148
822.289	18993
822.429	18821
822.569	18749
822.709	18848
822.849	18684
822.99	18604
823.13	18597
823.27	18544
823.41	18391
823.55	18144
823.69	18319
823.83	18464
823.97	18369
824.11	18110
824.25	18136
824.389	18194
824.529	18266
824.669	18144
824.809	18361
824.949	18262
825.089	18114
825.228	18163
825.368	17923
825.508	17954
825.648	18026
825.787	18057
825.927	18034
826.067	17980
826.206	17824
826.346	17969
826.485	17969
826.625	17923
826.765	17969
826.904	18011
827.044	17760
827.183	17634
827.323	17627
827.462	17760
827.601	17558
827.741	17646
827.88	17653
828.02	17516
828.159	17592
828.298	17726
828.437	17615
828.577	17589
828.716	17748
828.855	17417
828.994	17539
829.134	17395
829.273	17440
829.412	17273
829.551	17296
829.69	17391
829.829	17356
829.968	17452
830.107	17497
830.246	17414
830.385	17387
830.524	17299
830.663	17227
830.802	17181
830.941	17052
831.08	16995
831.219	17117
831.357	17090
831.496	17216
831.635	17064
831.774	16957
831.913	16820
832.051	16797
832.19	16774
832.329	16752
832.467	16767
832.606	16459
832.744	16660
832.883	16694
833.022	16733
833.16	16729
833.299	16698
833.437	16702
833.576	16710
833.714	16710
833.852	16786
833.991	16839
834.129	16892
834.267	16778
834.406	16653
834.544	16729
834.682	16763
834.821	16755
834.959	16877
835.097	16653
835.235	16869
835.373	16687
835.511	16801
835.65	16698
835.788	16672
835.926	16531
836.064	16432
836.202	16489
836.34	16805
836.478	16713
836.615	16592
836.753	16694
836.891	16649
837.029	16630
837.167	16565
837.305	16634
837.443	16603
837.58	16519
837.718	16645
837.856	16489
837.993	16508
838.131	16599
838.269	16466
838.406	16417
838.544	16455
838.681	16188
838.819	16173
838.956	16032
839.094	16013
839.231	16082
839.369	16234
839.506	16554
839.643	16303
839.781	16169
839.918	15926
840.055	15994
840.193	16067
840.33	16029
840.467	16032
840.604	16090
840.742	16310
840.879	16006
841.016	15983
841.153	15915
841.29	16196
841.427	16128
841.564	16078
841.701	16002
841.838	16013
841.975	15983
842.112	15945
842.249	15793
842.385	15876
842.522	15850
842.659	15876
842.796	15812
842.933	15827
843.069	15800
843.206	15724
843.343	15983
843.479	15873
843.616	15854
843.752	15667
843.889	15595
844.025	15690
844.162	15511
844.298	15751
844.435	15572
844.571	15618
844.708	15705
844.844	15846
844.98	15762
845.117	15732
845.253	15618
845.389	15557
845.525	15542
845.661	15599
845.798	15408
845.934	15492
846.07	15363
846.206	15416
846.342	15515
846.478	15393
846.614	15237
846.75	15188
846.886	15135
847.022	15252
847.158	15188
847.294	15165
847.429	15123
847.565	15161
847.701	15363
847.837	14933
847.972	14937
848.108	15036
848.244	14986
848.379	14842
848.515	14743
848.65	14792
848.786	14815
848.921	14792
849.057	14842
849.192	14883
849.328	14811
849.463	14819
849.598	14689
849.734	14682
849.869	14606
850.004	14526
850.14	14632
850.275	14552
850.41	14522
850.545	14522
850.68	14598
850.815	14454
850.95	14556
851.085	14625
851.22	14682
851.355	14545
851.49	14461
851.625	14514
851.76	14518
851.895	14431
852.03	14404
852.165	14583
852.299	14419
852.434	14636
852.569	14659
852.703	14552
852.838	14678
852.973	14629
853.107	14739
853.242	14537
853.376	14511
853.511	14339
853.645	14332
853.78	14526
853.914	14389
854.048	14450
854.183	14351
854.317	14404
854.451	14545
854.585	14499
854.72	14355
854.854	14492
854.988	14377
855.122	14427
855.256	14237
855.39	14415
855.524	14427
855.658	14518
855.792	14374
855.926	14381
856.06	14503
856.194	14545
856.327	14412
856.461	14396
856.595	14355
856.729	14396
856.862	14575
856.996	14514
857.13	14533
857.263	14606
857.397	14526
857.53	14518
857.664	14503
857.797	14575
857.931	14632
858.064	14495
858.197	14438
858.331	14419
858.464	14351
858.597	14290
858.731	14457
858.864	14339
858.997	14404
859.13	14423
859.263	14583
859.396	14442
859.529	14522
859.662	14381
859.795	14431
859.928	14476
860.061	14670
860.194	14629
860.327	14522
860.46	14465
860.592	14476
860.725	14610
860.858	14526
860.99	14469
861.123	14374
861.256	14320
861.388	14488
861.521	14994
861.653	14317
861.786	14252
861.918	14263
862.05	14332
862.183	14404
862.315	14404
862.447	14495
862.58	14358
862.712	14149
862.844	14145
862.976	14298
863.108	14191
863.24	14564
863.372	14046
863.504	14172
863.636	14187
863.768	14290
863.9	14237
864.032	14157
864.164	14103
864.296	14267
864.428	14286
864.559	14317
864.691	14450
864.823	14343
864.954	14305
865.086	14229
865.217	14199
865.349	14100
865.48	14214
865.612	14256
865.743	14256
865.875	14180
866.006	14229
866.137	14161
866.269	14191
866.4	14267
866.531	14187
866.662	14062
866.793	14123
866.924	14145
867.055	14183
867.186	14142
867.317	14145
867.448	14054
867.579	14058
867.71	14161
867.841	14069
867.972	14229
868.103	14164
868.233	14202
868.364	14164
868.495	14183
868.625	14434
868.756	14499
868.886	14301
869.017	14389
869.147	14526
869.278	14613
869.408	14381
869.539	14351
869.669	14427
869.799	14473
869.929	14545
870.06	14537
870.19	14598
870.32	14773
870.45	14727
870.58	14792
870.71	14925
870.84	14975
870.97	14743
871.1	14861
871.23	14990
871.36	15039
871.489	14941
871.619	14952
871.749	14994
871.879	15131
872.008	15100
872.138	15017
872.267	15062
872.397	14876
872.526	14861
872.656	14857
872.785	14982
872.915	15081
873.044	15100
873.173	15005
873.303	15100
873.432	15195
873.561	15272
873.69	15161
873.819	15047
873.948	15138
874.077	15146
874.206	15047
874.335	15093
874.464	15169
874.593	15317
874.722	15329
874.851	15363
874.979	15443
875.108	15412
875.237	15294
875.365	15306
875.494	15306
875.623	15488
875.751	15344
875.88	15462
876.008	15545
876.136	15580
876.265	15762
876.393	15991
876.521	15941
876.65	15895
876.778	15759
876.906	15808
877.034	15816
877.162	15797
877.29	15675
877.418	15854
877.546	15831
877.674	15728
877.802	15701
877.93	15751
878.058	15793
878.185	15690
878.313	15774
878.441	15701
878.568	15736
878.696	15675
878.824	15759
878.951	15884
879.079	16048
879.206	16181
879.333	15968
879.461	15869
879.588	15937
879.715	15903
879.842	16093
879.97	15842
880.097	15698
880.224	15663
880.351	15686
880.478	15660
880.605	15694
880.732	15660
880.859	15915
880.986	15648
881.112	15667
881.239	15515
881.366	15424
881.493	15450
881.619	15359
881.746	15310
881.872	15351
881.999	15313
882.125	15245
882.252	15317
882.378	15279
882.505	15424
882.631	15279
882.757	15104
882.883	15195
883.01	15199
883.136	15112
883.262	15001
883.388	14975
883.514	15104
883.64	15211
883.766	15127
883.892	14963
884.018	14925
884.143	15104
884.269	15256
884.395	14956
884.52	14743
884.646	14918
884.772	14815
884.897	14743
885.023	14861
885.148	14944
885.274	14929
885.399	14918
885.524	14811
885.65	14826
885.775	14864
885.9	14880
886.025	14963
886.15	14845
886.275	14735
886.4	14674
886.525	14834
886.65	14769
886.775	14727
886.9	14933
887.025	15112
887.149	14872
887.274	14689
887.399	14659
887.523	14602
887.648	14541
887.773	14621
887.897	14663
888.021	14880
888.146	14610
888.27	14705
888.395	14762
888.519	14735
888.643	14712
888.767	14678
888.891	14556
889.015	14541
889.139	14488
889.263	14461
889.387	14632
889.511	14727
889.635	14610
889.759	14514
889.883	14526
890.006	14522
890.13	14667
890.254	14495
890.377	14484
890.501	14320
890.624	14332
890.748	14358
890.871	14271
890.995	14168
891.118	14138
891.241	14191
891.364	14248
891.488	14339
891.611	14237
891.734	14149
891.857	14309
891.98	14240
892.103	14320
892.226	14267
892.349	14145
892.471	14012
892.594	14183
892.717	14237
892.839	14240
892.962	14130
893.085	14233
893.207	14214
893.33	14100
893.452	14119
893.575	14290
893.697	14202
893.819	14362
893.941	14393
894.064	14290
894.186	14240
894.308	14119
894.43	14362
894.552	14427
894.674	14332
894.796	14180
894.918	14206
895.04	14237
895.161	14347
895.283	14294
895.405	14240
895.526	14301
895.648	14343
895.769	14305
895.891	14396
896.012	14511
896.134	14488
896.255	14454
896.376	14366
896.498	14431
896.619	14450
896.74	14362
896.861	14412
896.982	14746
897.103	14807
897.224	14663
897.345	14655
897.466	14712
897.587	14769
897.708	14716
897.828	14731
897.949	14655
898.07	14507
898.19	14693
898.311	14724
898.431	14670
898.552	14697
898.672	14815
898.792	14826
898.913	14739
899.033	14682
899.153	14568
899.273	14457
899.393	14632
899.513	14644
899.633	14693
899.753	14583
899.873	14560
899.993	14629
900.113	14708
900.232	14610
900.352	14556
900.472	14484
900.591	14473
900.711	14514
900.83	14434
900.95	14610
901.069	14587
901.189	14473
901.308	14248
901.427	14153
901.546	14195
901.665	14130
901.784	14252
901.904	13940
902.023	13974
902.141	13765
902.26	13704
902.379	13883
902.498	13742
902.617	13647
902.735	13727
902.854	13765
902.973	13594
903.091	13369
903.21	13491
903.328	13396
903.446	13457
903.565	13312
903.683	13384
903.801	13152
903.919	13293
904.038	13240
904.156	13126
904.274	13156
904.392	13141
904.51	13072
904.627	13152
904.745	13156
904.863	13232
904.981	12932
905.098	12798
905.216	12821
905.334	12924
905.451	12779
905.569	12791
905.686	12939
905.803	12719
905.921	12688
906.038	12791
906.155	12650
906.272	12441
906.389	12536
906.506	12395
906.623	12422
906.74	12479
906.857	12273
906.974	12315
907.091	12471
907.208	12536
907.324	12391
907.441	12319
907.557	12110
907.674	12178
907.79	12057
907.907	12110
908.023	12171
908.139	12129
908.256	12159
908.372	12095
908.488	12038
908.604	11999
908.72	11832
908.836	11866
908.952	11813
909.068	11927
909.184	12049
909.3	11939
909.415	11923
909.531	11931
909.647	11676
909.762	11714
909.878	11665
909.993	11684
910.108	11714
910.224	11665
910.339	11638
910.454	11562
910.57	11497
910.685	11486
910.8	11737
910.915	11665
911.03	11528
911.145	11368
911.259	11326
911.374	11372
911.489	11284
911.604	11208
911.718	11143
911.833	11075
911.947	11041
912.062	10953
912.176	11086
912.291	11113
912.405	11079
912.519	11239
912.633	11227
912.748	11280
912.862	11113
912.976	11006
913.09	10927
913.204	10923
913.318	11048
913.431	11025
913.545	10991
913.659	11136
913.772	10991
913.886	10904
914	10828
914.113	10889
914.226	11022
914.34	10953
914.453	10812
914.566	10904
914.68	10858
914.793	10778
914.906	10664
915.019	10622
915.132	10580
915.245	10538
915.358	10637
915.47	10622
915.583	10615
915.696	10714
915.809	10706
915.921	10835
916.034	10577
916.146	10546
916.259	10584
916.371	10679
916.483	10649
916.595	10512
916.708	10500
916.82	10531
916.932	10596
917.044	10592
917.156	10535
917.268	10432
917.38	10402
917.491	10432
917.603	10447
917.715	10455
917.826	10497
917.938	10421
918.049	10398
918.161	10424
918.272	10558
918.384	10523
918.495	10481
918.606	10363
918.717	10261
918.828	10402
918.939	10356
919.05	10227
919.161	10322
919.272	10101
919.383	10143
919.494	10348
919.604	10542
919.715	10363
919.826	10265
919.936	10287
920.047	10333
920.157	10379
920.267	10577
920.378	10382
920.488	10295
920.598	10538
920.708	10694
920.818	10622
920.928	10512
921.038	10714
921.148	10721
921.258	10341
921.368	10318
921.477	10284
921.587	10173
921.697	10036
921.806	10344
921.916	10105
922.025	9842
922.134	9934
922.244	9838
922.353	9861
922.462	9781
922.571	9740
922.68	9690
922.789	9523
922.898	9599
923.007	9542
923.116	9553
923.224	9519
923.333	9549
923.442	9496
923.55	9435
923.659	9435
923.767	9481
923.876	9488
923.984	9504
924.092	9481
924.201	9469
924.309	9431
924.417	9408
924.525	9382
924.633	9412
924.741	10329
924.849	9214
924.956	9420
925.064	9203
925.172	9123
925.279	9207
925.387	9226
925.494	9150
925.602	9370
925.709	9302
925.816	9074
925.924	9222
926.031	9272
926.138	9256
926.245	9260
926.352	9146
926.459	9283
926.566	9408
926.673	9146
926.779	9062
926.886	9081
926.993	9066
927.099	8948
927.206	8868
927.312	8921
927.419	8868
927.525	8914
927.631	9043
927.737	8845
927.843	8834
927.95	8731
928.056	8785
928.162	8864
928.267	8918
928.373	9477
928.479	8925
928.585	8651
928.69	8842
928.796	8788
928.901	8750
929.007	8473
929.112	8777
929.218	8693
929.323	8731
929.428	8594
929.533	8781
929.638	8564
929.743	8610
929.848	8640
929.953	8663
930.058	8530
930.163	8423
930.267	8408
930.372	8587
930.477	8385
930.581	8663
930.685	8457
930.79	8381
930.894	8366
930.998	8415
931.103	8492
931.207	8115
931.311	8115
931.415	8020
931.519	7925
931.623	7818
