Data from test_V78500241_1065.txt Node
Date: Fri Mar 25 14:41:07 CST 2022
User: usil
Spectrometer: V785-0024
Trigger mode: 0
Integration Time (sec): 4.000000E-1
Scans to average: 1
Nonlinearity correction enabled: false
Boxcar width: 0
Storing dark spectrum: false
XAxis mode: Wavelengths
Number of Pixels in Spectrum: 1024
>>>>>Begin Spectral Data<<<<<
801.071	22873
801.214	22729
801.356	22443
801.499	22295
801.641	22055
801.783	22131
801.926	22082
802.068	22093
802.211	22029
802.353	21945
802.496	21709
802.638	21622
802.78	21694
802.923	21618
803.065	21561
803.208	21458
803.35	21481
803.492	21545
803.635	21610
803.777	21504
803.919	21652
804.061	21888
804.204	21568
804.346	21412
804.488	21340
804.63	21572
804.773	21321
804.915	21416
805.057	21587
805.199	21348
805.341	21526
805.483	21599
805.626	21568
805.768	21359
805.91	21473
806.052	21431
806.194	21382
806.336	21526
806.478	21477
806.62	21454
806.762	21561
806.904	21819
807.046	21899
807.188	21766
807.33	21888
807.472	21915
807.614	21857
807.756	21888
807.898	21827
808.04	21793
808.182	21682
808.324	21861
808.465	21884
808.607	22147
808.749	22394
808.891	22580
809.033	22596
809.174	22413
809.316	22223
809.458	22257
809.6	22093
809.741	22169
809.883	22051
810.025	22154
810.166	22139
810.308	22200
810.45	22105
810.591	21895
810.733	21888
810.875	21755
811.016	21530
811.158	21587
811.299	21846
811.441	21762
811.582	21698
811.724	21709
811.865	21618
812.007	21709
812.148	21682
812.29	21679
812.431	21903
812.573	22162
812.714	21937
812.855	22204
812.997	22272
813.138	22299
813.279	22246
813.421	22105
813.562	22070
813.703	21937
813.845	21850
813.986	21549
814.127	21424
814.268	21325
814.41	21374
814.551	21154
814.692	21233
814.833	21135
814.974	21138
815.115	21222
815.256	21047
815.397	21028
815.539	21093
815.68	20883
815.821	20895
815.962	21043
816.103	20998
816.244	20792
816.385	20796
816.526	20739
816.666	20533
816.807	20298
816.948	20568
817.089	20518
817.23	20454
817.371	20396
817.512	20431
817.653	20339
817.793	20275
817.934	20412
818.075	20370
818.216	20339
818.356	20233
818.497	20183
818.638	20031
818.778	20031
818.919	20081
819.06	20107
819.2	20252
819.341	20267
819.481	20199
819.622	20389
819.762	20632
819.903	20484
820.043	20552
820.184	20381
820.324	20328
820.465	20408
820.605	20301
820.746	20393
820.886	20214
821.026	20362
821.167	20237
821.307	20419
821.447	20210
821.588	20122
821.728	20024
821.868	19860
822.008	19837
822.149	19734
822.289	19655
822.429	19377
822.569	19377
822.709	19430
822.849	19217
822.99	19312
823.13	19114
823.27	19232
823.41	19065
823.55	18981
823.69	19027
823.83	19012
823.97	19004
824.11	18829
824.25	18817
824.389	18745
824.529	18798
824.669	18719
824.809	18840
824.949	18916
825.089	18837
825.228	18745
825.368	18631
825.508	18669
825.648	18585
825.787	18738
825.927	18631
826.067	18559
826.206	18506
826.346	18738
826.485	18467
826.625	18525
826.765	18677
826.904	18631
827.044	18414
827.183	18319
827.323	18327
827.462	18506
827.601	18292
827.741	18247
827.88	18205
828.02	18232
828.159	18346
828.298	18277
828.437	18300
828.577	18273
828.716	18407
828.855	18213
828.994	18140
829.134	17999
829.273	18011
829.412	18072
829.551	17939
829.69	17946
829.829	18057
829.968	18011
830.107	18030
830.246	17992
830.385	18026
830.524	17912
830.663	17847
830.802	17851
830.941	17589
831.08	17642
831.219	17779
831.357	17718
831.496	17813
831.635	17684
831.774	17505
831.913	17570
832.051	17440
832.19	17421
832.329	17615
832.467	17398
832.606	17414
832.744	17368
832.883	17353
833.022	17349
833.16	17315
833.299	17395
833.437	17360
833.576	17471
833.714	17414
833.852	17448
833.991	17395
834.129	17539
834.267	17493
834.406	17391
834.544	17471
834.682	17436
834.821	17326
834.959	17581
835.097	17364
835.235	17490
835.373	17360
835.511	17330
835.65	17318
835.788	17212
835.926	17159
836.064	17025
836.202	17124
836.34	17296
836.478	17334
836.615	17208
836.753	17315
836.891	17311
837.029	17242
837.167	17193
837.305	17174
837.443	17113
837.58	17109
837.718	17242
837.856	17136
837.993	17117
838.131	17140
838.269	17079
838.406	16949
838.544	17052
838.681	16839
838.819	16744
838.956	16637
839.094	16672
839.231	16710
839.369	16900
839.506	17136
839.643	16980
839.781	16771
839.918	16660
840.055	16778
840.193	16683
840.33	16691
840.467	16596
840.604	16733
840.742	16885
840.879	16474
841.016	16679
841.153	16615
841.29	16759
841.427	16668
841.564	16626
841.701	16637
841.838	16542
841.975	16542
842.112	16577
842.249	16432
842.385	16481
842.522	16584
842.659	16474
842.796	16348
842.933	16489
843.069	16554
843.206	16367
843.343	16436
843.479	16470
843.616	16440
843.752	16261
843.889	16204
844.025	16341
844.162	16188
844.298	16367
844.435	16261
844.571	16223
844.708	16356
844.844	16371
844.98	16341
845.117	16421
845.253	16253
845.389	16230
845.525	16314
845.661	16462
845.798	16481
845.934	16694
846.07	16653
846.206	16733
846.342	16774
846.478	16352
846.614	16032
846.75	15968
846.886	15819
847.022	15975
847.158	15838
847.294	15880
847.429	15838
847.565	15736
847.701	16162
847.837	15584
847.972	15545
848.108	15553
848.244	15534
848.379	15500
848.515	15348
848.65	15306
848.786	15367
848.921	15351
849.057	15477
849.192	15485
849.328	15420
849.463	15477
849.598	15321
849.734	15245
849.869	15325
850.004	15176
850.14	15203
850.275	15161
850.41	15108
850.545	15127
850.68	15097
850.815	15176
850.95	15146
851.085	15412
851.22	15287
851.355	15203
851.49	15154
851.625	15195
851.76	15173
851.895	15047
852.03	14998
852.165	15138
852.299	15077
852.434	15249
852.569	15176
852.703	15287
852.838	15218
852.973	15272
853.107	15272
853.242	15097
853.376	15051
853.511	14906
853.645	14975
853.78	15085
853.914	15188
854.048	15005
854.183	14918
854.317	15013
854.451	15089
854.585	15013
854.72	15024
854.854	15154
854.988	14971
855.122	14975
855.256	14819
855.39	15085
855.524	15173
855.658	15055
855.792	15055
855.926	15077
856.06	15081
856.194	15119
856.327	15093
856.461	14918
856.595	14823
856.729	14952
856.862	15138
856.996	15104
857.13	15138
857.263	15154
857.397	15108
857.53	14986
857.664	15077
857.797	15116
857.931	15146
858.064	15058
858.197	15142
858.331	15058
858.464	14967
858.597	14921
858.731	15020
858.864	14986
858.997	15009
859.13	14994
859.263	15017
859.396	15074
859.529	15024
859.662	14910
859.795	14952
859.928	15066
860.061	15119
860.194	15146
860.327	15024
860.46	15043
860.592	15146
860.725	15142
860.858	15161
860.99	14979
861.123	14952
861.256	14891
861.388	15097
861.521	15618
861.653	14845
861.786	14777
861.918	14891
862.05	15032
862.183	14975
862.315	14944
862.447	15062
862.58	14902
862.712	14773
862.844	14731
862.976	14746
863.108	14785
863.24	15249
863.372	14724
863.504	14735
863.636	14689
863.768	14758
863.9	14724
864.032	14716
864.164	14708
864.296	14815
864.428	14910
864.559	14921
864.691	14891
864.823	14773
864.954	14785
865.086	14815
865.217	14807
865.349	14644
865.48	14689
865.612	14754
865.743	14864
865.875	14777
866.006	14689
866.137	14861
866.269	14758
866.4	14826
866.531	14670
866.662	14598
866.793	14735
866.924	14648
867.055	14758
867.186	14769
867.317	14750
867.448	14606
867.579	14735
867.71	14689
867.841	14674
867.972	14765
868.103	14792
868.233	14708
868.364	14758
868.495	14830
868.625	15074
868.756	15150
868.886	14952
869.017	14967
869.147	15157
869.278	15218
869.408	14979
869.539	15051
869.669	15074
869.799	15039
869.929	15142
870.06	15093
870.19	15279
870.32	15298
870.45	15332
870.58	15447
870.71	15473
870.84	15549
870.97	15469
871.1	15386
871.23	15561
871.36	15576
871.489	15504
871.619	15572
871.749	15633
871.879	15656
872.008	15705
872.138	15701
872.267	15534
872.397	15492
872.526	15523
872.656	15355
872.785	15378
872.915	15629
873.044	15717
873.173	15542
873.303	15614
873.432	15705
873.561	15770
873.69	15625
873.819	15584
873.948	15778
874.077	15682
874.206	15713
874.335	15644
874.464	15717
874.593	15899
874.722	15823
874.851	15968
874.979	15926
875.108	16025
875.237	15895
875.365	15873
875.494	15876
875.623	16013
875.751	15964
875.88	15930
876.008	16112
876.136	16173
876.265	16432
876.393	16565
876.521	16405
876.65	16504
876.778	16352
876.906	16303
877.034	16352
877.162	16333
877.29	16295
877.418	16428
877.546	16402
877.674	16428
877.802	16481
877.93	16329
878.058	16337
878.185	16303
878.313	16432
878.441	16360
878.568	16230
878.696	16352
878.824	16474
878.951	16596
879.079	16645
879.206	16828
879.333	16869
879.461	16763
879.588	16923
879.715	16911
879.842	16930
879.97	16687
880.097	16295
880.224	16291
880.351	16417
880.478	16314
880.605	16207
880.732	16314
880.859	16489
880.986	16310
881.112	16337
881.239	16112
881.366	16055
881.493	15979
881.619	15983
881.746	15941
881.872	16040
881.999	15865
882.125	15884
882.252	15934
882.378	15884
882.505	16093
882.631	15899
882.757	15800
882.883	15766
883.01	15701
883.136	15633
883.262	15656
883.388	15633
883.514	15819
883.64	15808
883.766	15720
883.892	15622
884.018	15637
884.143	15751
884.269	15770
884.395	15454
884.52	15485
884.646	15504
884.772	15348
884.897	15412
885.023	15488
885.148	15557
885.274	15576
885.399	15629
885.524	15348
885.65	15466
885.775	15401
885.9	15408
886.025	15530
886.15	15641
886.275	15397
886.4	15389
886.525	15454
886.65	15466
886.775	15359
886.9	15450
887.025	15633
887.149	15431
887.274	15291
887.399	15203
887.523	15249
887.648	15138
887.773	15150
887.897	15321
888.021	15272
888.146	15230
888.27	15344
888.395	15439
888.519	15192
888.643	15287
888.767	15340
888.891	15123
889.015	15116
889.139	15173
889.263	15146
889.387	15135
889.511	15249
889.635	15157
889.759	14982
889.883	15020
890.006	15005
890.13	15112
890.254	14990
890.377	15039
890.501	14811
890.624	14826
890.748	14956
890.871	14754
890.995	14689
891.118	14610
891.241	14785
891.364	14720
891.488	14876
891.611	14777
891.734	14743
891.857	14857
891.98	14739
892.103	14811
892.226	14674
892.349	14708
892.471	14636
892.594	14670
892.717	14659
892.839	14708
892.962	14735
893.085	14727
893.207	14746
893.33	14640
893.452	14670
893.575	14781
893.697	14724
893.819	14906
893.941	14960
894.064	14834
894.186	14800
894.308	14579
894.43	14781
894.552	14960
894.674	14781
894.796	14636
894.918	14648
895.04	14731
895.161	14838
895.283	14853
895.405	14720
895.526	14883
895.648	14906
895.769	14994
895.891	14941
896.012	14956
896.134	14952
896.255	14861
896.376	14792
896.498	14887
896.619	14925
896.74	14956
896.861	14849
896.982	15176
897.103	15367
897.224	15157
897.345	15135
897.466	15020
897.587	15252
897.708	15260
897.828	15127
897.949	15097
898.07	15070
898.19	15195
898.311	15287
898.431	15131
898.552	15180
898.672	15275
898.792	15298
898.913	15313
899.033	15119
899.153	14952
899.273	15024
899.393	15020
899.513	15047
899.633	15123
899.753	15062
899.873	15051
899.993	15165
900.113	15043
900.232	15089
900.352	14982
900.472	15074
900.591	14807
900.711	15024
900.83	14899
900.95	15017
901.069	15055
901.189	14857
901.308	14697
901.427	14499
901.546	14617
901.665	14594
901.784	14556
901.904	14423
902.023	14301
902.141	14240
902.26	14119
902.379	14267
902.498	14176
902.617	14058
902.735	14134
902.854	14161
902.973	14142
903.091	13837
903.21	13795
903.328	13852
903.446	13772
903.565	13677
903.683	13803
903.801	13601
903.919	13677
904.038	13616
904.156	13529
904.274	13563
904.392	13453
904.51	13468
904.627	13453
904.745	13540
904.863	13575
904.981	13381
905.098	13244
905.216	13168
905.334	13209
905.451	13187
905.569	13202
905.686	13213
905.803	13190
905.921	13088
906.038	13145
906.155	12973
906.272	12852
906.389	12920
906.506	12810
906.623	12859
906.74	12722
906.857	12665
906.974	12627
907.091	12856
907.208	12844
907.324	12814
907.441	12681
907.557	12574
907.674	12513
907.79	12414
907.907	12525
908.023	12555
908.139	12532
908.256	12445
908.372	12467
908.488	12433
908.604	12224
908.72	12308
908.836	12239
908.952	12273
909.068	12197
909.184	12433
909.3	12323
909.415	12342
909.531	12300
909.647	12068
909.762	12015
909.878	11965
909.993	12095
910.108	11961
910.224	12041
910.339	12011
910.454	11882
910.57	11851
910.685	11798
910.8	12178
910.915	12102
911.03	11920
911.145	11733
911.259	11726
911.374	11741
911.489	11604
911.604	11623
911.718	11452
911.833	11596
911.947	11383
912.062	11288
912.176	11501
912.291	11452
912.405	11493
912.519	11729
912.633	11748
912.748	11493
912.862	11471
912.976	11387
913.09	11220
913.204	11299
913.318	11322
913.431	11463
913.545	11410
913.659	11421
913.772	11341
913.886	11296
914	11250
914.113	11292
914.226	11277
914.34	11280
914.453	11155
914.566	11239
914.68	11086
914.793	11094
914.906	11064
915.019	11037
915.132	10869
915.245	10911
915.358	11003
915.47	10972
915.583	10938
915.696	10984
915.809	11079
915.921	11094
916.034	10927
916.146	10892
916.259	10858
916.371	10968
916.483	10957
916.595	10930
916.708	10934
916.82	10881
916.932	10801
917.044	10892
917.156	10896
917.268	10710
917.38	10805
917.491	10717
917.603	10869
917.715	10900
917.826	10896
917.938	10767
918.049	10706
918.161	10771
918.272	10866
918.384	10847
918.495	10755
918.606	10634
918.717	10592
918.828	10634
918.939	10615
919.05	10599
919.161	10603
919.272	10485
919.383	10516
919.494	10736
919.604	10809
919.715	10615
919.826	10626
919.936	10596
920.047	10740
920.157	10679
920.267	10904
920.378	10653
920.488	10622
920.598	10820
920.708	11014
920.818	10896
920.928	10797
921.038	10934
921.148	10938
921.258	10717
921.368	10558
921.477	10546
921.587	10523
921.697	10375
921.806	10478
921.916	10417
922.025	10192
922.134	10200
922.244	10124
922.353	10295
922.462	10059
922.571	9956
922.68	9842
922.789	9934
922.898	9880
923.007	9842
923.116	9842
923.224	9865
923.333	9888
923.442	9743
923.55	9698
923.659	9740
923.767	9850
923.876	9690
923.984	9804
924.092	9682
924.201	9850
924.309	9728
924.417	9705
924.525	9660
924.633	9736
924.741	10558
924.849	9481
924.956	9656
925.064	9458
925.172	9450
925.279	9500
925.387	9538
925.494	9496
925.602	9720
925.709	9466
925.816	9389
925.924	9500
926.031	9599
926.138	9462
926.245	9591
926.352	9435
926.459	9553
926.566	9580
926.673	9408
926.779	9310
926.886	9378
926.993	9173
927.099	9222
927.206	9184
927.312	9135
927.419	9256
927.525	9241
927.631	9218
927.737	9081
927.843	9112
927.95	8994
928.056	9039
928.162	9070
928.267	9195
928.373	9694
928.479	9173
928.585	8933
928.69	9070
928.796	9150
928.901	9020
929.007	8861
929.112	9005
929.218	9024
929.323	8918
929.428	8925
929.533	8979
929.638	8853
929.743	8819
929.848	8941
929.953	8864
930.058	8823
930.163	8651
930.267	8712
930.372	8746
930.477	8613
930.581	8895
930.685	8731
930.79	8587
930.894	8590
930.998	8625
931.103	8735
931.207	8339
931.311	8393
931.415	8244
931.519	8164
931.623	8092
