Data from test_V78500241_2485.txt Node
Date: Fri Mar 25 14:51:01 CST 2022
User: usil
Spectrometer: V785-0024
Trigger mode: 0
Integration Time (sec): 4.000000E-1
Scans to average: 1
Nonlinearity correction enabled: false
Boxcar width: 0
Storing dark spectrum: false
XAxis mode: Wavelengths
Number of Pixels in Spectrum: 1024
>>>>>Begin Spectral Data<<<<<
801.071	22154
801.214	22051
801.356	21808
801.499	21583
801.641	21564
801.783	21466
801.926	21530
802.068	21545
802.211	21374
802.353	21264
802.496	20998
802.638	20933
802.78	20929
802.923	20872
803.065	20838
803.208	20804
803.35	20807
803.492	20963
803.635	20990
803.777	20777
803.919	20811
804.061	21142
804.204	20838
804.346	20838
804.488	20910
804.63	20701
804.773	20712
804.915	20693
805.057	20880
805.199	20758
805.341	20716
805.483	20921
805.626	20727
805.768	20765
805.91	20819
806.052	20830
806.194	20648
806.336	20823
806.478	20659
806.62	20636
806.762	20708
806.904	20849
807.046	21013
807.188	21108
807.33	21058
807.472	21051
807.614	20990
807.756	20937
807.898	20891
808.04	20880
808.182	20769
808.324	20861
808.465	20819
808.607	20941
808.749	21180
808.891	21222
809.033	21233
809.174	21245
809.316	21119
809.458	21154
809.6	21062
809.741	21138
809.883	21104
810.025	21211
810.166	21272
810.308	21188
810.45	21332
810.591	21157
810.733	20960
810.875	20838
811.016	20819
811.158	20815
811.299	20921
811.441	21089
811.582	21058
811.724	20853
811.865	20773
812.007	20735
812.148	20815
812.29	20857
812.431	21020
812.573	21142
812.714	21192
812.855	21287
812.997	21488
813.138	21534
813.279	21431
813.421	21325
813.562	21306
813.703	21085
813.845	20975
813.986	20811
814.127	20587
814.268	20419
814.41	20442
814.551	20423
814.692	20533
814.833	20317
814.974	20320
815.115	20389
815.256	20157
815.397	20282
815.539	20225
815.68	20183
815.821	20058
815.962	20164
816.103	20122
816.244	19955
816.385	19837
816.526	19780
816.666	19685
816.807	19483
816.948	19715
817.089	19620
817.23	19643
817.371	19521
817.512	19556
817.653	19590
817.793	19540
817.934	19521
818.075	19506
818.216	19559
818.356	19499
818.497	19335
818.638	19327
818.778	19187
818.919	19202
819.06	19122
819.2	19415
819.341	19285
819.481	19510
819.622	19559
819.762	19757
819.903	19712
820.043	19655
820.184	19639
820.324	19388
820.465	19594
820.605	19544
820.746	19449
820.886	19346
821.026	19426
821.167	19468
821.307	19685
821.447	19487
821.588	19415
821.728	19137
821.868	19080
822.008	19038
822.149	18840
822.289	18943
822.429	18711
822.569	18616
822.709	18620
822.849	18479
822.99	18467
823.13	18437
823.27	18414
823.41	18262
823.55	18346
823.69	18197
823.83	18289
823.97	18251
824.11	18015
824.25	17920
824.389	18003
824.529	18125
824.669	18019
824.809	18011
824.949	18148
825.089	18068
825.228	17931
825.368	17760
825.508	17741
825.648	17741
825.787	17737
825.927	17843
826.067	17703
826.206	17585
826.346	17676
826.485	17745
826.625	17817
826.765	17775
826.904	17745
827.044	17562
827.183	17566
827.323	17379
827.462	17543
827.601	17459
827.741	17353
827.88	17528
828.02	17383
828.159	17448
828.298	17402
828.437	17554
828.577	17311
828.716	17551
828.855	17509
828.994	17292
829.134	17200
829.273	17208
829.412	17155
829.551	17246
829.69	17277
829.829	17269
829.968	17227
830.107	17242
830.246	17227
830.385	17117
830.524	17094
830.663	17098
830.802	16866
830.941	16831
831.08	16824
831.219	16968
831.357	16934
831.496	17102
831.635	16885
831.774	16767
831.913	16774
832.051	16611
832.19	16622
832.329	16721
832.467	16596
832.606	16398
832.744	16497
832.883	16512
833.022	16436
833.16	16508
833.299	16694
833.437	16565
833.576	16622
833.714	16542
833.852	16561
833.991	16565
834.129	16660
834.267	16592
834.406	16561
834.544	16672
834.682	16679
834.821	16561
834.959	16736
835.097	16584
835.235	16717
835.373	16649
835.511	16584
835.65	16561
835.788	16478
835.926	16379
836.064	16299
836.202	16295
836.34	16512
836.478	16637
836.615	16481
836.753	16523
836.891	16622
837.029	16504
837.167	16459
837.305	16470
837.443	16481
837.58	16246
837.718	16363
837.856	16348
837.993	16238
838.131	16367
838.269	16230
838.406	16219
838.544	16204
838.681	16188
838.819	16040
838.956	15934
839.094	15869
839.231	16010
839.369	16078
839.506	16284
839.643	16101
839.781	15926
839.918	15861
840.055	15903
840.193	15975
840.33	15895
840.467	15850
840.604	15979
840.742	16120
840.879	15797
841.016	15884
841.153	15854
841.29	15968
841.427	15827
841.564	15987
841.701	15876
841.838	15884
841.975	15899
842.112	15895
842.249	15739
842.385	15667
842.522	15895
842.659	15675
842.796	15606
842.933	15762
843.069	15652
843.206	15644
843.343	15641
843.479	15732
843.616	15694
843.752	15492
843.889	15473
844.025	15610
844.162	15416
844.298	15534
844.435	15466
844.571	15386
844.708	15561
844.844	15667
844.98	15644
845.117	15572
845.253	15428
845.389	15374
845.525	15466
845.661	15389
845.798	15192
845.934	15348
846.07	15294
846.206	15340
846.342	15450
846.478	15389
846.614	15180
846.75	15028
846.886	14994
847.022	15085
847.158	15047
847.294	15138
847.429	15138
847.565	15009
847.701	15237
847.837	14872
847.972	14724
848.108	14777
848.244	14883
848.379	14640
848.515	14625
848.65	14621
848.786	14587
848.921	14610
849.057	14689
849.192	14792
849.328	14788
849.463	14621
849.598	14587
849.734	14461
849.869	14446
850.004	14404
850.14	14473
850.275	14362
850.41	14358
850.545	14381
850.68	14438
850.815	14385
850.95	14461
851.085	14583
851.22	14442
851.355	14377
851.49	14343
851.625	14446
851.76	14294
851.895	14298
852.03	14309
852.165	14438
852.299	14385
852.434	14514
852.569	14469
852.703	14377
852.838	14438
852.973	14598
853.107	14530
853.242	14434
853.376	14240
853.511	14126
853.645	14275
853.78	14362
853.914	14267
854.048	14259
854.183	14183
854.317	14252
854.451	14454
854.585	14275
854.72	14229
854.854	14381
854.988	14191
855.122	14301
855.256	14214
855.39	14271
855.524	14328
855.658	14336
855.792	14328
855.926	14317
856.06	14305
856.194	14286
856.327	14271
856.461	14092
856.595	14115
856.729	14301
856.862	14400
856.996	14271
857.13	14351
857.263	14385
857.397	14427
857.53	14267
857.664	14415
857.797	14396
857.931	14427
858.064	14233
858.197	14434
858.331	14317
858.464	14202
858.597	14134
858.731	14294
858.864	14172
858.997	14191
859.13	14328
859.263	14415
859.396	14423
859.529	14256
859.662	14157
859.795	14237
859.928	14309
860.061	14446
860.194	14412
860.327	14206
860.46	14271
860.592	14385
860.725	14377
860.858	14381
860.99	14252
861.123	14202
861.256	14221
861.388	14347
861.521	14807
861.653	14142
861.786	14100
861.918	14130
862.05	14069
862.183	14237
862.315	14278
862.447	14328
862.58	14294
862.712	14138
862.844	13879
862.976	14153
863.108	14058
863.24	14465
863.372	13986
863.504	14020
863.636	14065
863.768	14126
863.9	14062
864.032	13944
864.164	14039
864.296	14043
864.428	14248
864.559	14195
864.691	14176
864.823	14065
864.954	14168
865.086	14039
865.217	14103
865.349	14005
865.48	14039
865.612	13986
865.743	14142
865.875	14024
866.006	14027
866.137	14187
866.269	14012
866.4	14111
866.531	13932
866.662	13887
866.793	13970
866.924	13967
867.055	13978
867.186	14020
867.317	14005
867.448	13902
867.579	13963
867.71	14005
867.841	13917
867.972	14149
868.103	14081
868.233	14039
868.364	14050
868.495	14020
868.625	14252
868.756	14377
868.886	14149
869.017	14278
869.147	14454
869.278	14434
869.408	14309
869.539	14225
869.669	14336
869.799	14290
869.929	14419
870.06	14362
870.19	14568
870.32	14522
870.45	14587
870.58	14739
870.71	14750
870.84	14853
870.97	14686
871.1	14682
871.23	14785
871.36	14944
871.489	14838
871.619	14826
871.749	14823
871.879	14842
872.008	14963
872.138	14956
872.267	14918
872.397	14762
872.526	14758
872.656	14758
872.785	14739
872.915	14906
873.044	14967
873.173	14918
873.303	14944
873.432	14956
873.561	15081
873.69	14971
873.819	14982
873.948	14921
874.077	15017
874.206	14914
874.335	14910
874.464	14929
874.593	15165
874.722	15123
874.851	15310
874.979	15207
875.108	15260
875.237	15176
875.365	15100
875.494	15272
875.623	15348
875.751	15222
875.88	15317
876.008	15420
876.136	15466
876.265	15564
876.393	15800
876.521	15709
876.65	15766
876.778	15652
876.906	15622
877.034	15622
877.162	15614
877.29	15622
877.418	15629
877.546	15701
877.674	15591
877.802	15660
877.93	15709
878.058	15682
878.185	15542
878.313	15599
878.441	15728
878.568	15412
878.696	15648
878.824	15686
878.951	15694
879.079	15797
879.206	15960
879.333	15812
879.461	15804
879.588	15759
879.715	15911
879.842	15953
879.97	15823
880.097	15519
880.224	15591
880.351	15557
880.478	15549
880.605	15424
880.732	15485
880.859	15724
880.986	15599
881.112	15477
881.239	15405
881.366	15268
881.493	15188
881.619	15184
881.746	15195
881.872	15093
881.999	15176
882.125	15127
882.252	15207
882.378	15184
882.505	15310
882.631	15081
882.757	15017
882.883	14994
883.01	15085
883.136	15032
883.262	14918
883.388	14906
883.514	15028
883.64	15017
883.766	14948
883.892	14830
884.018	14762
884.143	14979
884.269	14990
884.395	14758
884.52	14629
884.646	14769
884.772	14670
884.897	14537
885.023	14712
885.148	14765
885.274	14910
885.399	14701
885.524	14727
885.65	14682
885.775	14758
885.9	14648
886.025	14727
886.15	14724
886.275	14667
886.4	14560
886.525	14678
886.65	14629
886.775	14655
886.9	14743
887.025	14853
887.149	14629
887.274	14648
887.399	14415
887.523	14469
887.648	14389
887.773	14358
887.897	14461
888.021	14537
888.146	14442
888.27	14560
888.395	14594
888.519	14579
888.643	14488
888.767	14583
888.891	14396
889.015	14282
889.139	14336
889.263	14427
889.387	14454
889.511	14556
889.635	14511
889.759	14294
889.883	14355
890.006	14457
890.13	14476
890.254	14328
890.377	14351
890.501	14157
890.624	14206
890.748	14298
890.871	14084
890.995	13974
891.118	13959
891.241	14077
891.364	14092
891.488	14237
891.611	14088
891.734	14062
891.857	14233
891.98	14069
892.103	14168
892.226	14149
892.349	14012
892.471	13944
892.594	14145
892.717	14126
892.839	14046
892.962	14172
893.085	14214
893.207	14088
893.33	13970
893.452	14035
893.575	14073
893.697	14107
893.819	14248
893.941	14225
894.064	14214
894.186	13967
894.308	14073
894.43	14199
894.552	14282
894.674	14240
894.796	13944
894.918	14107
895.04	14138
895.161	14172
895.283	14244
895.405	14161
895.526	14210
895.648	14142
895.769	14290
895.891	14191
896.012	14381
896.134	14218
896.255	14282
896.376	14278
896.498	14271
896.619	14252
896.74	14347
896.861	14419
896.982	14537
897.103	14762
897.224	14526
897.345	14461
897.466	14465
897.587	14545
897.708	14621
897.828	14579
897.949	14495
898.07	14332
898.19	14530
898.311	14724
898.431	14499
898.552	14594
898.672	14663
898.792	14682
898.913	14678
899.033	14651
899.153	14507
899.273	14400
899.393	14495
899.513	14442
899.633	14415
899.753	14476
899.873	14495
899.993	14514
900.113	14355
900.232	14568
900.352	14423
900.472	14454
900.591	14324
900.711	14374
900.83	14172
900.95	14473
901.069	14385
901.189	14309
901.308	14005
901.427	13989
901.546	13997
901.665	14008
901.784	13986
901.904	13845
902.023	13776
902.141	13647
902.26	13639
902.379	13609
902.498	13578
902.617	13537
902.735	13647
902.854	13556
902.973	13506
903.091	13346
903.21	13278
903.328	13331
903.446	13278
903.565	13110
903.683	13122
903.801	13072
903.919	13133
904.038	13095
904.156	12924
904.274	13141
904.392	12962
904.51	12837
904.627	12996
904.745	13008
904.863	13065
904.981	12783
905.098	12593
905.216	12665
905.334	12639
905.451	12707
905.569	12597
905.686	12700
905.803	12719
905.921	12460
906.038	12574
906.155	12445
906.272	12353
906.389	12369
906.506	12251
906.623	12254
906.74	12254
906.857	12076
906.974	12091
907.091	12224
907.208	12323
907.324	12228
907.441	12144
907.557	11969
907.674	11958
907.79	11927
907.907	11980
908.023	12019
908.139	12022
908.256	11920
908.372	11908
908.488	11897
908.604	11737
908.72	11760
908.836	11748
908.952	11718
909.068	11714
909.184	11885
909.3	11805
909.415	11790
909.531	11809
909.647	11535
909.762	11547
909.878	11474
909.993	11562
910.108	11463
910.224	11501
910.339	11440
910.454	11493
910.57	11334
910.685	11223
910.8	11577
910.915	11509
911.03	11410
911.145	11208
911.259	11189
911.374	11174
911.489	11090
911.604	11025
911.718	10896
911.833	10949
911.947	10896
912.062	10820
912.176	10915
912.291	10991
912.405	10881
912.519	11178
912.633	11185
912.748	10965
912.862	11022
912.976	10858
913.09	10725
913.204	10786
913.318	10786
913.431	10904
913.545	10923
913.659	10972
913.772	10881
913.886	10702
914	10710
914.113	10873
914.226	10938
914.34	10782
914.453	10664
914.566	10774
914.68	10767
914.793	10618
914.906	10459
915.019	10405
915.132	10379
915.245	10379
915.358	10531
915.47	10489
915.583	10455
915.696	10500
915.809	10527
915.921	10611
916.034	10512
916.146	10451
916.259	10352
916.371	10542
916.483	10470
916.595	10329
916.708	10440
916.82	10337
916.932	10440
917.044	10329
917.156	10402
917.268	10234
917.38	10356
917.491	10249
917.603	10356
917.715	10462
917.826	10409
917.938	10299
918.049	10154
918.161	10272
918.272	10512
918.384	10424
918.495	10382
918.606	10169
918.717	10112
918.828	10181
918.939	10154
919.05	10086
919.161	10185
919.272	10017
919.383	10120
919.494	10204
919.604	10421
919.715	10173
919.826	10135
919.936	10200
920.047	10291
920.157	10192
920.267	10386
920.378	10227
920.488	10188
920.598	10432
920.708	10596
920.818	10405
920.928	10413
921.038	10523
921.148	10512
921.258	10253
921.368	10227
921.477	10101
921.587	10097
921.697	9930
921.806	10150
921.916	9960
922.025	9797
922.134	9842
922.244	9759
922.353	9762
922.462	9717
922.571	9618
922.68	9458
922.789	9344
922.898	9405
923.007	9424
923.116	9420
923.224	9420
923.333	9397
923.442	9298
923.55	9401
923.659	9344
923.767	9382
923.876	9294
923.984	9386
924.092	9218
924.201	9325
924.309	9279
924.417	9355
924.525	9264
924.633	9306
924.741	10025
924.849	9070
924.956	9256
925.064	9127
925.172	9013
925.279	9127
925.387	9138
925.494	9131
925.602	9275
925.709	9138
925.816	9051
925.924	9089
926.031	9233
926.138	9127
926.245	9199
926.352	9062
926.459	9154
926.566	9199
926.673	9058
926.779	8971
926.886	8975
926.993	8921
927.099	8804
927.206	8777
927.312	8800
927.419	8876
927.525	8861
927.631	8804
927.737	8697
927.843	8746
927.95	8552
928.056	8743
928.162	8766
928.267	8735
928.373	9348
928.479	8876
928.585	8594
928.69	8693
928.796	8750
928.901	8697
929.007	8454
929.112	8594
929.218	8602
929.323	8514
929.428	8514
929.533	8701
929.638	8560
929.743	8533
929.848	8522
929.953	8552
930.058	8450
930.163	8324
930.267	8282
930.372	8400
930.477	8267
930.581	8514
930.685	8290
930.79	8214
930.894	8305
930.998	8199
931.103	8328
931.207	7986
931.311	8069
931.415	7932
931.519	7685
931.623	7731
