Data from test_V78500241_2911.txt Node
Date: Fri Mar 25 14:53:59 CST 2022
User: usil
Spectrometer: V785-0024
Trigger mode: 0
Integration Time (sec): 4.000000E-1
Scans to average: 1
Nonlinearity correction enabled: false
Boxcar width: 0
Storing dark spectrum: false
XAxis mode: Wavelengths
Number of Pixels in Spectrum: 1024
>>>>>Begin Spectral Data<<<<<
801.071	22067
801.214	21968
801.356	21698
801.499	21709
801.641	21538
801.783	21405
801.926	21462
802.068	21466
802.211	21317
802.353	21131
802.496	21043
802.638	20956
802.78	20895
802.923	20811
803.065	20754
803.208	20785
803.35	20708
803.492	20804
803.635	20929
803.777	20823
803.919	20883
804.061	21116
804.204	20861
804.346	20689
804.488	20735
804.63	20849
804.773	20545
804.915	20609
805.057	20857
805.199	20602
805.341	20746
805.483	20804
805.626	20800
805.768	20678
805.91	20689
806.052	20746
806.194	20773
806.336	20982
806.478	20682
806.62	20648
806.762	20743
806.904	21055
807.046	21123
807.188	21127
807.33	21142
807.472	21100
807.614	20979
807.756	20880
807.898	20868
808.04	20720
808.182	20785
808.324	20735
808.465	20796
808.607	21096
808.749	21089
808.891	21226
809.033	21214
809.174	21165
809.316	21055
809.458	21146
809.6	21024
809.741	21180
809.883	21066
810.025	21180
810.166	21256
810.308	21329
810.45	21207
810.591	21055
810.733	20880
810.875	20921
811.016	20659
811.158	20788
811.299	20849
811.441	20933
811.582	21032
811.724	20842
811.865	20853
812.007	20750
812.148	20937
812.29	20845
812.431	20975
812.573	21195
812.714	21161
812.855	21272
812.997	21473
813.138	21519
813.279	21363
813.421	21275
813.562	21317
813.703	21024
813.845	20986
813.986	20648
814.127	20564
814.268	20442
814.41	20476
814.551	20324
814.692	20533
814.833	20347
814.974	20157
815.115	20351
815.256	20244
815.397	20206
815.539	20237
815.68	20180
815.821	19982
815.962	20069
816.103	20149
816.244	19955
816.385	19784
816.526	19742
816.666	19662
816.807	19464
816.948	19605
817.089	19586
817.23	19491
817.371	19483
817.512	19590
817.653	19445
817.793	19445
817.934	19502
818.075	19483
818.216	19540
818.356	19464
818.497	19278
818.638	19198
818.778	19156
818.919	19236
819.06	19217
819.2	19377
819.341	19381
819.481	19350
819.622	19632
819.762	19753
819.903	19658
820.043	19521
820.184	19464
820.324	19460
820.465	19411
820.605	19426
820.746	19510
820.886	19301
821.026	19472
821.167	19438
821.307	19518
821.447	19381
821.588	19274
821.728	19076
821.868	19133
822.008	18833
822.149	18840
822.289	18909
822.429	18639
822.569	18639
822.709	18608
822.849	18388
822.99	18350
823.13	18407
823.27	18372
823.41	18266
823.55	18186
823.69	18239
823.83	18277
823.97	18182
824.11	17931
824.25	17958
824.389	17866
824.529	17904
824.669	18015
824.809	18072
824.949	18114
825.089	17999
825.228	17958
825.368	17630
825.508	17714
825.648	17775
825.787	17722
825.927	17729
826.067	17661
826.206	17752
826.346	17741
826.485	17813
826.625	17718
826.765	17927
826.904	17802
827.044	17463
827.183	17474
827.323	17402
827.462	17497
827.601	17307
827.741	17406
827.88	17448
828.02	17326
828.159	17360
828.298	17452
828.437	17532
828.577	17474
828.716	17516
828.855	17345
828.994	17136
829.134	17212
829.273	17162
829.412	17090
829.551	17143
829.69	17159
829.829	17208
829.968	17178
830.107	17315
830.246	17204
830.385	17231
830.524	16984
830.663	16930
830.802	16900
830.941	16752
831.08	16771
831.219	16839
831.357	16797
831.496	17128
831.635	16725
831.774	16694
831.913	16626
832.051	16554
832.19	16565
832.329	16542
832.467	16573
832.606	16348
832.744	16459
832.883	16466
833.022	16451
833.16	16519
833.299	16531
833.437	16440
833.576	16508
833.714	16341
833.852	16466
833.991	16580
834.129	16493
834.267	16546
834.406	16531
834.544	16565
834.682	16565
834.821	16478
834.959	16733
835.097	16489
835.235	16592
835.373	16459
835.511	16451
835.65	16451
835.788	16402
835.926	16314
836.064	16188
836.202	16322
836.34	16424
836.478	16546
836.615	16402
836.753	16459
836.891	16508
837.029	16409
837.167	16447
837.305	16272
837.443	16402
837.58	16257
837.718	16314
837.856	16337
837.993	16196
838.131	16314
838.269	16287
838.406	16219
838.544	16074
838.681	15979
838.819	16078
838.956	15762
839.094	15861
839.231	15915
839.369	15983
839.506	16249
839.643	16063
839.781	15751
839.918	15808
840.055	15823
840.193	15835
840.33	15747
840.467	15907
840.604	15797
840.742	16029
840.879	15675
841.016	15804
841.153	15709
841.29	15930
841.427	15861
841.564	15865
841.701	15800
841.838	15743
841.975	15625
842.112	15739
842.249	15641
842.385	15629
842.522	15682
842.659	15488
842.796	15534
842.933	15572
843.069	15557
843.206	15542
843.343	15720
843.479	15663
843.616	15587
843.752	15435
843.889	15420
844.025	15500
844.162	15325
844.298	15458
844.435	15332
844.571	15344
844.708	15515
844.844	15534
844.98	15473
845.117	15576
845.253	15405
845.389	15180
845.525	15302
845.661	15306
845.798	15279
845.934	15180
846.07	15089
846.206	15264
846.342	15256
846.478	15161
846.614	15093
846.75	14895
846.886	14914
847.022	15024
847.158	15024
847.294	15009
847.429	15047
847.565	14891
847.701	15260
847.837	14686
847.972	14682
848.108	14724
848.244	14804
848.379	14636
848.515	14522
848.65	14571
848.786	14541
848.921	14522
849.057	14701
849.192	14743
849.328	14556
849.463	14632
849.598	14575
849.734	14541
849.869	14419
850.004	14362
850.14	14267
850.275	14362
850.41	14138
850.545	14320
850.68	14309
850.815	14248
850.95	14317
851.085	14522
851.22	14393
851.355	14313
851.49	14332
851.625	14362
851.76	14396
851.895	14244
852.03	14157
852.165	14267
852.299	14339
852.434	14370
852.569	14385
852.703	14370
852.838	14446
852.973	14473
853.107	14454
853.242	14229
853.376	14237
853.511	14164
853.645	14084
853.78	14351
853.914	14164
854.048	14199
854.183	14081
854.317	14267
854.451	14351
854.585	14183
854.72	14126
854.854	14225
854.988	14142
855.122	14115
855.256	14092
855.39	14119
855.524	14263
855.658	14206
855.792	14214
855.926	14218
856.06	14259
856.194	14286
856.327	14180
856.461	14157
856.595	14149
856.729	14195
856.862	14355
856.996	14278
857.13	14294
857.263	14282
857.397	14282
857.53	14161
857.664	14218
857.797	14332
857.931	14347
858.064	14320
858.197	14320
858.331	14134
858.464	14119
858.597	14115
858.731	14142
858.864	14172
858.997	14145
859.13	14218
859.263	14336
859.396	14290
859.529	14161
859.662	14183
859.795	14206
859.928	14191
860.061	14381
860.194	14362
860.327	14183
860.46	14214
860.592	14278
860.725	14313
860.858	14366
860.99	14267
861.123	14046
861.256	14168
861.388	14256
861.521	14857
861.653	14058
861.786	14039
861.918	14077
862.05	14119
862.183	14218
862.315	14168
862.447	14187
862.58	14202
862.712	13932
862.844	13856
862.976	14077
863.108	14096
863.24	14320
863.372	13925
863.504	13986
863.636	14035
863.768	14050
863.9	13963
864.032	13932
864.164	14001
864.296	14103
864.428	14024
864.559	14039
864.691	14039
864.823	14008
864.954	13986
865.086	14001
865.217	13963
865.349	13883
865.48	13921
865.612	14027
865.743	14065
865.875	13932
866.006	13837
866.137	13944
866.269	13902
866.4	14016
866.531	13936
866.662	13909
866.793	13902
866.924	13925
867.055	13917
867.186	13936
867.317	13967
867.448	13868
867.579	13932
867.71	13913
867.841	13932
867.972	14005
868.103	13986
868.233	13898
868.364	13967
868.495	14123
868.625	14134
868.756	14332
868.886	14168
869.017	14210
869.147	14328
869.278	14271
869.408	14183
869.539	14180
869.669	14278
869.799	14244
869.929	14336
870.06	14271
870.19	14625
870.32	14461
870.45	14507
870.58	14598
870.71	14678
870.84	14697
870.97	14629
871.1	14651
871.23	14777
871.36	14754
871.489	14693
871.619	14807
871.749	14663
871.879	14853
872.008	14902
872.138	14826
872.267	14830
872.397	14758
872.526	14674
872.656	14556
872.785	14674
872.915	14880
873.044	14918
873.173	14941
873.303	14868
873.432	14804
873.561	14880
873.69	14887
873.819	14861
873.948	14902
874.077	14819
874.206	14914
874.335	14842
874.464	14895
874.593	15104
874.722	15089
874.851	15249
874.979	15272
875.108	15256
875.237	15119
875.365	15077
875.494	15089
875.623	15275
875.751	15161
875.88	15169
876.008	15351
876.136	15340
876.265	15576
876.393	15759
876.521	15694
876.65	15686
876.778	15557
876.906	15477
877.034	15549
877.162	15572
877.29	15545
877.418	15568
877.546	15576
877.674	15599
877.802	15622
877.93	15564
878.058	15485
878.185	15561
878.313	15610
878.441	15549
878.568	15420
878.696	15542
878.824	15679
878.951	15523
879.079	15819
879.206	15987
879.333	15797
879.461	15652
879.588	15637
879.715	15732
879.842	15876
879.97	15641
880.097	15435
880.224	15443
880.351	15507
880.478	15428
880.605	15473
880.732	15431
880.859	15736
880.986	15469
881.112	15443
881.239	15336
881.366	15264
881.493	15173
881.619	15097
881.746	15070
881.872	15116
881.999	15036
882.125	15070
882.252	15237
882.378	15157
882.505	15218
882.631	15093
882.757	14906
882.883	14914
883.01	14925
883.136	14842
883.262	14788
883.388	14667
883.514	15020
883.64	14941
883.766	14826
883.892	14720
884.018	14735
884.143	14864
884.269	14960
884.395	14689
884.52	14590
884.646	14674
884.772	14575
884.897	14514
885.023	14625
885.148	14621
885.274	14727
885.399	14670
885.524	14716
885.65	14629
885.775	14655
885.9	14556
886.025	14720
886.15	14727
886.275	14590
886.4	14396
886.525	14518
886.65	14552
886.775	14549
886.9	14667
887.025	14906
887.149	14606
887.274	14374
887.399	14431
887.523	14381
887.648	14408
887.773	14412
887.897	14541
888.021	14568
888.146	14434
888.27	14670
888.395	14575
888.519	14518
888.643	14495
888.767	14560
888.891	14317
889.015	14275
889.139	14339
889.263	14351
889.387	14412
889.511	14469
889.635	14419
889.759	14237
889.883	14351
890.006	14313
890.13	14465
890.254	14142
890.377	14366
890.501	14069
890.624	14134
890.748	14199
890.871	14058
890.995	13951
891.118	13967
891.241	14024
891.364	13982
891.488	14149
891.611	14092
891.734	13959
891.857	14157
891.98	14088
892.103	14035
892.226	14046
892.349	14031
892.471	13932
892.594	13993
892.717	14126
892.839	14001
892.962	14039
893.085	14096
893.207	14024
893.33	13871
893.452	13890
893.575	14027
893.697	14008
893.819	14252
893.941	14218
894.064	14088
894.186	14092
894.308	13986
894.43	14180
894.552	14221
894.674	14271
894.796	14012
894.918	14111
895.04	14012
895.161	14191
895.283	14153
895.405	14024
895.526	14096
895.648	14157
895.769	14103
895.891	14157
896.012	14206
896.134	14248
896.255	14183
896.376	14168
896.498	14240
896.619	14168
896.74	14168
896.861	14317
896.982	14594
897.103	14697
897.224	14514
897.345	14480
897.466	14396
897.587	14393
897.708	14636
897.828	14560
897.949	14473
898.07	14317
898.19	14511
898.311	14629
898.431	14450
898.552	14575
898.672	14655
898.792	14629
898.913	14621
899.033	14461
899.153	14396
899.273	14286
899.393	14419
899.513	14450
899.633	14381
899.753	14465
899.873	14301
899.993	14362
900.113	14377
900.232	14480
900.352	14385
900.472	14423
900.591	14210
900.711	14332
900.83	14187
900.95	14309
901.069	14343
901.189	14199
901.308	14107
901.427	13898
901.546	13917
901.665	13974
901.784	14024
901.904	13830
902.023	13712
902.141	13594
902.26	13601
902.379	13540
902.498	13594
902.617	13510
902.735	13571
902.854	13540
902.973	13392
903.091	13327
903.21	13175
903.328	13236
903.446	13179
903.565	13114
903.683	13160
903.801	13034
903.919	13034
904.038	13004
904.156	13023
904.274	12943
904.392	12924
904.51	12909
904.627	12939
904.745	12973
904.863	12985
904.981	12768
905.098	12490
905.216	12635
905.334	12612
905.451	12490
905.569	12452
905.686	12623
905.803	12601
905.921	12365
906.038	12494
906.155	12471
906.272	12338
906.389	12350
906.506	12243
906.623	12289
906.74	12281
906.857	12106
906.974	12072
907.091	12300
907.208	12315
907.324	12228
907.441	12144
907.557	11946
907.674	11908
907.79	11901
907.907	11946
908.023	11931
908.139	11916
908.256	11931
908.372	11840
908.488	11866
908.604	11779
908.72	11699
908.836	11615
908.952	11710
909.068	11726
909.184	11756
909.3	11634
909.415	11665
909.531	11737
909.647	11528
909.762	11429
909.878	11410
909.993	11463
910.108	11425
910.224	11387
910.339	11425
910.454	11307
910.57	11280
910.685	11231
910.8	11532
910.915	11505
911.03	11284
911.145	11220
911.259	11201
911.374	11166
911.489	11083
911.604	10991
911.718	10942
911.833	10923
911.947	10824
912.062	10801
912.176	10949
912.291	10995
912.405	10896
912.519	11094
912.633	11143
912.748	11060
912.862	10987
912.976	10790
913.09	10714
913.204	10702
913.318	10889
913.431	10881
913.545	10812
913.659	10915
913.772	10820
913.886	10744
914	10649
914.113	10771
914.226	10786
914.34	10725
914.453	10649
914.566	10771
914.68	10706
914.793	10580
914.906	10466
915.019	10417
915.132	10424
915.245	10459
915.358	10405
915.47	10470
915.583	10459
915.696	10474
915.809	10573
915.921	10573
916.034	10390
916.146	10360
916.259	10402
916.371	10481
916.483	10443
916.595	10261
916.708	10367
916.82	10386
916.932	10325
917.044	10329
917.156	10284
917.268	10131
917.38	10291
917.491	10169
917.603	10242
917.715	10337
917.826	10322
917.938	10272
918.049	10177
918.161	10303
918.272	10409
918.384	10443
918.495	10219
918.606	10139
918.717	10124
918.828	10177
918.939	10131
919.05	9972
919.161	10116
919.272	9876
919.383	9949
919.494	10200
919.604	10352
919.715	10158
919.826	10040
919.936	10067
920.047	10196
920.157	10200
920.267	10348
920.378	10192
920.488	10242
920.598	10398
920.708	10565
920.818	10371
920.928	10356
921.038	10573
921.148	10417
921.258	10059
921.368	10131
921.477	10109
921.587	9964
921.697	9888
921.806	10010
921.916	9899
922.025	9823
922.134	9663
922.244	9732
922.353	9800
922.462	9637
922.571	9561
922.68	9458
922.789	9439
922.898	9454
923.007	9469
923.116	9481
923.224	9389
923.333	9481
923.442	9348
923.55	9336
923.659	9332
923.767	9378
923.876	9291
923.984	9363
924.092	9154
924.201	9287
924.309	9310
924.417	9351
924.525	9260
924.633	9253
924.741	10169
924.849	9077
924.956	9264
925.064	9089
925.172	9013
925.279	8990
925.387	9005
925.494	9001
925.602	9192
925.709	9085
925.816	9051
925.924	8998
926.031	9161
926.138	9051
926.245	9131
926.352	9077
926.459	9146
926.566	9165
926.673	9013
926.779	8906
926.886	9020
926.993	8838
927.099	8800
927.206	8743
927.312	8788
927.419	8823
927.525	8807
927.631	8842
927.737	8682
927.843	8689
927.95	8568
928.056	8625
928.162	8705
928.267	8701
928.373	9332
928.479	8727
928.585	8549
928.69	8712
928.796	8731
928.901	8590
929.007	8473
929.112	8606
929.218	8537
929.323	8465
929.428	8533
929.533	8583
929.638	8484
929.743	8533
929.848	8507
929.953	8495
930.058	8469
930.163	8256
930.267	8290
930.372	8503
930.477	8252
930.581	8492
930.685	8450
930.79	8286
930.894	8229
930.998	8199
931.103	8309
931.207	8046
931.311	7894
931.415	7963
931.519	7742
931.623	7795
