Data from test_V78500241_2133.txt Node
Date: Fri Mar 25 14:48:33 CST 2022
User: usil
Spectrometer: V785-0024
Trigger mode: 0
Integration Time (sec): 4.000000E-1
Scans to average: 1
Nonlinearity correction enabled: false
Boxcar width: 0
Storing dark spectrum: false
XAxis mode: Wavelengths
Number of Pixels in Spectrum: 1024
>>>>>Begin Spectral Data<<<<<
801.071	22082
801.214	21994
801.356	21831
801.499	21633
801.641	21622
801.783	21553
801.926	21481
802.068	21435
802.211	21424
802.353	21287
802.496	21169
802.638	21047
802.78	21024
802.923	20944
803.065	20845
803.208	20891
803.35	20800
803.492	21005
803.635	21020
803.777	20800
803.919	21066
804.061	21161
804.204	20937
804.346	20864
804.488	20804
804.63	20800
804.773	20762
804.915	20716
805.057	20815
805.199	20815
805.341	20868
805.483	20937
805.626	20785
805.768	20693
805.91	20735
806.052	20849
806.194	20716
806.336	20956
806.478	20693
806.62	20655
806.762	20853
806.904	20975
807.046	21233
807.188	21195
807.33	21119
807.472	21089
807.614	20975
807.756	20944
807.898	20918
808.04	20872
808.182	20815
808.324	20796
808.465	20914
808.607	21081
808.749	21207
808.891	21222
809.033	21241
809.174	21249
809.316	21138
809.458	21009
809.6	21032
809.741	21230
809.883	21249
810.025	21272
810.166	21382
810.308	21340
810.45	21348
810.591	21195
810.733	21036
810.875	20971
811.016	20895
811.158	20792
811.299	20933
811.441	20963
811.582	20975
811.724	20948
811.865	20944
812.007	20842
812.148	20853
812.29	21089
812.431	21074
812.573	21127
812.714	21169
812.855	21325
812.997	21580
813.138	21614
813.279	21477
813.421	21393
813.562	21363
813.703	21169
813.845	21123
813.986	20826
814.127	20640
814.268	20476
814.41	20484
814.551	20370
814.692	20522
814.833	20377
814.974	20400
815.115	20469
815.256	20313
815.397	20278
815.539	20263
815.68	20183
815.821	20157
815.962	20237
816.103	20225
816.244	20020
816.385	19849
816.526	19944
816.666	19742
816.807	19586
816.948	19769
817.089	19704
817.23	19605
817.371	19529
817.512	19624
817.653	19563
817.793	19480
817.934	19540
818.075	19563
818.216	19639
818.356	19540
818.497	19373
818.638	19175
818.778	19285
818.919	19190
819.06	19232
819.2	19320
819.341	19495
819.481	19381
819.622	19590
819.762	19708
819.903	19761
820.043	19590
820.184	19620
820.324	19605
820.465	19540
820.605	19540
820.746	19575
820.886	19403
821.026	19518
821.167	19403
821.307	19601
821.447	19571
821.588	19362
821.728	19297
821.868	19080
822.008	19107
822.149	19004
822.289	18913
822.429	18719
822.569	18688
822.709	18551
822.849	18479
822.99	18426
823.13	18361
823.27	18418
823.41	18380
823.55	18205
823.69	18251
823.83	18300
823.97	18125
824.11	18038
824.25	18022
824.389	18034
824.529	18098
824.669	17999
824.809	18072
824.949	18182
825.089	18144
825.228	18152
825.368	17840
825.508	17726
825.648	17798
825.787	17958
825.927	17809
826.067	17790
826.206	17661
826.346	17828
826.485	17882
826.625	17779
826.765	17851
826.904	17821
827.044	17562
827.183	17535
827.323	17524
827.462	17558
827.601	17474
827.741	17554
827.88	17516
828.02	17448
828.159	17448
828.298	17463
828.437	17619
828.577	17360
828.716	17604
828.855	17429
828.994	17315
829.134	17326
829.273	17315
829.412	17277
829.551	17204
829.69	17083
829.829	17280
829.968	17364
830.107	17261
830.246	17200
830.385	17212
830.524	17140
830.663	17090
830.802	17014
830.941	16957
831.08	16885
831.219	16942
831.357	16946
831.496	17117
831.635	16881
831.774	16843
831.913	16801
832.051	16706
832.19	16698
832.329	16664
832.467	16569
832.606	16561
832.744	16546
832.883	16550
833.022	16603
833.16	16630
833.299	16550
833.437	16584
833.576	16573
833.714	16622
833.852	16611
833.991	16645
834.129	16702
834.267	16622
834.406	16577
834.544	16649
834.682	16603
834.821	16546
834.959	16835
835.097	16660
835.235	16675
835.373	16634
835.511	16615
835.65	16478
835.788	16466
835.926	16371
836.064	16268
836.202	16379
836.34	16592
836.478	16626
836.615	16413
836.753	16569
836.891	16546
837.029	16542
837.167	16447
837.305	16329
837.443	16459
837.58	16394
837.718	16322
837.856	16474
837.993	16352
838.131	16367
838.269	16344
838.406	16348
838.544	16215
838.681	16105
838.819	16112
838.956	15964
839.094	15895
839.231	16025
839.369	16147
839.506	16371
839.643	16185
839.781	15964
839.918	15876
840.055	16021
840.193	15953
840.33	15956
840.467	15953
840.604	15884
840.742	16162
840.879	15789
841.016	15869
841.153	15808
841.29	15994
841.427	15911
841.564	15903
841.701	15922
841.838	15884
841.975	15759
842.112	15835
842.249	15774
842.385	15671
842.522	15903
842.659	15724
842.796	15675
842.933	15717
843.069	15762
843.206	15701
843.343	15789
843.479	15762
843.616	15789
843.752	15515
843.889	15443
844.025	15698
844.162	15469
844.298	15549
844.435	15492
844.571	15481
844.708	15675
844.844	15591
844.98	15652
845.117	15603
845.253	15481
845.389	15378
845.525	15526
845.661	15401
845.798	15218
845.934	15401
846.07	15222
846.206	15294
846.342	15447
846.478	15268
846.614	15123
846.75	15104
846.886	14975
847.022	15142
847.158	14994
847.294	15085
847.429	15009
847.565	15089
847.701	15378
847.837	14910
847.972	14765
848.108	14876
848.244	14868
848.379	14701
848.515	14621
848.65	14629
848.786	14678
848.921	14632
849.057	14777
849.192	14811
849.328	14792
849.463	14678
849.598	14579
849.734	14606
849.869	14560
850.004	14408
850.14	14419
850.275	14492
850.41	14396
850.545	14412
850.68	14366
850.815	14545
850.95	14476
851.085	14594
851.22	14571
851.355	14514
851.49	14374
851.625	14339
851.76	14362
851.895	14408
852.03	14221
852.165	14454
852.299	14370
852.434	14545
852.569	14434
852.703	14419
852.838	14511
852.973	14640
853.107	14541
853.242	14427
853.376	14267
853.511	14202
853.645	14301
853.78	14492
853.914	14351
854.048	14161
854.183	14187
854.317	14332
854.451	14499
854.585	14298
854.72	14229
854.854	14332
854.988	14225
855.122	14305
855.256	14225
855.39	14286
855.524	14362
855.658	14336
855.792	14343
855.926	14328
856.06	14362
856.194	14351
856.327	14324
856.461	14206
856.595	14248
856.729	14187
856.862	14431
856.996	14412
857.13	14332
857.263	14454
857.397	14461
857.53	14309
857.664	14362
857.797	14499
857.931	14427
858.064	14404
858.197	14484
858.331	14358
858.464	14271
858.597	14210
858.731	14240
858.864	14278
858.997	14259
859.13	14377
859.263	14339
859.396	14434
859.529	14233
859.662	14237
859.795	14233
859.928	14278
860.061	14431
860.194	14499
860.327	14358
860.46	14168
860.592	14476
860.725	14442
860.858	14530
860.99	14309
861.123	14298
861.256	14317
861.388	14225
861.521	15043
861.653	14259
861.786	14126
861.918	14206
862.05	14187
862.183	14294
862.315	14298
862.447	14351
862.58	14313
862.712	14054
862.844	14054
862.976	14176
863.108	14142
863.24	14427
863.372	14005
863.504	14142
863.636	14050
863.768	14142
863.9	14111
864.032	14005
864.164	14016
864.296	14107
864.428	14153
864.559	14195
864.691	14092
864.823	14077
864.954	14145
865.086	14073
865.217	14084
865.349	14073
865.48	14103
865.612	13989
865.743	14172
865.875	14100
866.006	14058
866.137	14081
866.269	14069
866.4	14084
866.531	14092
866.662	14043
866.793	14100
866.924	14024
867.055	14115
867.186	14103
867.317	13936
867.448	13974
867.579	13989
867.71	14084
867.841	14005
867.972	13955
868.103	14054
868.233	14084
868.364	14123
868.495	14111
868.625	14237
868.756	14423
868.886	14248
869.017	14324
869.147	14438
869.278	14389
869.408	14343
869.539	14347
869.669	14438
869.799	14442
869.929	14423
870.06	14400
870.19	14495
870.32	14610
870.45	14640
870.58	14716
870.71	14735
870.84	14785
870.97	14629
871.1	14689
871.23	14895
871.36	14853
871.489	14944
871.619	14918
871.749	14819
871.879	14933
872.008	15009
872.138	14933
872.267	14910
872.397	14724
872.526	14712
872.656	14590
872.785	14777
872.915	14952
873.044	14982
873.173	15032
873.303	14998
873.432	15009
873.561	15047
873.69	15013
873.819	14998
873.948	15081
874.077	14956
874.206	15051
874.335	14921
874.464	14986
874.593	15142
874.722	15150
874.851	15336
874.979	15310
875.108	15336
875.237	15188
875.365	15226
875.494	15188
875.623	15283
875.751	15173
875.88	15332
876.008	15412
876.136	15473
876.265	15656
876.393	15854
876.521	15736
876.65	15720
876.778	15755
876.906	15686
877.034	15614
877.162	15610
877.29	15568
877.418	15641
877.546	15755
877.674	15660
877.802	15679
877.93	15717
878.058	15622
878.185	15644
878.313	15717
878.441	15622
878.568	15633
878.696	15717
878.824	15682
878.951	15644
879.079	15819
879.206	15907
879.333	15808
879.461	15762
879.588	15774
879.715	15869
879.842	15991
879.97	15739
880.097	15576
880.224	15580
880.351	15549
880.478	15454
880.605	15492
880.732	15595
880.859	15739
880.986	15564
881.112	15641
881.239	15412
881.366	15264
881.493	15363
881.619	15211
881.746	15226
881.872	15028
881.999	15203
882.125	15127
882.252	15367
882.378	15127
882.505	15420
882.631	15188
882.757	15074
882.883	15085
883.01	15173
883.136	15028
883.262	14944
883.388	14876
883.514	15066
883.64	15039
883.766	15001
883.892	14819
884.018	14910
884.143	15001
884.269	15005
884.395	14811
884.52	14697
884.646	14697
884.772	14648
884.897	14602
885.023	14735
885.148	14781
885.274	14902
885.399	14895
885.524	14743
885.65	14712
885.775	14781
885.9	14716
886.025	14868
886.15	14716
886.275	14610
886.4	14674
886.525	14632
886.65	14587
886.775	14743
886.9	14769
887.025	14937
887.149	14773
887.274	14579
887.399	14450
887.523	14621
887.648	14465
887.773	14495
887.897	14610
888.021	14602
888.146	14503
888.27	14731
888.395	14651
888.519	14587
888.643	14629
888.767	14564
888.891	14469
889.015	14298
889.139	14476
889.263	14385
889.387	14377
889.511	14632
889.635	14636
889.759	14446
889.883	14427
890.006	14396
890.13	14461
890.254	14336
890.377	14431
890.501	14210
890.624	14195
890.748	14301
890.871	14214
890.995	13997
891.118	14111
891.241	14065
891.364	14088
891.488	14256
891.611	14043
891.734	14119
891.857	14313
891.98	14081
892.103	14157
892.226	14195
892.349	14134
892.471	13864
892.594	14183
892.717	14077
892.839	14096
892.962	14119
893.085	14244
893.207	14050
893.33	14046
893.452	13959
893.575	14153
893.697	14043
893.819	14294
893.941	14275
894.064	14332
894.186	14069
894.308	14142
894.43	14145
894.552	14320
894.674	14252
894.796	14077
894.918	14176
895.04	14229
895.161	14282
895.283	14263
895.405	14168
895.526	14191
895.648	14218
895.769	14221
895.891	14294
896.012	14317
896.134	14263
896.255	14294
896.376	14267
896.498	14370
896.619	14286
896.74	14313
896.861	14400
896.982	14667
897.103	14743
897.224	14708
897.345	14522
897.466	14465
897.587	14499
897.708	14648
897.828	14492
897.949	14549
898.07	14492
898.19	14473
898.311	14727
898.431	14606
898.552	14644
898.672	14735
898.792	14727
898.913	14594
899.033	14518
899.153	14427
899.273	14442
899.393	14476
899.513	14503
899.633	14446
899.753	14526
899.873	14408
899.993	14583
900.113	14499
900.232	14514
900.352	14522
900.472	14404
900.591	14328
900.711	14385
900.83	14275
900.95	14450
901.069	14549
901.189	14301
901.308	14077
901.427	13974
901.546	14081
901.665	14016
901.784	14134
901.904	13917
902.023	13909
902.141	13689
902.26	13601
902.379	13712
902.498	13586
902.617	13537
902.735	13601
902.854	13510
902.973	13449
903.091	13400
903.21	13259
903.328	13331
903.446	13209
903.565	13232
903.683	13335
903.801	13126
903.919	13156
904.038	13160
904.156	13091
904.274	13114
904.392	13019
904.51	12924
904.627	12962
904.745	12993
904.863	13080
904.981	12810
905.098	12650
905.216	12627
905.334	12673
905.451	12631
905.569	12639
905.686	12806
905.803	12696
905.921	12536
906.038	12582
906.155	12475
906.272	12437
906.389	12418
906.506	12262
906.623	12247
906.74	12251
906.857	12140
906.974	12159
907.091	12346
907.208	12456
907.324	12311
907.441	12098
907.557	11999
907.674	11996
907.79	11961
907.907	11996
908.023	12034
908.139	12049
908.256	11969
908.372	11859
908.488	11920
908.604	11737
908.72	11680
908.836	11817
908.952	11707
909.068	11695
909.184	11897
909.3	11748
909.415	11840
909.531	11878
909.647	11596
909.762	11547
909.878	11516
909.993	11471
910.108	11505
910.224	11509
910.339	11551
910.454	11478
910.57	11436
910.685	11353
910.8	11619
910.915	11547
911.03	11395
911.145	11208
911.259	11250
911.374	11174
911.489	11105
911.604	11075
911.718	10991
911.833	11003
911.947	10831
912.062	10835
912.176	10991
912.291	10987
912.405	10930
912.519	11102
912.633	11162
912.748	11094
912.862	10995
912.976	10972
913.09	10736
913.204	10831
913.318	10847
913.431	11022
913.545	11018
913.659	10938
913.772	10908
913.886	10778
914	10729
914.113	10908
914.226	10915
914.34	10786
914.453	10710
914.566	10828
914.68	10702
914.793	10706
914.906	10573
915.019	10470
915.132	10428
915.245	10455
915.358	10634
915.47	10531
915.583	10542
915.696	10485
915.809	10664
915.921	10687
916.034	10459
916.146	10440
916.259	10432
916.371	10550
916.483	10512
916.595	10451
916.708	10455
916.82	10421
916.932	10379
917.044	10375
917.156	10398
917.268	10409
917.38	10375
917.491	10295
917.603	10390
917.715	10394
917.826	10470
917.938	10268
918.049	10276
918.161	10287
918.272	10481
918.384	10421
918.495	10295
918.606	10276
918.717	10120
918.828	10219
918.939	10265
919.05	10131
919.161	10219
919.272	9949
919.383	10082
919.494	10325
919.604	10447
919.715	10303
919.826	10230
919.936	10169
920.047	10303
920.157	10249
920.267	10413
920.378	10280
920.488	10211
920.598	10390
920.708	10554
920.818	10432
920.928	10405
921.038	10599
921.148	10519
921.258	10276
921.368	10196
921.477	10173
921.587	10101
921.697	10032
921.806	10131
921.916	9911
922.025	9797
922.134	9743
922.244	9759
922.353	9804
922.462	9709
922.571	9584
922.68	9492
922.789	9428
922.898	9447
923.007	9382
923.116	9424
923.224	9412
923.333	9420
923.442	9332
923.55	9291
923.659	9389
923.767	9488
923.876	9256
923.984	9462
924.092	9306
924.201	9363
924.309	9370
924.417	9370
924.525	9298
924.633	9279
924.741	10204
924.849	9058
924.956	9249
925.064	9104
925.172	9097
925.279	9131
925.387	9138
925.494	9226
925.602	9283
925.709	9184
925.816	9043
925.924	9173
926.031	9222
926.138	9176
926.245	9100
926.352	9127
926.459	9249
926.566	9241
926.673	9104
926.779	8979
926.886	9005
926.993	8960
927.099	8895
927.206	8845
927.312	8773
927.419	8902
927.525	8887
927.631	8967
927.737	8815
927.843	8716
927.95	8667
928.056	8731
928.162	8750
928.267	8766
928.373	9302
928.479	8872
928.585	8689
928.69	8731
928.796	8716
928.901	8670
929.007	8549
929.112	8629
929.218	8648
929.323	8556
929.428	8511
929.533	8689
929.638	8514
929.743	8552
929.848	8602
929.953	8537
930.058	8495
930.163	8362
930.267	8358
930.372	8556
930.477	8317
930.581	8522
930.685	8374
930.79	8248
930.894	8305
930.998	8244
931.103	8396
931.207	8096
931.311	8001
931.415	7974
931.519	7734
931.623	7811
