Data from test_V78500241_1019.txt Node
Date: Fri Mar 25 14:40:48 CST 2022
User: usil
Spectrometer: V785-0024
Trigger mode: 0
Integration Time (sec): 4.000000E-1
Scans to average: 1
Nonlinearity correction enabled: false
Boxcar width: 0
Storing dark spectrum: false
XAxis mode: Wavelengths
Number of Pixels in Spectrum: 1024
>>>>>Begin Spectral Data<<<<<
801.071	23048
801.214	22976
801.356	22706
801.499	22645
801.641	22405
801.783	22466
801.926	22512
802.068	22295
802.211	22280
802.353	22162
802.496	21937
802.638	21960
802.78	21838
802.923	21808
803.065	21838
803.208	21823
803.35	21755
803.492	21899
803.635	21926
803.777	21644
803.919	21831
804.061	22055
804.204	21774
804.346	21675
804.488	21530
804.63	21720
804.773	21660
804.915	21759
805.057	21797
805.199	21614
805.341	21827
805.483	21823
805.626	21709
805.768	21572
805.91	21720
806.052	21709
806.194	21530
806.336	21838
806.478	21778
806.62	21682
806.762	21857
806.904	21956
807.046	22177
807.188	22109
807.33	22238
807.472	22352
807.614	22070
807.756	22207
807.898	22223
808.04	22086
808.182	22181
808.324	22348
808.465	22421
808.607	22892
808.749	22892
808.891	23094
809.033	23246
809.174	23014
809.316	22881
809.458	22771
809.6	22569
809.741	22516
809.883	22512
810.025	22451
810.166	22462
810.308	22382
810.45	22325
810.591	22303
810.733	22048
810.875	21979
811.016	21899
811.158	21876
811.299	22082
811.441	22097
811.582	22067
811.724	21895
811.865	21934
812.007	21953
812.148	21838
812.29	21915
812.431	22131
812.573	22226
812.714	22341
812.855	22565
812.997	22489
813.138	22736
813.279	22577
813.421	22421
813.562	22318
813.703	22265
813.845	22112
813.986	21895
814.127	21496
814.268	21561
814.41	21458
814.551	21439
814.692	21496
814.833	21428
814.974	21496
815.115	21443
815.256	21310
815.397	21275
815.539	21367
815.68	21154
815.821	21119
815.962	21135
816.103	21116
816.244	21043
816.385	20933
816.526	20868
816.666	20735
816.807	20727
816.948	20746
817.089	20823
817.23	20655
817.371	20613
817.512	20533
817.653	20518
817.793	20438
817.934	20560
818.075	20575
818.216	20568
818.356	20560
818.497	20320
818.638	20362
818.778	20233
818.919	20286
819.06	20317
819.2	20415
819.341	20434
819.481	20530
819.622	20552
819.762	20731
819.903	20842
820.043	20754
820.184	20598
820.324	20476
820.465	20701
820.605	20590
820.746	20549
820.886	20434
821.026	20602
821.167	20556
821.307	20636
821.447	20480
821.588	20362
821.728	20180
821.868	20054
822.008	19967
822.149	20027
822.289	19967
822.429	19677
822.569	19597
822.709	19647
822.849	19377
822.99	19438
823.13	19438
823.27	19426
823.41	19308
823.55	19129
823.69	19270
823.83	19343
823.97	19194
824.11	18993
824.25	19012
824.389	18924
824.529	19126
824.669	19015
824.809	19206
824.949	19194
825.089	19095
825.228	18932
825.368	18882
825.508	18859
825.648	18924
825.787	18814
825.927	18897
826.067	18787
826.206	18654
826.346	18856
826.485	18859
826.625	18791
826.765	18810
826.904	18821
827.044	18525
827.183	18635
827.323	18452
827.462	18650
827.601	18456
827.741	18418
827.88	18498
828.02	18445
828.159	18403
828.298	18601
828.437	18536
828.577	18422
828.716	18532
828.855	18388
828.994	18209
829.134	18281
829.273	18224
829.412	18254
829.551	18072
829.69	18308
829.829	18117
829.968	18281
830.107	18388
830.246	18201
830.385	18133
830.524	18117
830.663	18038
830.802	17988
830.941	17885
831.08	17824
831.219	17939
831.357	17870
831.496	18129
831.635	17893
831.774	17687
831.913	17733
832.051	17665
832.19	17699
832.329	17554
832.467	17505
832.606	17570
832.744	17573
832.883	17554
833.022	17535
833.16	17634
833.299	17505
833.437	17729
833.576	17665
833.714	17646
833.852	17589
833.991	17630
834.129	17691
834.267	17714
834.406	17532
834.544	17623
834.682	17642
834.821	17562
834.959	17699
835.097	17532
835.235	17748
835.373	17619
835.511	17505
835.65	17414
835.788	17452
835.926	17303
836.064	17303
836.202	17353
836.34	17547
836.478	17630
836.615	17467
836.753	17497
836.891	17592
837.029	17501
837.167	17463
837.305	17337
837.443	17402
837.58	17360
837.718	17425
837.856	17296
837.993	17227
838.131	17322
838.269	17155
838.406	17254
838.544	17235
838.681	17102
838.819	16904
838.956	16896
839.094	16805
839.231	16847
839.369	16991
839.506	17284
839.643	17006
839.781	17006
839.918	16835
840.055	16885
840.193	16873
840.33	16843
840.467	16869
840.604	16839
840.742	17018
840.879	16736
841.016	16828
841.153	16889
841.29	16972
841.427	16923
841.564	16896
841.701	16835
841.838	16790
841.975	16733
842.112	16675
842.249	16558
842.385	16523
842.522	16790
842.659	16664
842.796	16630
842.933	16569
843.069	16660
843.206	16630
843.343	16736
843.479	16584
843.616	16584
843.752	16466
843.889	16356
844.025	16554
844.162	16398
844.298	16531
844.435	16348
844.571	16375
844.708	16478
844.844	16569
844.98	16717
845.117	16592
845.253	16451
845.389	16470
845.525	16736
845.661	16843
845.798	16991
845.934	17425
846.07	17356
846.206	17372
846.342	17288
846.478	16873
846.614	16493
846.75	16162
846.886	16131
847.022	16128
847.158	15983
847.294	16086
847.429	16063
847.565	16025
847.701	16230
847.837	15720
847.972	15663
848.108	15850
848.244	15770
848.379	15614
848.515	15424
848.65	15485
848.786	15481
848.921	15515
849.057	15648
849.192	15732
849.328	15549
849.463	15523
849.598	15492
849.734	15454
849.869	15450
850.004	15348
850.14	15370
850.275	15401
850.41	15245
850.545	15214
850.68	15272
850.815	15321
850.95	15294
851.085	15481
851.22	15359
851.355	15279
851.49	15310
851.625	15325
851.76	15313
851.895	15116
852.03	15138
852.165	15317
852.299	15378
852.434	15298
852.569	15306
852.703	15374
852.838	15321
852.973	15439
853.107	15458
853.242	15306
853.376	15203
853.511	15089
853.645	15062
853.78	15329
853.914	15222
854.048	15146
854.183	15169
854.317	15154
854.451	15336
854.585	15184
854.72	15154
854.854	15256
854.988	15127
855.122	15173
855.256	15039
855.39	15180
855.524	15245
855.658	15169
855.792	15192
855.926	15146
856.06	15249
856.194	15245
856.327	15123
856.461	15119
856.595	15226
856.729	15123
856.862	15230
856.996	15108
857.13	15116
857.263	15283
857.397	15344
857.53	15161
857.664	15165
857.797	15241
857.931	15283
858.064	15275
858.197	15230
858.331	15249
858.464	15051
858.597	15066
858.731	15112
858.864	15154
858.997	15142
859.13	15195
859.263	15176
859.396	15317
859.529	15104
859.662	15192
859.795	15150
859.928	15081
860.061	15180
860.194	15329
860.327	15169
860.46	15165
860.592	15131
860.725	15268
860.858	15275
860.99	15066
861.123	15043
861.256	15066
861.388	15131
861.521	15720
861.653	15024
861.786	15017
861.918	15119
862.05	14952
862.183	15089
862.315	15119
862.447	15123
862.58	15009
862.712	14899
862.844	14956
862.976	14956
863.108	14986
863.24	15393
863.372	14823
863.504	14899
863.636	14849
863.768	14895
863.9	14937
864.032	14796
864.164	14796
864.296	14952
864.428	14986
864.559	14944
864.691	14960
864.823	14982
864.954	14990
865.086	14929
865.217	14918
865.349	14895
865.48	14899
865.612	14990
865.743	15043
865.875	14941
866.006	14876
866.137	14921
866.269	14933
866.4	14952
866.531	14887
866.662	14781
866.793	14853
866.924	14834
867.055	14899
867.186	14834
867.317	14834
867.448	14804
867.579	14826
867.71	14861
867.841	14743
867.972	14758
868.103	14899
868.233	14941
868.364	14902
868.495	14960
868.625	15173
868.756	15214
868.886	15028
869.017	15085
869.147	15287
869.278	15233
869.408	15203
869.539	15135
869.669	15214
869.799	15165
869.929	15214
870.06	15161
870.19	15481
870.32	15462
870.45	15538
870.58	15538
870.71	15675
870.84	15599
870.97	15504
871.1	15576
871.23	15705
871.36	15705
871.489	15606
871.619	15667
871.749	15743
871.879	15831
872.008	15865
872.138	15599
872.267	15774
872.397	15572
872.526	15580
872.656	15629
872.785	15580
872.915	15736
873.044	15770
873.173	15743
873.303	15789
873.432	15819
873.561	15850
873.69	15743
873.819	15705
873.948	15873
874.077	15812
874.206	15739
874.335	15785
874.464	15949
874.593	16093
874.722	15972
874.851	16196
874.979	16139
875.108	16124
875.237	15979
875.365	16097
875.494	16105
875.623	16185
875.751	16154
875.88	16067
876.008	16272
876.136	16363
876.265	16542
876.393	16607
876.521	16649
876.65	16565
876.778	16565
876.906	16398
877.034	16508
877.162	16455
877.29	16386
877.418	16599
877.546	16561
877.674	16535
877.802	16561
877.93	16580
878.058	16519
878.185	16485
878.313	16550
878.441	16588
878.568	16417
878.696	16573
878.824	16675
878.951	16694
879.079	16885
879.206	17288
879.333	17140
879.461	17018
879.588	17181
879.715	17303
879.842	17372
879.97	16927
880.097	16793
880.224	16618
880.351	16645
880.478	16603
880.605	16546
880.732	16443
880.859	16706
880.986	16519
881.112	16493
881.239	16413
881.366	16284
881.493	16211
881.619	16204
881.746	16128
881.872	16200
881.999	16192
882.125	16105
882.252	16128
882.378	16177
882.505	16188
882.631	16036
882.757	15968
882.883	16048
883.01	15823
883.136	16006
883.262	15850
883.388	15804
883.514	15918
883.64	16010
883.766	15800
883.892	15774
884.018	15793
884.143	15899
884.269	16006
884.395	15690
884.52	15690
884.646	15648
884.772	15660
884.897	15572
885.023	15690
885.148	15675
885.274	15876
885.399	15766
885.524	15652
885.65	15568
885.775	15724
885.9	15667
886.025	15736
886.15	15644
886.275	15519
886.4	15515
886.525	15584
886.65	15545
886.775	15473
886.9	15774
887.025	15747
887.149	15614
887.274	15462
887.399	15386
887.523	15412
887.648	15313
887.773	15264
887.897	15462
888.021	15481
888.146	15359
888.27	15557
888.395	15469
888.519	15412
888.643	15401
888.767	15481
888.891	15291
889.015	15195
889.139	15317
889.263	15222
889.387	15443
889.511	15485
889.635	15393
889.759	15222
889.883	15070
890.006	15313
890.13	15302
890.254	15119
890.377	15218
890.501	14952
890.624	14929
890.748	15116
890.871	14880
890.995	14845
891.118	14777
891.241	14910
891.364	14811
891.488	14933
891.611	14914
891.734	14895
891.857	14937
891.98	14868
892.103	15070
892.226	14895
892.349	14796
892.471	14727
892.594	14880
892.717	14845
892.839	14765
892.962	14765
893.085	14876
893.207	14899
893.33	14769
893.452	14743
893.575	14830
893.697	14891
893.819	14998
893.941	15013
894.064	14971
894.186	14864
894.308	14826
894.43	14929
894.552	15074
894.674	15005
894.796	14842
894.918	14948
895.04	14838
895.161	15005
895.283	14960
895.405	14769
895.526	14918
895.648	14944
895.769	14937
895.891	14941
896.012	15001
896.134	14994
896.255	15058
896.376	14982
896.498	15020
896.619	14975
896.74	15036
896.861	15039
896.982	15389
897.103	15485
897.224	15283
897.345	15336
897.466	15039
897.587	15260
897.708	15386
897.828	15294
897.949	15226
898.07	15112
898.19	15233
898.311	15374
898.431	15272
898.552	15397
898.672	15443
898.792	15359
898.913	15367
899.033	15367
899.153	15176
899.273	15131
899.393	15142
899.513	15237
899.633	15184
899.753	15214
899.873	15161
899.993	15173
900.113	15241
900.232	15291
900.352	15138
900.472	15123
900.591	14971
900.711	15116
900.83	15108
900.95	15188
901.069	15097
901.189	14929
901.308	14746
901.427	14651
901.546	14739
901.665	14800
901.784	14758
901.904	14610
902.023	14549
902.141	14347
902.26	14290
902.379	14427
902.498	14233
902.617	14225
902.735	14351
902.854	14278
902.973	14214
903.091	14065
903.21	13947
903.328	13989
903.446	13963
903.565	13696
903.683	13849
903.801	13826
903.919	13788
904.038	13791
904.156	13582
904.274	13719
904.392	13666
904.51	13685
904.627	13613
904.745	13681
904.863	13712
904.981	13415
905.098	13247
905.216	13255
905.334	13289
905.451	13384
905.569	13301
905.686	13240
905.803	13293
905.921	13057
906.038	13209
906.155	13099
906.272	12993
906.389	12989
906.506	12814
906.623	12928
906.74	12829
906.857	12810
906.974	12726
907.091	12954
907.208	13129
907.324	12924
907.441	12783
907.557	12620
907.674	12642
907.79	12513
907.907	12513
908.023	12631
908.139	12612
908.256	12525
908.372	12578
908.488	12559
908.604	12361
908.72	12285
908.836	12452
908.952	12372
909.068	12353
909.184	12483
909.3	12334
909.415	12422
909.531	12300
909.647	12213
909.762	12083
909.878	12110
909.993	12117
910.108	12064
910.224	12114
910.339	12155
910.454	12049
910.57	12026
910.685	11878
910.8	12213
910.915	12144
911.03	11927
911.145	11752
911.259	11809
911.374	11779
911.489	11710
911.604	11707
911.718	11634
911.833	11604
911.947	11512
912.062	11452
912.176	11512
912.291	11539
912.405	11566
912.519	11718
912.633	11809
912.748	11554
912.862	11585
912.976	11501
913.09	11299
913.204	11345
913.318	11505
913.431	11463
913.545	11524
913.659	11490
913.772	11410
913.886	11379
914	11288
914.113	11326
914.226	11452
914.34	11368
914.453	11185
914.566	11345
914.68	11265
914.793	11311
914.906	11045
915.019	11033
915.132	10881
915.245	11010
915.358	11071
915.47	10995
915.583	11079
915.696	11094
915.809	11143
915.921	11181
916.034	11003
916.146	10957
916.259	10984
916.371	11113
916.483	10991
916.595	10946
916.708	10938
916.82	10957
916.932	11018
917.044	10927
917.156	10915
917.268	10831
917.38	10805
917.491	10892
917.603	10881
917.715	10915
917.826	10889
917.938	10854
918.049	10691
918.161	10816
918.272	10968
918.384	10908
918.495	10904
918.606	10744
918.717	10664
918.828	10653
918.939	10759
919.05	10706
919.161	10733
919.272	10565
919.383	10565
919.494	10721
919.604	10946
919.715	10714
919.826	10672
919.936	10679
920.047	10717
920.157	10786
920.267	10919
920.378	10740
920.488	10736
920.598	10896
920.708	10965
920.818	10889
920.928	10885
921.038	11124
921.148	11010
921.258	10778
921.368	10622
921.477	10577
921.587	10550
921.697	10474
921.806	10558
921.916	10481
922.025	10295
922.134	10257
922.244	10162
922.353	10306
922.462	10101
922.571	9972
922.68	9922
922.789	9892
922.898	9945
923.007	9907
923.116	9922
923.224	9945
923.333	10013
923.442	9785
923.55	9755
923.659	9865
923.767	9892
923.876	9816
923.984	9899
924.092	9755
924.201	9804
924.309	9759
924.417	9682
924.525	9705
924.633	9667
924.741	10649
924.849	9610
924.956	9637
925.064	9538
925.172	9542
925.279	9538
925.387	9610
925.494	9618
925.602	9751
925.709	9595
925.816	9507
925.924	9610
926.031	9618
926.138	9561
926.245	9644
926.352	9553
926.459	9580
926.566	9599
926.673	9485
926.779	9389
926.886	9382
926.993	9279
927.099	9214
927.206	9275
927.312	9214
927.419	9325
927.525	9355
927.631	9275
927.737	9165
927.843	9180
927.95	9104
928.056	9108
928.162	9150
928.267	9230
928.373	9720
928.479	9279
928.585	8952
928.69	9097
928.796	9157
928.901	9055
929.007	8918
929.112	9112
929.218	9001
929.323	8948
929.428	8899
929.533	9055
929.638	8842
929.743	8914
929.848	9024
929.953	8914
930.058	8830
930.163	8663
930.267	8689
930.372	8796
930.477	8708
930.581	8941
930.685	8750
930.79	8644
930.894	8640
930.998	8644
931.103	8796
931.207	8469
931.311	8396
931.415	8332
931.519	8199
931.623	8096
