Data from test_V78500241_1422.txt Node
Date: Fri Mar 25 14:43:37 CST 2022
User: usil
Spectrometer: V785-0024
Trigger mode: 0
Integration Time (sec): 4.000000E-1
Scans to average: 1
Nonlinearity correction enabled: false
Boxcar width: 0
Storing dark spectrum: false
XAxis mode: Wavelengths
Number of Pixels in Spectrum: 1024
>>>>>Begin Spectral Data<<<<<
801.071	22512
801.214	22303
801.356	22112
801.499	21975
801.641	21835
801.783	21694
801.926	21797
802.068	21732
802.211	21553
802.353	21492
802.496	21462
802.638	21279
802.78	21195
802.923	21264
803.065	21131
803.208	21032
803.35	21150
803.492	21245
803.635	21260
803.777	21039
803.919	21203
804.061	21447
804.204	21233
804.346	21081
804.488	20914
804.63	21192
804.773	21024
804.915	21077
805.057	21169
805.199	21081
805.341	21135
805.483	21302
805.626	21176
805.768	20994
805.91	21039
806.052	21089
806.194	21093
806.336	21188
806.478	21077
806.62	21104
806.762	21142
806.904	21264
807.046	21561
807.188	21363
807.33	21450
807.472	21462
807.614	21397
807.756	21367
807.898	21279
808.04	21237
808.182	21237
808.324	21370
808.465	21428
808.607	21603
808.749	21663
808.891	21903
809.033	21941
809.174	21781
809.316	21641
809.458	21599
809.6	21519
809.741	21717
809.883	21625
810.025	21755
810.166	21770
810.308	21564
810.45	21641
810.591	21473
810.733	21340
810.875	21313
811.016	21203
811.158	21112
811.299	21249
811.441	21367
811.582	21401
811.724	21344
811.865	21180
812.007	21142
812.148	21275
812.29	21325
812.431	21443
812.573	21553
812.714	21652
812.855	21682
812.997	21785
813.138	21949
813.279	21941
813.421	21751
813.562	21698
813.703	21431
813.845	21447
813.986	20998
814.127	20918
814.268	20830
814.41	20834
814.551	20834
814.692	20864
814.833	20609
814.974	20727
815.115	20830
815.256	20575
815.397	20545
815.539	20644
815.68	20450
815.821	20480
815.962	20476
816.103	20492
816.244	20381
816.385	20256
816.526	20309
816.666	20020
816.807	19879
816.948	19974
817.089	20142
817.23	20138
817.371	20035
817.512	19864
817.653	19936
817.793	20043
817.934	19803
818.075	19989
818.216	19833
818.356	19852
818.497	19712
818.638	19620
818.778	19605
818.919	19670
819.06	19639
819.2	19837
819.341	19856
819.481	19845
819.622	19932
819.762	20191
819.903	20050
820.043	19951
820.184	20008
820.324	19951
820.465	19989
820.605	19883
820.746	19852
820.886	19746
821.026	19887
821.167	19974
821.307	20039
821.447	19803
821.588	19639
821.728	19655
821.868	19403
822.008	19377
822.149	19316
822.289	19285
822.429	19080
822.569	18894
822.709	18939
822.849	18817
822.99	18905
823.13	18844
823.27	18749
823.41	18551
823.55	18544
823.69	18631
823.83	18635
823.97	18608
824.11	18365
824.25	18300
824.389	18540
824.529	18433
824.669	18426
824.809	18486
824.949	18418
825.089	18467
825.228	18410
825.368	18224
825.508	18148
825.648	18190
825.787	18251
825.927	18247
826.067	18136
826.206	18038
826.346	18205
826.485	18174
826.625	18144
826.765	18258
826.904	18159
827.044	17946
827.183	17942
827.323	17745
827.462	17961
827.601	17901
827.741	17832
827.88	17764
828.02	17718
828.159	17817
828.298	17927
828.437	17927
828.577	17817
828.716	17950
828.855	17821
828.994	17695
829.134	17551
829.273	17672
829.412	17577
829.551	17467
829.69	17638
829.829	17627
829.968	17737
830.107	17718
830.246	17646
830.385	17554
830.524	17497
830.663	17421
830.802	17265
830.941	17208
831.08	17136
831.219	17330
831.357	17231
831.496	17474
831.635	17193
831.774	17166
831.913	17067
832.051	17102
832.19	17075
832.329	16968
832.467	16881
832.606	16889
832.744	16900
832.883	16968
833.022	16930
833.16	16930
833.299	16991
833.437	16980
833.576	16976
833.714	17052
833.852	17014
833.991	17045
834.129	17060
834.267	16957
834.406	16957
834.544	16980
834.682	16923
834.821	16911
834.959	17166
835.097	16896
835.235	17006
835.373	16927
835.511	16999
835.65	16889
835.788	16900
835.926	16736
836.064	16752
836.202	16622
836.34	16911
836.478	16930
836.615	16900
836.753	16927
836.891	16927
837.029	16820
837.167	16850
837.305	16805
837.443	16725
837.58	16721
837.718	16850
837.856	16721
837.993	16569
838.131	16809
838.269	16599
838.406	16656
838.544	16630
838.681	16402
838.819	16398
838.956	16257
839.094	16287
839.231	16367
839.369	16394
839.506	16489
839.643	16409
839.781	16314
839.918	16261
840.055	16272
840.193	16325
840.33	16223
840.467	16352
840.604	16379
840.742	16542
840.879	16097
841.016	16166
841.153	16207
841.29	16325
841.427	16303
841.564	16287
841.701	16329
841.838	16219
841.975	16150
842.112	16204
842.249	16090
842.385	15975
842.522	16147
842.659	16036
842.796	16032
842.933	16029
843.069	16025
843.206	16036
843.343	16010
843.479	16120
843.616	16013
843.752	15816
843.889	15812
844.025	16032
844.162	15793
844.298	15934
844.435	15838
844.571	15720
844.708	15838
844.844	15994
844.98	16055
845.117	15953
845.253	15789
845.389	15679
845.525	15926
845.661	15736
845.798	15926
845.934	15918
846.07	15888
846.206	15930
846.342	16044
846.478	15873
846.614	15614
846.75	15515
846.886	15416
847.022	15557
847.158	15507
847.294	15519
847.429	15378
847.565	15447
847.701	15686
847.837	15173
847.972	15047
848.108	15207
848.244	15207
848.379	15001
848.515	15009
848.65	15039
848.786	15051
848.921	15020
849.057	15100
849.192	15024
849.328	15127
849.463	14986
849.598	14925
849.734	15009
849.869	14750
850.004	14788
850.14	14773
850.275	14857
850.41	14674
850.545	14773
850.68	14788
850.815	14872
850.95	14796
851.085	14914
851.22	14864
851.355	14804
851.49	14663
851.625	14834
851.76	14701
851.895	14632
852.03	14598
852.165	14743
852.299	14739
852.434	14887
852.569	14720
852.703	14815
852.838	14929
852.973	14963
853.107	14941
853.242	14670
853.376	14583
853.511	14514
853.645	14640
853.78	14705
853.914	14571
854.048	14617
854.183	14663
854.317	14651
854.451	14716
854.585	14568
854.72	14549
854.854	14640
854.988	14533
855.122	14644
855.256	14454
855.39	14636
855.524	14651
855.658	14739
855.792	14663
855.926	14659
856.06	14659
856.194	14880
856.327	14613
856.461	14651
856.595	14568
856.729	14488
856.862	14746
856.996	14686
857.13	14735
857.263	14720
857.397	14811
857.53	14663
857.664	14720
857.797	14678
857.931	14689
858.064	14712
858.197	14800
858.331	14530
858.464	14587
858.597	14590
858.731	14571
858.864	14575
858.997	14655
859.13	14651
859.263	14735
859.396	14640
859.529	14655
859.662	14686
859.795	14560
859.928	14606
860.061	14769
860.194	14849
860.327	14724
860.46	14556
860.592	14648
860.725	14746
860.858	14743
860.99	14640
861.123	14571
861.256	14549
861.388	14625
861.521	15492
861.653	14541
861.786	14511
861.918	14434
862.05	14556
862.183	14636
862.315	14636
862.447	14670
862.58	14465
862.712	14339
862.844	14324
862.976	14434
863.108	14454
863.24	14929
863.372	14320
863.504	14431
863.636	14370
863.768	14454
863.9	14415
864.032	14282
864.164	14370
864.296	14454
864.428	14412
864.559	14499
864.691	14454
864.823	14488
864.954	14400
865.086	14446
865.217	14396
865.349	14313
865.48	14362
865.612	14450
865.743	14469
865.875	14408
866.006	14431
866.137	14412
866.269	14336
866.4	14313
866.531	14336
866.662	14263
866.793	14377
866.924	14381
867.055	14431
867.186	14301
867.317	14370
867.448	14176
867.579	14313
867.71	14218
867.841	14332
867.972	14396
868.103	14381
868.233	14408
868.364	14423
868.495	14431
868.625	14594
868.756	14762
868.886	14514
869.017	14625
869.147	14636
869.278	14769
869.408	14610
869.539	14705
869.669	14655
869.799	14610
869.929	14716
870.06	14762
870.19	14876
870.32	14902
870.45	15009
870.58	15005
870.71	15112
870.84	15089
870.97	15066
871.1	14963
871.23	15249
871.36	15237
871.489	15169
871.619	15127
871.749	15180
871.879	15264
872.008	15283
872.138	15192
872.267	15161
872.397	15233
872.526	15081
872.656	15009
872.785	15085
872.915	15214
873.044	15344
873.173	15310
873.303	15245
873.432	15237
873.561	15348
873.69	15351
873.819	15268
873.948	15241
874.077	15431
874.206	15252
874.335	15348
874.464	15458
874.593	15599
874.722	15439
874.851	15652
874.979	15587
875.108	15618
875.237	15557
875.365	15515
875.494	15618
875.623	15660
875.751	15420
875.88	15603
876.008	15774
876.136	15930
876.265	16032
876.393	16040
876.521	16086
876.65	16029
876.778	16032
876.906	15911
877.034	16032
877.162	15892
877.29	15979
877.418	16013
877.546	15941
877.674	15983
877.802	15964
877.93	15918
878.058	16101
878.185	15899
878.313	15987
878.441	16032
878.568	15941
878.696	16002
878.824	16025
878.951	16059
879.079	16188
879.206	16360
879.333	16280
879.461	16120
879.588	16322
879.715	16299
879.842	16413
879.97	16048
880.097	15930
880.224	15991
880.351	15937
880.478	15911
880.605	15907
880.732	15857
880.859	16143
880.986	15895
881.112	15975
881.239	15789
881.366	15743
881.493	15504
881.619	15462
881.746	15511
881.872	15587
881.999	15466
882.125	15488
882.252	15511
882.378	15591
882.505	15618
882.631	15462
882.757	15313
882.883	15439
883.01	15401
883.136	15321
883.262	15256
883.388	15146
883.514	15386
883.64	15431
883.766	15306
883.892	15039
884.018	15036
884.143	15363
884.269	15447
884.395	15066
884.52	15154
884.646	15085
884.772	14948
884.897	14941
885.023	15089
885.148	15142
885.274	15226
885.399	15058
885.524	14948
885.65	15055
885.775	15097
885.9	14986
886.025	15165
886.15	15108
886.275	15032
886.4	14975
886.525	15055
886.65	14948
886.775	14921
886.9	15180
887.025	15272
887.149	15051
887.274	14872
887.399	14769
887.523	14788
887.648	14826
887.773	14765
887.897	14902
888.021	14933
888.146	14830
888.27	14986
888.395	14990
888.519	14887
888.643	14933
888.767	14921
888.891	14727
889.015	14667
889.139	14708
889.263	14689
889.387	14823
889.511	14956
889.635	14815
889.759	14773
889.883	14716
890.006	14663
890.13	14796
890.254	14644
890.377	14598
890.501	14469
890.624	14465
890.748	14590
890.871	14412
890.995	14355
891.118	14351
891.241	14347
891.364	14393
891.488	14499
891.611	14419
891.734	14503
891.857	14522
891.98	14400
892.103	14473
892.226	14381
892.349	14408
892.471	14233
892.594	14351
892.717	14389
892.839	14324
892.962	14389
893.085	14457
893.207	14336
893.33	14286
893.452	14305
893.575	14427
893.697	14343
893.819	14518
893.941	14415
894.064	14598
894.186	14362
894.308	14328
894.43	14537
894.552	14514
894.674	14442
894.796	14282
894.918	14389
895.04	14294
895.161	14560
895.283	14473
895.405	14461
895.526	14446
895.648	14461
895.769	14587
895.891	14587
896.012	14636
896.134	14594
896.255	14613
896.376	14541
896.498	14507
896.619	14621
896.74	14670
896.861	14613
896.982	14830
897.103	15005
897.224	14826
897.345	14853
897.466	14743
897.587	14746
897.708	14902
897.828	14899
897.949	14857
898.07	14727
898.19	14788
898.311	14830
898.431	14906
898.552	14963
898.672	14960
898.792	14998
898.913	14887
899.033	14834
899.153	14735
899.273	14629
899.393	14720
899.513	14689
899.633	14807
899.753	14724
899.873	14701
899.993	14716
900.113	14716
900.232	14758
900.352	14765
900.472	14644
900.591	14613
900.711	14682
900.83	14587
900.95	14712
901.069	14686
901.189	14564
901.308	14408
901.427	14301
901.546	14278
901.665	14370
901.784	14351
901.904	14191
902.023	14153
902.141	13978
902.26	13940
902.379	13993
902.498	13928
902.617	13791
902.735	13864
902.854	13906
902.973	13791
903.091	13567
903.21	13556
903.328	13544
903.446	13518
903.565	13449
903.683	13480
903.801	13255
903.919	13358
904.038	13388
904.156	13270
904.274	13293
904.392	13194
904.51	13206
904.627	13183
904.745	13206
904.863	13251
904.981	12996
905.098	12928
905.216	12894
905.334	12924
905.451	12905
905.569	12871
905.686	12981
905.803	12867
905.921	12814
906.038	12840
906.155	12753
906.272	12665
906.389	12563
906.506	12551
906.623	12555
906.74	12407
906.857	12403
906.974	12327
907.091	12506
907.208	12642
907.324	12544
907.441	12452
907.557	12251
907.674	12308
907.79	12167
907.907	12171
908.023	12292
908.139	12281
908.256	12186
908.372	12148
908.488	12182
908.604	12079
908.72	11999
908.836	12034
908.952	11942
909.068	12022
909.184	12133
909.3	11954
909.415	12041
909.531	12034
909.647	11809
909.762	11707
909.878	11726
909.993	11733
910.108	11737
910.224	11608
910.339	11737
910.454	11638
910.57	11585
910.685	11577
910.8	11912
910.915	11737
911.03	11615
911.145	11467
911.259	11516
911.374	11486
911.489	11364
911.604	11303
911.718	11223
911.833	11246
911.947	11121
912.062	11022
912.176	11147
912.291	11220
912.405	11117
912.519	11421
912.633	11353
912.748	11288
912.862	11178
912.976	11143
913.09	10961
913.204	11098
913.318	11102
913.431	11223
913.545	11105
913.659	11193
913.772	11079
913.886	10927
914	10949
914.113	11041
914.226	11136
914.34	11022
914.453	10835
914.566	11033
914.68	10976
914.793	10858
914.906	10752
915.019	10675
915.132	10630
915.245	10710
915.358	10759
915.47	10752
915.583	10736
915.696	10786
915.809	10748
915.921	10850
916.034	10714
916.146	10740
916.259	10649
916.371	10774
916.483	10645
916.595	10634
916.708	10660
916.82	10668
916.932	10630
917.044	10618
917.156	10588
917.268	10523
917.38	10580
917.491	10508
917.603	10519
917.715	10634
917.826	10615
917.938	10512
918.049	10485
918.161	10584
918.272	10660
918.384	10736
918.495	10573
918.606	10299
918.717	10363
918.828	10398
918.939	10447
919.05	10265
919.161	10421
919.272	10173
919.383	10291
919.494	10519
919.604	10645
919.715	10455
919.826	10356
919.936	10363
920.047	10512
920.157	10462
920.267	10653
920.378	10421
920.488	10440
920.598	10588
920.708	10675
920.818	10637
920.928	10607
921.038	10797
921.148	10725
921.258	10390
921.368	10276
921.477	10299
921.587	10284
921.697	10128
921.806	10219
921.916	10192
922.025	10093
922.134	10006
922.244	9983
922.353	10010
922.462	9895
922.571	9781
922.68	9644
922.789	9580
922.898	9675
923.007	9587
923.116	9713
923.224	9660
923.333	9622
923.442	9523
923.55	9488
923.659	9526
923.767	9663
923.876	9515
923.984	9618
924.092	9458
924.201	9542
924.309	9500
924.417	9557
924.525	9515
924.633	9511
924.741	10333
924.849	9279
924.956	9485
925.064	9306
925.172	9142
925.279	9233
925.387	9287
925.494	9310
925.602	9428
925.709	9397
925.816	9237
925.924	9245
926.031	9374
926.138	9355
926.245	9279
926.352	9192
926.459	9329
926.566	9313
926.673	9317
926.779	9173
926.886	9135
926.993	9058
927.099	8998
927.206	9009
927.312	9005
927.419	9062
927.525	8967
927.631	9017
927.737	8986
927.843	8891
927.95	8788
928.056	8937
928.162	8899
928.267	8891
928.373	9603
928.479	8937
928.585	8807
928.69	8864
928.796	8902
928.901	8815
929.007	8655
929.112	8754
929.218	8708
929.323	8705
929.428	8769
929.533	8857
929.638	8667
929.743	8663
929.848	8769
929.953	8716
930.058	8617
930.163	8446
930.267	8530
930.372	8613
930.477	8434
930.581	8708
930.685	8537
930.79	8374
930.894	8473
930.998	8408
931.103	8571
931.207	8176
931.311	8229
931.415	8103
931.519	7921
931.623	7963
