Data from test_V78500241_2996.txt Node
Date: Fri Mar 25 14:54:34 CST 2022
User: usil
Spectrometer: V785-0024
Trigger mode: 0
Integration Time (sec): 4.000000E-1
Scans to average: 1
Nonlinearity correction enabled: false
Boxcar width: 0
Storing dark spectrum: false
XAxis mode: Wavelengths
Number of Pixels in Spectrum: 1024
>>>>>Begin Spectral Data<<<<<
801.071	22112
801.214	22002
801.356	21732
801.499	21656
801.641	21568
801.783	21492
801.926	21507
802.068	21363
802.211	21268
802.353	21199
802.496	21017
802.638	20941
802.78	20845
802.923	20804
803.065	20712
803.208	20670
803.35	20750
803.492	20864
803.635	20925
803.777	20792
803.919	20914
804.061	21154
804.204	20845
804.346	20716
804.488	20663
804.63	20864
804.773	20686
804.915	20731
805.057	20731
805.199	20606
805.341	20568
805.483	20708
805.626	20708
805.768	20842
805.91	20777
806.052	20769
806.194	20609
806.336	20758
806.478	20796
806.62	20663
806.762	20800
806.904	20842
807.046	21157
807.188	20944
807.33	20986
807.472	21024
807.614	20929
807.756	21051
807.898	20986
808.04	20807
808.182	20708
808.324	20887
808.465	20895
808.607	20902
808.749	21032
808.891	21233
809.033	21245
809.174	21070
809.316	21074
809.458	21074
809.6	21020
809.741	21161
809.883	21116
810.025	21188
810.166	21214
810.308	21272
810.45	21131
810.591	21089
810.733	21066
810.875	20849
811.016	20705
811.158	20788
811.299	20842
811.441	20921
811.582	21024
811.724	20849
811.865	20834
812.007	20720
812.148	20845
812.29	20963
812.431	21055
812.573	21188
812.714	21233
812.855	21367
812.997	21496
813.138	21622
813.279	21473
813.421	21401
813.562	21214
813.703	21119
813.845	20910
813.986	20743
814.127	20484
814.268	20495
814.41	20427
814.551	20473
814.692	20541
814.833	20415
814.974	20343
815.115	20370
815.256	20225
815.397	20180
815.539	20252
815.68	20119
815.821	20100
815.962	20115
816.103	20050
816.244	20027
816.385	19811
816.526	19788
816.666	19700
816.807	19491
816.948	19582
817.089	19780
817.23	19704
817.371	19426
817.512	19502
817.653	19582
817.793	19468
817.934	19434
818.075	19601
818.216	19400
818.356	19544
818.497	19430
818.638	19240
818.778	19164
818.919	19206
819.06	19206
819.2	19278
819.341	19407
819.481	19453
819.622	19499
819.762	19658
819.903	19632
820.043	19597
820.184	19506
820.324	19483
820.465	19655
820.605	19483
820.746	19499
820.886	19259
821.026	19430
821.167	19381
821.307	19445
821.447	19533
821.588	19327
821.728	19232
821.868	19129
822.008	18856
822.149	18882
822.289	18935
822.429	18623
822.569	18528
822.709	18502
822.849	18471
822.99	18327
823.13	18365
823.27	18315
823.41	18357
823.55	18133
823.69	18171
823.83	18254
823.97	18216
824.11	18049
824.25	17939
824.389	17999
824.529	18007
824.669	17980
824.809	18121
824.949	18072
825.089	18007
825.228	17984
825.368	17737
825.508	17878
825.648	17805
825.787	17718
825.927	17901
826.067	17600
826.206	17661
826.346	17809
826.485	17729
826.625	17760
826.765	17813
826.904	17771
827.044	17543
827.183	17516
827.323	17398
827.462	17444
827.601	17452
827.741	17429
827.88	17433
828.02	17208
828.159	17398
828.298	17535
828.437	17532
828.577	17402
828.716	17547
828.855	17425
828.994	17231
829.134	17193
829.273	17284
829.412	17147
829.551	17109
829.69	17227
829.829	17189
829.968	17239
830.107	17242
830.246	17193
830.385	17075
830.524	17185
830.663	17022
830.802	16968
830.941	16790
831.08	16839
831.219	16923
831.357	16824
831.496	17025
831.635	16850
831.774	16717
831.913	16641
832.051	16561
832.19	16561
832.329	16573
832.467	16607
832.606	16432
832.744	16516
832.883	16516
833.022	16360
833.16	16535
833.299	16611
833.437	16535
833.576	16519
833.714	16554
833.852	16504
833.991	16573
834.129	16672
834.267	16702
834.406	16584
834.544	16637
834.682	16694
834.821	16550
834.959	16729
835.097	16478
835.235	16653
835.373	16592
835.511	16577
835.65	16459
835.788	16432
835.926	16314
836.064	16299
836.202	16371
836.34	16519
836.478	16451
836.615	16428
836.753	16417
836.891	16527
837.029	16466
837.167	16413
837.305	16417
837.443	16299
837.58	16268
837.718	16344
837.856	16318
837.993	16337
838.131	16363
838.269	16234
838.406	16276
838.544	16173
838.681	16048
838.819	15972
838.956	15816
839.094	15819
839.231	15895
839.369	15983
839.506	16188
839.643	16109
839.781	15770
839.918	15770
840.055	15812
840.193	15861
840.33	15808
840.467	15812
840.604	15888
840.742	16131
840.879	15644
841.016	15717
841.153	15762
841.29	15975
841.427	15842
841.564	15911
841.701	15975
841.838	15747
841.975	15724
842.112	15709
842.249	15682
842.385	15622
842.522	15800
842.659	15671
842.796	15553
842.933	15675
843.069	15458
843.206	15564
843.343	15644
843.479	15701
843.616	15698
843.752	15355
843.889	15393
844.025	15561
844.162	15458
844.298	15526
844.435	15420
844.571	15382
844.708	15507
844.844	15576
844.98	15496
845.117	15530
845.253	15389
845.389	15249
845.525	15287
845.661	15302
845.798	15226
845.934	15249
846.07	15188
846.206	15222
846.342	15272
846.478	15146
846.614	15047
846.75	14979
846.886	14906
847.022	15058
847.158	14994
847.294	15077
847.429	15013
847.565	14990
847.701	15336
847.837	14762
847.972	14792
848.108	14819
848.244	14785
848.379	14693
848.515	14556
848.65	14507
848.786	14530
848.921	14644
849.057	14590
849.192	14708
849.328	14594
849.463	14602
849.598	14526
849.734	14488
849.869	14499
850.004	14317
850.14	14396
850.275	14393
850.41	14278
850.545	14309
850.68	14244
850.815	14362
850.95	14240
851.085	14541
851.22	14427
851.355	14389
851.49	14278
851.625	14278
851.76	14237
851.895	14286
852.03	14153
852.165	14256
852.299	14305
852.434	14442
852.569	14415
852.703	14427
852.838	14461
852.973	14400
853.107	14404
853.242	14282
853.376	14199
853.511	14054
853.645	14237
853.78	14328
853.914	14278
854.048	14142
854.183	14214
854.317	14298
854.451	14431
854.585	14161
854.72	14195
854.854	14259
854.988	14218
855.122	14180
855.256	14058
855.39	14202
855.524	14233
855.658	14313
855.792	14237
855.926	14298
856.06	14237
856.194	14305
856.327	14244
856.461	14275
856.595	14183
856.729	14187
856.862	14355
856.996	14305
857.13	14248
857.263	14381
857.397	14374
857.53	14221
857.664	14294
857.797	14271
857.931	14267
858.064	14317
858.197	14286
858.331	14237
858.464	14191
858.597	14168
858.731	14259
858.864	14202
858.997	14214
859.13	14294
859.263	14267
859.396	14267
859.529	14126
859.662	14123
859.795	14191
859.928	14248
860.061	14275
860.194	14412
860.327	14358
860.46	14237
860.592	14301
860.725	14347
860.858	14389
860.99	14153
861.123	14172
861.256	14130
861.388	14191
861.521	14933
861.653	14012
861.786	14035
861.918	14107
862.05	14111
862.183	14180
862.315	14202
862.447	14168
862.58	14149
862.712	13936
862.844	13868
862.976	13963
863.108	14054
863.24	14511
863.372	13944
863.504	14016
863.636	13887
863.768	14039
863.9	14024
864.032	13940
864.164	14016
864.296	14027
864.428	14054
864.559	14172
864.691	14081
864.823	14062
864.954	14103
865.086	13982
865.217	14024
865.349	13978
865.48	13955
865.612	14016
865.743	14164
865.875	13925
866.006	13932
866.137	13978
866.269	13967
866.4	13951
866.531	13913
866.662	13955
866.793	13986
866.924	13887
867.055	13963
867.186	14054
867.317	13986
867.448	13833
867.579	13932
867.71	13879
867.841	13822
867.972	14039
868.103	13963
868.233	13868
868.364	13982
868.495	14062
868.625	14206
868.756	14324
868.886	14138
869.017	14195
869.147	14286
869.278	14244
869.408	14161
869.539	14199
869.669	14320
869.799	14305
869.929	14343
870.06	14328
870.19	14537
870.32	14564
870.45	14564
870.58	14667
870.71	14743
870.84	14686
870.97	14552
871.1	14651
871.23	14792
871.36	14727
871.489	14746
871.619	14720
871.749	14788
871.879	14880
872.008	14937
872.138	14823
872.267	14864
872.397	14720
872.526	14674
872.656	14636
872.785	14674
872.915	14872
873.044	14891
873.173	14724
873.303	14895
873.432	14906
873.561	14963
873.69	14906
873.819	14853
873.948	14857
874.077	14842
874.206	14883
874.335	14902
874.464	14986
874.593	15195
874.722	15119
874.851	15154
874.979	15161
875.108	15211
875.237	15127
875.365	15123
875.494	15127
875.623	15192
875.751	15112
875.88	15203
876.008	15336
876.136	15405
876.265	15648
876.393	15770
876.521	15637
876.65	15641
876.778	15603
876.906	15587
877.034	15549
877.162	15561
877.29	15447
877.418	15526
877.546	15633
877.674	15542
877.802	15553
877.93	15587
878.058	15587
878.185	15564
878.313	15408
878.441	15614
878.568	15420
878.696	15523
878.824	15656
878.951	15591
879.079	15728
879.206	15838
879.333	15812
879.461	15625
879.588	15656
879.715	15808
879.842	15937
879.97	15751
880.097	15405
880.224	15416
880.351	15378
880.478	15420
880.605	15450
880.732	15378
880.859	15652
880.986	15454
881.112	15458
881.239	15321
881.366	15237
881.493	15165
881.619	15150
881.746	15062
881.872	15150
881.999	15036
882.125	15108
882.252	15154
882.378	15173
882.505	15272
882.631	15051
882.757	14952
882.883	15039
883.01	14937
883.136	14845
883.262	14773
883.388	14739
883.514	14948
883.64	14982
883.766	14899
883.892	14777
884.018	14788
884.143	14979
884.269	14914
884.395	14697
884.52	14659
884.646	14621
884.772	14488
884.897	14518
885.023	14648
885.148	14754
885.274	14785
885.399	14720
885.524	14590
885.65	14625
885.775	14606
885.9	14560
886.025	14705
886.15	14693
886.275	14701
886.4	14488
886.525	14621
886.65	14518
886.775	14610
886.9	14788
887.025	14864
887.149	14689
887.274	14495
887.399	14415
887.523	14396
887.648	14423
887.773	14476
887.897	14469
888.021	14454
888.146	14404
888.27	14556
888.395	14503
888.519	14537
888.643	14541
888.767	14602
888.891	14408
889.015	14282
889.139	14328
889.263	14339
889.387	14461
889.511	14484
889.635	14450
889.759	14263
889.883	14355
890.006	14317
890.13	14473
890.254	14309
890.377	14275
890.501	14069
890.624	14138
890.748	14278
890.871	14092
890.995	14046
891.118	13898
891.241	14020
891.364	13970
891.488	14130
891.611	14005
891.734	13978
891.857	14142
891.98	14081
892.103	14130
892.226	14058
892.349	13936
892.471	13898
892.594	14043
892.717	14016
892.839	14088
892.962	14039
893.085	14069
893.207	14100
893.33	13898
893.452	13936
893.575	14142
893.697	13951
893.819	14263
893.941	14240
894.064	14153
894.186	13986
894.308	14046
894.43	14206
894.552	14210
894.674	14199
894.796	14008
894.918	13925
895.04	13974
895.161	14115
895.283	14142
895.405	14100
895.526	14081
895.648	14168
895.769	14138
895.891	14195
896.012	14290
896.134	14176
896.255	14214
896.376	14180
896.498	14206
896.619	14339
896.74	14149
896.861	14286
896.982	14541
897.103	14651
897.224	14454
897.345	14473
897.466	14381
897.587	14511
897.708	14587
897.828	14434
897.949	14461
898.07	14282
898.19	14473
898.311	14560
898.431	14514
898.552	14560
898.672	14651
898.792	14621
898.913	14598
899.033	14492
899.153	14450
899.273	14343
899.393	14298
899.513	14419
899.633	14434
899.753	14400
899.873	14438
899.993	14488
900.113	14495
900.232	14438
900.352	14408
900.472	14419
900.591	14305
900.711	14225
900.83	14298
900.95	14351
901.069	14408
901.189	14237
901.308	13997
901.427	13890
901.546	13921
901.665	13970
901.784	14005
901.904	13871
902.023	13799
902.141	13506
902.26	13491
902.379	13594
902.498	13487
902.617	13518
902.735	13586
902.854	13567
902.973	13514
903.091	13274
903.21	13209
903.328	13232
903.446	13206
903.565	13213
903.683	13107
903.801	13065
903.919	13053
904.038	13076
904.156	12928
904.274	12932
904.392	12848
904.51	12909
904.627	12886
904.745	12920
904.863	12970
904.981	12757
905.098	12570
905.216	12597
905.334	12684
905.451	12585
905.569	12536
905.686	12620
905.803	12612
905.921	12346
906.038	12506
906.155	12372
906.272	12414
906.389	12258
906.506	12133
906.623	12190
906.74	12148
906.857	12091
906.974	12098
907.091	12182
907.208	12342
907.324	12186
907.441	12114
907.557	11923
907.674	11984
907.79	11874
907.907	11954
908.023	11863
908.139	11920
908.256	11843
908.372	11817
908.488	11832
908.604	11771
908.72	11733
908.836	11668
908.952	11638
909.068	11676
909.184	11771
909.3	11707
909.415	11737
909.531	11676
909.647	11444
909.762	11448
909.878	11493
909.993	11535
910.108	11436
910.224	11425
910.339	11528
910.454	11379
910.57	11231
910.685	11235
910.8	11547
910.915	11463
911.03	11379
911.145	11181
911.259	11083
911.374	11128
911.489	11075
911.604	11048
911.718	10847
911.833	10965
911.947	10763
912.062	10797
912.176	10877
912.291	10972
912.405	10927
912.519	11216
912.633	10995
912.748	10961
912.862	10995
912.976	10774
913.09	10679
913.204	10706
913.318	10816
913.431	10919
913.545	10831
913.659	10869
913.772	10877
913.886	10755
914	10664
914.113	10714
914.226	10889
914.34	10771
914.453	10622
914.566	10809
914.68	10653
914.793	10694
914.906	10440
915.019	10356
915.132	10322
915.245	10500
915.358	10333
915.47	10436
915.583	10451
915.696	10478
915.809	10668
915.921	10538
916.034	10432
916.146	10413
916.259	10386
916.371	10493
916.483	10421
916.595	10329
916.708	10348
916.82	10360
916.932	10333
917.044	10428
917.156	10284
917.268	10253
917.38	10314
917.491	10196
917.603	10287
917.715	10390
917.826	10367
917.938	10207
918.049	10154
918.161	10280
918.272	10394
918.384	10382
918.495	10314
918.606	10086
918.717	10063
918.828	10173
918.939	10150
919.05	10044
919.161	10082
919.272	9949
919.383	9975
919.494	10215
919.604	10371
919.715	10116
919.826	10112
919.936	10135
920.047	10261
920.157	10169
920.267	10348
920.378	10169
920.488	10188
920.598	10314
920.708	10466
920.818	10394
920.928	10325
921.038	10558
921.148	10531
921.258	10173
921.368	10097
921.477	10055
921.587	10017
921.697	9888
921.806	10055
921.916	9991
922.025	9785
922.134	9751
922.244	9671
922.353	9774
922.462	9637
922.571	9515
922.68	9466
922.789	9363
922.898	9500
923.007	9367
923.116	9485
923.224	9401
923.333	9496
923.442	9275
923.55	9336
923.659	9237
923.767	9393
923.876	9268
923.984	9401
924.092	9245
924.201	9298
924.309	9287
924.417	9291
924.525	9268
924.633	9275
924.741	10211
924.849	8982
924.956	9199
925.064	9123
925.172	8960
925.279	8990
925.387	9119
925.494	9150
925.602	9192
925.709	9142
925.816	9013
925.924	9112
926.031	9100
926.138	9077
926.245	9119
926.352	9005
926.459	9142
926.566	9195
926.673	9039
926.779	8918
926.886	8902
926.993	8811
927.099	8811
927.206	8754
927.312	8758
927.419	8823
927.525	8777
927.631	8838
927.737	8731
927.843	8697
927.95	8610
928.056	8686
928.162	8636
928.267	8743
928.373	9188
928.479	8796
928.585	8526
928.69	8659
928.796	8712
928.901	8587
929.007	8488
929.112	8583
929.218	8636
929.323	8533
929.428	8499
929.533	8625
929.638	8412
929.743	8549
929.848	8560
929.953	8450
930.058	8457
930.163	8313
930.267	8305
930.372	8336
930.477	8279
930.581	8419
930.685	8332
930.79	8172
930.894	8252
930.998	8225
931.103	8393
931.207	8001
931.311	7993
931.415	7932
931.519	7784
931.623	7788
