Data from test_V78500241_2933.txt Node
Date: Fri Mar 25 14:54:08 CST 2022
User: usil
Spectrometer: V785-0024
Trigger mode: 0
Integration Time (sec): 4.000000E-1
Scans to average: 1
Nonlinearity correction enabled: false
Boxcar width: 0
Storing dark spectrum: false
XAxis mode: Wavelengths
Number of Pixels in Spectrum: 1024
>>>>>Begin Spectral Data<<<<<
801.071	22143
801.214	21998
801.356	21762
801.499	21671
801.641	21553
801.783	21363
801.926	21553
802.068	21275
802.211	21336
802.353	21192
802.496	21081
802.638	20982
802.78	20921
802.923	20845
803.065	20743
803.208	20773
803.35	20895
803.492	20971
803.635	21051
803.777	20731
803.919	20895
804.061	21127
804.204	20887
804.346	20659
804.488	20724
804.63	20746
804.773	20693
804.915	20678
805.057	20804
805.199	20739
805.341	20758
805.483	20834
805.626	20746
805.768	20765
805.91	20735
806.052	20716
806.194	20552
806.336	20925
806.478	20613
806.62	20594
806.762	20853
806.904	20811
807.046	21058
807.188	21055
807.33	21028
807.472	21081
807.614	21020
807.756	20960
807.898	20781
808.04	20697
808.182	20796
808.324	20849
808.465	20887
808.607	21032
808.749	21036
808.891	21085
809.033	21233
809.174	21085
809.316	21039
809.458	21173
809.6	20960
809.741	21112
809.883	21199
810.025	21226
810.166	21245
810.308	21283
810.45	21138
810.591	21165
810.733	21036
810.875	20849
811.016	20735
811.158	20743
811.299	20868
811.441	20887
811.582	20944
811.724	20785
811.865	20792
812.007	20701
812.148	20754
812.29	20914
812.431	20994
812.573	21104
812.714	21252
812.855	21344
812.997	21443
813.138	21595
813.279	21439
813.421	21401
813.562	21275
813.703	21077
813.845	20975
813.986	20644
814.127	20590
814.268	20442
814.41	20499
814.551	20362
814.692	20408
814.833	20278
814.974	20351
815.115	20461
815.256	20263
815.397	20218
815.539	20237
815.68	20218
815.821	19978
815.962	20157
816.103	19997
816.244	19978
816.385	19833
816.526	19693
816.666	19647
816.807	19476
816.948	19575
817.089	19590
817.23	19609
817.371	19502
817.512	19521
817.653	19533
817.793	19381
817.934	19453
818.075	19518
818.216	19529
818.356	19445
818.497	19377
818.638	19198
818.778	19171
818.919	19247
819.06	19244
819.2	19331
819.341	19362
819.481	19301
819.622	19506
819.762	19677
819.903	19525
820.043	19590
820.184	19453
820.324	19548
820.465	19521
820.605	19476
820.746	19472
820.886	19358
821.026	19480
821.167	19457
821.307	19480
821.447	19335
821.588	19148
821.728	19137
821.868	19019
822.008	18844
822.149	18806
822.289	18821
822.429	18627
822.569	18506
822.709	18658
822.849	18422
822.99	18323
823.13	18357
823.27	18388
823.41	18277
823.55	18167
823.69	18247
823.83	18300
823.97	18125
824.11	17832
824.25	17882
824.389	17870
824.529	18041
824.669	17901
824.809	18003
824.949	18011
825.089	18064
825.228	17882
825.368	17824
825.508	17714
825.648	17714
825.787	17901
825.927	17821
826.067	17752
826.206	17657
826.346	17760
826.485	17885
826.625	17813
826.765	17878
826.904	17794
827.044	17497
827.183	17543
827.323	17395
827.462	17471
827.601	17379
827.741	17467
827.88	17387
828.02	17322
828.159	17353
828.298	17505
828.437	17623
828.577	17512
828.716	17608
828.855	17474
828.994	17197
829.134	17258
829.273	17208
829.412	17250
829.551	17280
829.69	17193
829.829	17216
829.968	17239
830.107	17231
830.246	17250
830.385	17105
830.524	17029
830.663	16961
830.802	16942
830.941	16797
831.08	16881
831.219	16934
831.357	16877
831.496	17067
831.635	16828
831.774	16782
831.913	16653
832.051	16630
832.19	16713
832.329	16618
832.467	16424
832.606	16455
832.744	16466
832.883	16493
833.022	16459
833.16	16466
833.299	16542
833.437	16512
833.576	16588
833.714	16504
833.852	16599
833.991	16664
834.129	16577
834.267	16558
834.406	16447
834.544	16596
834.682	16607
834.821	16455
834.959	16710
835.097	16459
835.235	16710
835.373	16580
835.511	16504
835.65	16436
835.788	16466
835.926	16333
836.064	16272
836.202	16329
836.34	16478
836.478	16512
836.615	16546
836.753	16356
836.891	16527
837.029	16500
837.167	16386
837.305	16303
837.443	16287
837.58	16363
837.718	16386
837.856	16344
837.993	16379
838.131	16306
838.269	16196
838.406	16352
838.544	16185
838.681	16017
838.819	15949
838.956	15915
839.094	15846
839.231	15915
839.369	16029
839.506	16276
839.643	16139
839.781	15994
839.918	15800
840.055	15911
840.193	15934
840.33	15819
840.467	15857
840.604	15842
840.742	16048
840.879	15724
841.016	15743
841.153	15637
841.29	15975
841.427	15884
841.564	15876
841.701	15918
841.838	15854
841.975	15720
842.112	15846
842.249	15641
842.385	15568
842.522	15720
842.659	15732
842.796	15652
842.933	15660
843.069	15603
843.206	15526
843.343	15732
843.479	15732
843.616	15545
843.752	15439
843.889	15382
844.025	15473
844.162	15291
844.298	15500
844.435	15389
844.571	15454
844.708	15382
844.844	15545
844.98	15656
845.117	15500
845.253	15367
845.389	15336
845.525	15336
845.661	15332
845.798	15169
845.934	15252
846.07	15233
846.206	15252
846.342	15321
846.478	15154
846.614	15074
846.75	14994
846.886	14868
847.022	15055
847.158	14910
847.294	15009
847.429	15066
847.565	14941
847.701	15157
847.837	14705
847.972	14655
848.108	14750
848.244	14845
848.379	14617
848.515	14590
848.65	14549
848.786	14640
848.921	14583
849.057	14636
849.192	14667
849.328	14636
849.463	14621
849.598	14541
849.734	14484
849.869	14446
850.004	14408
850.14	14263
850.275	14298
850.41	14271
850.545	14290
850.68	14290
850.815	14434
850.95	14381
851.085	14568
851.22	14511
851.355	14415
851.49	14294
851.625	14339
851.76	14377
851.895	14206
852.03	14313
852.165	14282
852.299	14370
852.434	14404
852.569	14412
852.703	14370
852.838	14446
852.973	14552
853.107	14552
853.242	14339
853.376	14183
853.511	14092
853.645	14157
853.78	14271
853.914	14218
854.048	14218
854.183	14180
854.317	14206
854.451	14351
854.585	14157
854.72	14240
854.854	14358
854.988	14142
855.122	14225
855.256	14084
855.39	14187
855.524	14343
855.658	14324
855.792	14256
855.926	14271
856.06	14267
856.194	14324
856.327	14199
856.461	14084
856.595	14123
856.729	14263
856.862	14355
856.996	14210
857.13	14343
857.263	14358
857.397	14320
857.53	14164
857.664	14225
857.797	14153
857.931	14317
858.064	14324
858.197	14332
858.331	14134
858.464	14225
858.597	14020
858.731	14100
858.864	14168
858.997	14115
859.13	14286
859.263	14183
859.396	14358
859.529	14206
859.662	14172
859.795	14180
859.928	14263
860.061	14317
860.194	14343
860.327	14343
860.46	14180
860.592	14294
860.725	14317
860.858	14282
860.99	14240
861.123	14161
861.256	14161
861.388	14305
861.521	14868
861.653	14164
861.786	13993
861.918	14084
862.05	14149
862.183	14176
862.315	14218
862.447	14267
862.58	14199
862.712	13940
862.844	13955
862.976	14134
863.108	14046
863.24	14362
863.372	13951
863.504	13993
863.636	13989
863.768	14126
863.9	13997
864.032	13852
864.164	14001
864.296	14100
864.428	14229
864.559	14016
864.691	14142
864.823	14046
864.954	14027
865.086	14046
865.217	13967
865.349	13909
865.48	13913
865.612	14035
865.743	14069
865.875	14024
866.006	13947
866.137	14027
866.269	13921
866.4	13997
866.531	13959
866.662	13909
866.793	13902
866.924	13898
867.055	13970
867.186	13963
867.317	13887
867.448	13932
867.579	13944
867.71	13807
867.841	13978
867.972	14031
868.103	13947
868.233	13978
868.364	13963
868.495	13997
868.625	14130
868.756	14256
868.886	14119
869.017	14164
869.147	14343
869.278	14427
869.408	14263
869.539	14168
869.669	14305
869.799	14240
869.929	14324
870.06	14259
870.19	14552
870.32	14514
870.45	14511
870.58	14613
870.71	14724
870.84	14697
870.97	14571
871.1	14590
871.23	14834
871.36	14800
871.489	14750
871.619	14792
871.749	14834
871.879	14834
872.008	14906
872.138	14826
872.267	14857
872.397	14648
872.526	14659
872.656	14697
872.785	14697
872.915	14902
873.044	14929
873.173	14826
873.303	14906
873.432	14849
873.561	14933
873.69	14868
873.819	15001
873.948	15001
874.077	14963
874.206	14857
874.335	14902
874.464	14982
874.593	15150
874.722	15047
874.851	15142
874.979	15195
875.108	15298
875.237	15173
875.365	15135
875.494	15142
875.623	15199
875.751	15112
875.88	15237
876.008	15382
876.136	15408
876.265	15599
876.393	15732
876.521	15732
876.65	15709
876.778	15561
876.906	15603
877.034	15447
877.162	15606
877.29	15481
877.418	15667
877.546	15671
877.674	15603
877.802	15652
877.93	15675
878.058	15485
878.185	15466
878.313	15564
878.441	15587
878.568	15500
878.696	15584
878.824	15591
878.951	15694
879.079	15743
879.206	15975
879.333	15770
879.461	15629
879.588	15606
879.715	15789
879.842	15861
879.97	15663
880.097	15321
880.224	15405
880.351	15496
880.478	15504
880.605	15389
880.732	15325
880.859	15694
880.986	15496
881.112	15466
881.239	15416
881.366	15192
881.493	15169
881.619	15017
881.746	15180
881.872	15032
881.999	15100
882.125	15089
882.252	15104
882.378	15233
882.505	15146
882.631	14990
882.757	14960
882.883	15005
883.01	14956
883.136	14811
883.262	14765
883.388	14807
883.514	14929
883.64	14914
883.766	14876
883.892	14731
884.018	14724
884.143	14876
884.269	14948
884.395	14708
884.52	14629
884.646	14701
884.772	14522
884.897	14499
885.023	14621
885.148	14765
885.274	14834
885.399	14724
885.524	14697
885.65	14746
885.775	14564
885.9	14648
886.025	14762
886.15	14594
886.275	14602
886.4	14526
886.525	14552
886.65	14526
886.775	14507
886.9	14743
887.025	14910
887.149	14697
887.274	14431
887.399	14351
887.523	14412
887.648	14271
887.773	14389
887.897	14495
888.021	14617
888.146	14473
888.27	14571
888.395	14571
888.519	14469
888.643	14461
888.767	14533
888.891	14423
889.015	14248
889.139	14377
889.263	14339
889.387	14423
889.511	14431
889.635	14427
889.759	14324
889.883	14358
890.006	14374
890.13	14389
890.254	14195
890.377	14233
890.501	14103
890.624	14123
890.748	14130
890.871	14126
890.995	14039
891.118	13967
891.241	13871
891.364	14039
891.488	14130
891.611	14024
891.734	13982
891.857	14084
891.98	13959
892.103	14199
892.226	14069
892.349	14024
892.471	13921
892.594	13936
892.717	13951
892.839	14016
892.962	13986
893.085	14138
893.207	14024
893.33	13833
893.452	13936
893.575	14077
893.697	14039
893.819	14244
893.941	14180
894.064	14039
894.186	14005
894.308	14088
894.43	14142
894.552	14237
894.674	14161
894.796	14115
894.918	14081
895.04	14039
895.161	14107
895.283	14206
895.405	14081
895.526	14172
895.648	14119
895.769	14168
895.891	14149
896.012	14290
896.134	14248
896.255	14210
896.376	14153
896.498	14214
896.619	14210
896.74	14320
896.861	14237
896.982	14568
897.103	14716
897.224	14545
897.345	14454
897.466	14355
897.587	14385
897.708	14648
897.828	14571
897.949	14412
898.07	14355
898.19	14503
898.311	14575
898.431	14571
898.552	14465
898.672	14598
898.792	14670
898.913	14632
899.033	14476
899.153	14446
899.273	14256
899.393	14362
899.513	14408
899.633	14488
899.753	14446
899.873	14400
899.993	14431
900.113	14423
900.232	14461
900.352	14469
900.472	14298
900.591	14252
900.711	14286
900.83	14256
900.95	14408
901.069	14362
901.189	14202
901.308	14008
901.427	13970
901.546	13944
901.665	14020
901.784	13993
901.904	13822
902.023	13837
902.141	13537
902.26	13636
902.379	13655
902.498	13476
902.617	13472
902.735	13495
902.854	13525
902.973	13487
903.091	13255
903.21	13365
903.328	13247
903.446	13198
903.565	13076
903.683	13095
903.801	13088
903.919	13110
904.038	12966
904.156	12928
904.274	13031
904.392	12913
904.51	12863
904.627	12920
904.745	12970
904.863	13023
904.981	12703
905.098	12559
905.216	12722
905.334	12612
905.451	12597
905.569	12623
905.686	12669
905.803	12589
905.921	12445
906.038	12563
906.155	12384
906.272	12342
906.389	12346
906.506	12251
906.623	12251
906.74	12163
906.857	12129
906.974	12106
907.091	12262
907.208	12372
907.324	12258
907.441	12064
907.557	11920
907.674	11946
907.79	11786
907.907	11882
908.023	12011
908.139	11973
908.256	11904
908.372	11859
908.488	11847
908.604	11737
908.72	11657
908.836	11718
908.952	11688
909.068	11676
909.184	11832
909.3	11688
909.415	11767
909.531	11688
909.647	11535
909.762	11444
909.878	11474
909.993	11497
910.108	11440
910.224	11516
910.339	11417
910.454	11414
910.57	11231
910.685	11261
910.8	11554
910.915	11474
911.03	11349
911.145	11216
911.259	11132
911.374	11231
911.489	11109
911.604	10999
911.718	10927
911.833	10938
911.947	10816
912.062	10717
912.176	10873
912.291	10961
912.405	10972
912.519	11094
912.633	11143
912.748	11018
912.862	10972
912.976	10793
913.09	10740
913.204	10683
913.318	10797
913.431	10786
913.545	10862
913.659	10968
913.772	10763
913.886	10748
914	10645
914.113	10767
914.226	10866
914.34	10736
914.453	10645
914.566	10748
914.68	10637
914.793	10645
914.906	10497
915.019	10470
915.132	10386
915.245	10443
915.358	10470
915.47	10394
915.583	10440
915.696	10493
915.809	10538
915.921	10554
916.034	10402
916.146	10409
916.259	10363
916.371	10447
916.483	10451
916.595	10325
916.708	10344
916.82	10360
916.932	10344
917.044	10367
917.156	10310
917.268	10196
917.38	10344
917.491	10276
917.603	10227
917.715	10363
917.826	10382
917.938	10329
918.049	10204
918.161	10246
918.272	10440
918.384	10421
918.495	10299
918.606	10169
918.717	10131
918.828	10242
918.939	10192
919.05	10021
919.161	10105
919.272	10017
919.383	10021
919.494	10253
919.604	10348
919.715	10204
919.826	10154
919.936	10074
920.047	10169
920.157	10150
920.267	10344
920.378	10268
920.488	10150
920.598	10344
920.708	10474
920.818	10348
920.928	10367
921.038	10573
921.148	10451
921.258	10196
921.368	10147
921.477	9991
921.587	10029
921.697	9941
921.806	10010
921.916	9915
922.025	9720
922.134	9781
922.244	9641
922.353	9804
922.462	9671
922.571	9515
922.68	9469
922.789	9454
922.898	9447
923.007	9340
923.116	9420
923.224	9412
923.333	9469
923.442	9363
923.55	9207
923.659	9382
923.767	9420
923.876	9283
923.984	9268
924.092	9264
924.201	9321
924.309	9214
924.417	9340
924.525	9222
924.633	9310
924.741	10227
924.849	9009
924.956	9207
925.064	9089
925.172	8933
925.279	8994
925.387	9157
925.494	9104
925.602	9195
925.709	9173
925.816	8994
925.924	9077
926.031	9195
926.138	9097
926.245	9154
926.352	9077
926.459	9161
926.566	9203
926.673	9024
926.779	8861
926.886	8872
926.993	8796
927.099	8781
927.206	8716
927.312	8697
927.419	8853
927.525	8746
927.631	8849
927.737	8762
927.843	8697
927.95	8526
928.056	8640
928.162	8697
928.267	8731
928.373	9313
928.479	8754
928.585	8511
928.69	8716
928.796	8678
928.901	8625
929.007	8469
929.112	8648
929.218	8610
929.323	8499
929.428	8522
929.533	8590
929.638	8457
929.743	8484
929.848	8511
929.953	8488
930.058	8423
930.163	8195
930.267	8286
930.372	8385
930.477	8267
930.581	8549
930.685	8408
930.79	8206
930.894	8172
930.998	8221
931.103	8351
931.207	8031
931.311	7963
931.415	7974
931.519	7719
931.623	7734
