Data from test_V78500241_2440.txt Node
Date: Fri Mar 25 14:50:42 CST 2022
User: usil
Spectrometer: V785-0024
Trigger mode: 0
Integration Time (sec): 4.000000E-1
Scans to average: 1
Nonlinearity correction enabled: false
Boxcar width: 0
Storing dark spectrum: false
XAxis mode: Wavelengths
Number of Pixels in Spectrum: 1024
>>>>>Begin Spectral Data<<<<<
801.071	22188
801.214	21960
801.356	21850
801.499	21690
801.641	21473
801.783	21481
801.926	21549
802.068	21469
802.211	21382
802.353	21249
802.496	21066
802.638	20906
802.78	21032
802.923	20861
803.065	20769
803.208	20678
803.35	20830
803.492	20807
803.635	21081
803.777	20830
803.919	20830
804.061	21173
804.204	20838
804.346	20712
804.488	20598
804.63	20731
804.773	20743
804.915	20731
805.057	20834
805.199	20693
805.341	20727
805.483	20830
805.626	20750
805.768	20655
805.91	20758
806.052	20769
806.194	20632
806.336	20883
806.478	20746
806.62	20708
806.762	20826
806.904	20925
807.046	21055
807.188	20998
807.33	20986
807.472	21081
807.614	20895
807.756	20994
807.898	20944
808.04	20819
808.182	20739
808.324	20853
808.465	20830
808.607	20948
808.749	21142
808.891	21203
809.033	21241
809.174	21123
809.316	21013
809.458	21093
809.6	21074
809.741	21169
809.883	21077
810.025	21401
810.166	21252
810.308	21260
810.45	21157
810.591	21112
810.733	21051
810.875	20864
811.016	20815
811.158	20785
811.299	20914
811.441	20876
811.582	20952
811.724	20979
811.865	20762
812.007	20853
812.148	20842
812.29	20880
812.431	21039
812.573	21138
812.714	21260
812.855	21405
812.997	21511
813.138	21648
813.279	21568
813.421	21260
813.562	21344
813.703	21199
813.845	21146
813.986	20705
814.127	20613
814.268	20434
814.41	20476
814.551	20450
814.692	20568
814.833	20419
814.974	20393
815.115	20446
815.256	20225
815.397	20294
815.539	20237
815.68	20065
815.821	20008
815.962	20210
816.103	20050
816.244	19997
816.385	19894
816.526	19906
816.666	19788
816.807	19552
816.948	19590
817.089	19693
817.23	19613
817.371	19582
817.512	19594
817.653	19597
817.793	19487
817.934	19434
818.075	19578
818.216	19472
818.356	19460
818.497	19373
818.638	19156
818.778	19293
818.919	19217
819.06	19320
819.2	19293
819.341	19327
819.481	19419
819.622	19597
819.762	19696
819.903	19540
820.043	19639
820.184	19529
820.324	19510
820.465	19628
820.605	19563
820.746	19514
820.886	19297
821.026	19480
821.167	19502
821.307	19609
821.447	19415
821.588	19327
821.728	19263
821.868	19031
822.008	18821
822.149	18996
822.289	18840
822.429	18665
822.569	18528
822.709	18635
822.849	18270
822.99	18388
823.13	18365
823.27	18350
823.41	18155
823.55	18159
823.69	18197
823.83	18083
823.97	18003
824.11	18049
824.25	18022
824.389	17954
824.529	18057
824.669	17999
824.809	18019
824.949	18057
825.089	18038
825.228	17965
825.368	17767
825.508	17756
825.648	17779
825.787	17870
825.927	17878
826.067	17714
826.206	17718
826.346	17779
826.485	17813
826.625	17802
826.765	17790
826.904	17805
827.044	17433
827.183	17532
827.323	17436
827.462	17589
827.601	17478
827.741	17410
827.88	17471
828.02	17326
828.159	17425
828.298	17600
828.437	17444
828.577	17364
828.716	17543
828.855	17322
828.994	17166
829.134	17284
829.273	17242
829.412	17155
829.551	17178
829.69	17223
829.829	17239
829.968	17277
830.107	17334
830.246	17273
830.385	17117
830.524	17029
830.663	16942
830.802	16896
830.941	16812
831.08	16710
831.219	16919
831.357	16812
831.496	17029
831.635	16786
831.774	16592
831.913	16797
832.051	16649
832.19	16580
832.329	16542
832.467	16459
832.606	16523
832.744	16531
832.883	16424
833.022	16390
833.16	16550
833.299	16474
833.437	16535
833.576	16584
833.714	16584
833.852	16554
833.991	16615
834.129	16535
834.267	16607
834.406	16489
834.544	16481
834.682	16592
834.821	16523
834.959	16706
835.097	16470
835.235	16615
835.373	16615
835.511	16588
835.65	16535
835.788	16500
835.926	16371
836.064	16276
836.202	16284
836.34	16531
836.478	16542
836.615	16485
836.753	16489
836.891	16554
837.029	16459
837.167	16303
837.305	16337
837.443	16337
837.58	16337
837.718	16371
837.856	16352
837.993	16238
838.131	16295
838.269	16249
838.406	16200
838.544	16181
838.681	16010
838.819	15949
838.956	15816
839.094	15835
839.231	15899
839.369	16124
839.506	16188
839.643	16078
839.781	15865
839.918	15892
840.055	15880
840.193	15915
840.33	15857
840.467	15892
840.604	15949
840.742	16013
840.879	15755
841.016	15759
841.153	15827
841.29	15964
841.427	15911
841.564	15876
841.701	15838
841.838	15888
841.975	15800
842.112	15816
842.249	15701
842.385	15671
842.522	15739
842.659	15686
842.796	15542
842.933	15606
843.069	15561
843.206	15660
843.343	15686
843.479	15644
843.616	15663
843.752	15344
843.889	15450
844.025	15576
844.162	15454
844.298	15545
844.435	15382
844.571	15351
844.708	15538
844.844	15549
844.98	15614
845.117	15534
845.253	15488
845.389	15283
845.525	15393
845.661	15348
845.798	15218
845.934	15306
846.07	15203
846.206	15310
846.342	15401
846.478	15230
846.614	15074
846.75	14910
846.886	14960
847.022	15097
847.158	15032
847.294	15028
847.429	15062
847.565	14941
847.701	15245
847.837	14750
847.972	14712
848.108	14925
848.244	14727
848.379	14667
848.515	14708
848.65	14636
848.786	14625
848.921	14701
849.057	14682
849.192	14712
849.328	14560
849.463	14610
849.598	14621
849.734	14533
849.869	14465
850.004	14362
850.14	14427
850.275	14328
850.41	14214
850.545	14214
850.68	14431
850.815	14366
850.95	14343
851.085	14602
851.22	14366
851.355	14450
851.49	14355
851.625	14298
851.76	14275
851.895	14195
852.03	14221
852.165	14412
852.299	14484
852.434	14412
852.569	14419
852.703	14351
852.838	14511
852.973	14564
853.107	14476
853.242	14339
853.376	14282
853.511	14138
853.645	14229
853.78	14457
853.914	14301
854.048	14271
854.183	14142
854.317	14191
854.451	14343
854.585	14290
854.72	14267
854.854	14339
854.988	14134
855.122	14199
855.256	14065
855.39	14218
855.524	14324
855.658	14225
855.792	14278
855.926	14377
856.06	14313
856.194	14313
856.327	14332
856.461	14065
856.595	14259
856.729	14259
856.862	14412
856.996	14347
857.13	14313
857.263	14317
857.397	14431
857.53	14294
857.664	14339
857.797	14419
857.931	14423
858.064	14195
858.197	14347
858.331	14187
858.464	14282
858.597	14096
858.731	14324
858.864	14149
858.997	14187
859.13	14256
859.263	14214
859.396	14400
859.529	14206
859.662	14214
859.795	14362
859.928	14294
860.061	14393
860.194	14389
860.327	14305
860.46	14275
860.592	14389
860.725	14503
860.858	14385
860.99	14332
861.123	14199
861.256	14229
861.388	14256
861.521	14868
861.653	14130
861.786	14149
861.918	14199
862.05	14153
862.183	14210
862.315	14210
862.447	14267
862.58	14164
862.712	14039
862.844	14016
862.976	14115
863.108	14084
863.24	14366
863.372	13959
863.504	14111
863.636	14005
863.768	14103
863.9	13997
864.032	13963
864.164	14096
864.296	14081
864.428	14161
864.559	14073
864.691	14123
864.823	14164
864.954	14100
865.086	14081
865.217	14027
865.349	13917
865.48	14016
865.612	14024
865.743	14157
865.875	14016
866.006	14001
866.137	14016
866.269	13967
866.4	13967
866.531	14001
866.662	14012
866.793	13982
866.924	13917
867.055	14073
867.186	14016
867.317	14012
867.448	13959
867.579	13951
867.71	13955
867.841	13906
867.972	14103
868.103	13970
868.233	14012
868.364	13993
868.495	14134
868.625	14229
868.756	14347
868.886	14123
869.017	14233
869.147	14412
869.278	14343
869.408	14290
869.539	14301
869.669	14252
869.799	14309
869.929	14419
870.06	14476
870.19	14503
870.32	14678
870.45	14617
870.58	14769
870.71	14693
870.84	14724
870.97	14712
871.1	14693
871.23	15024
871.36	14743
871.489	14781
871.619	14792
871.749	14925
871.879	14838
872.008	15108
872.138	14895
872.267	14849
872.397	14769
872.526	14651
872.656	14686
872.785	14655
872.915	14921
873.044	14918
873.173	14891
873.303	14838
873.432	14952
873.561	14982
873.69	14887
873.819	14899
873.948	15020
874.077	14910
874.206	14883
874.335	14979
874.464	14971
874.593	15142
874.722	15138
874.851	15275
874.979	15294
875.108	15268
875.237	15203
875.365	15214
875.494	15237
875.623	15355
875.751	15252
875.88	15203
876.008	15359
876.136	15447
876.265	15682
876.393	15842
876.521	15709
876.65	15747
876.778	15618
876.906	15603
877.034	15473
877.162	15618
877.29	15606
877.418	15671
877.546	15633
877.674	15694
877.802	15641
877.93	15686
878.058	15584
878.185	15462
878.313	15633
878.441	15576
878.568	15458
878.696	15576
878.824	15633
878.951	15793
879.079	15816
879.206	15865
879.333	15854
879.461	15812
879.588	15835
879.715	15880
879.842	15941
879.97	15785
880.097	15542
880.224	15416
880.351	15618
880.478	15534
880.605	15462
880.732	15507
880.859	15652
880.986	15557
881.112	15530
881.239	15424
881.366	15283
881.493	15272
881.619	15222
881.746	15127
881.872	15180
881.999	15142
882.125	15142
882.252	15184
882.378	15165
882.505	15207
882.631	15039
882.757	14982
882.883	14963
883.01	14887
883.136	14826
883.262	14819
883.388	14826
883.514	14891
883.64	15127
883.766	14914
883.892	14720
884.018	14792
884.143	14902
884.269	15085
884.395	14754
884.52	14613
884.646	14617
884.772	14606
884.897	14590
885.023	14769
885.148	14708
885.274	14739
885.399	14902
885.524	14727
885.65	14659
885.775	14739
885.9	14716
886.025	14826
886.15	14727
886.275	14549
886.4	14594
886.525	14644
886.65	14697
886.775	14556
886.9	14819
887.025	14979
887.149	14670
887.274	14499
887.399	14480
887.523	14461
887.648	14492
887.773	14396
887.897	14518
888.021	14568
888.146	14507
888.27	14613
888.395	14777
888.519	14541
888.643	14602
888.767	14632
888.891	14408
889.015	14282
889.139	14362
889.263	14423
889.387	14514
889.511	14575
889.635	14514
889.759	14385
889.883	14313
890.006	14412
890.13	14469
890.254	14240
890.377	14294
890.501	14237
890.624	14180
890.748	14145
890.871	14130
890.995	14005
891.118	13978
891.241	14062
891.364	14065
891.488	14172
891.611	14077
891.734	14020
891.857	14142
891.98	14008
892.103	14084
892.226	14115
892.349	14050
892.471	13955
892.594	14073
892.717	14119
892.839	14043
892.962	14107
893.085	14191
893.207	14054
893.33	14001
893.452	13902
893.575	14107
893.697	14020
893.819	14180
893.941	14176
894.064	14259
894.186	14046
894.308	14020
894.43	14256
894.552	14290
894.674	14149
894.796	14054
894.918	14031
895.04	14012
895.161	14229
895.283	14092
895.405	14077
895.526	14237
895.648	14134
895.769	14145
895.891	14237
896.012	14305
896.134	14225
896.255	14290
896.376	14164
896.498	14317
896.619	14275
896.74	14301
896.861	14396
896.982	14610
897.103	14746
897.224	14511
897.345	14438
897.466	14457
897.587	14476
897.708	14629
897.828	14571
897.949	14492
898.07	14259
898.19	14469
898.311	14617
898.431	14568
898.552	14625
898.672	14632
898.792	14674
898.913	14610
899.033	14427
899.153	14389
899.273	14381
899.393	14518
899.513	14495
899.633	14370
899.753	14423
899.873	14503
899.993	14541
900.113	14461
900.232	14419
900.352	14469
900.472	14427
900.591	14320
900.711	14355
900.83	14339
900.95	14377
901.069	14366
901.189	14187
901.308	14168
901.427	14077
901.546	13993
901.665	13989
901.784	13970
901.904	13875
902.023	13860
902.141	13605
902.26	13567
902.379	13643
902.498	13506
902.617	13472
902.735	13628
902.854	13624
902.973	13502
903.091	13278
903.21	13327
903.328	13289
903.446	13156
903.565	13221
903.683	13209
903.801	13114
903.919	13160
904.038	13004
904.156	12962
904.274	13008
904.392	12958
904.51	12932
904.627	12878
904.745	12973
904.863	13004
904.981	12745
905.098	12650
905.216	12688
905.334	12608
905.451	12563
905.569	12616
905.686	12635
905.803	12658
905.921	12422
906.038	12616
906.155	12494
906.272	12388
906.389	12418
906.506	12167
906.623	12232
906.74	12216
906.857	12076
906.974	12087
907.091	12175
907.208	12395
907.324	12235
907.441	12102
907.557	11935
907.674	11893
907.79	11916
907.907	11954
908.023	11996
908.139	11988
908.256	11923
908.372	11824
908.488	11965
908.604	11805
908.72	11752
908.836	11684
908.952	11703
909.068	11714
909.184	11840
909.3	11665
909.415	11821
909.531	11748
909.647	11520
909.762	11459
909.878	11444
909.993	11566
910.108	11505
910.224	11516
910.339	11516
910.454	11398
910.57	11296
910.685	11341
910.8	11562
910.915	11528
911.03	11398
911.145	11258
911.259	11185
911.374	11239
911.489	11151
911.604	11102
911.718	10904
911.833	11037
911.947	10850
912.062	10835
912.176	11006
912.291	11006
912.405	11064
912.519	11136
912.633	11189
912.748	11037
912.862	10965
912.976	10938
913.09	10683
913.204	10847
913.318	10881
913.431	11010
913.545	10961
913.659	11003
913.772	10873
913.886	10721
914	10725
914.113	10858
914.226	10915
914.34	10847
914.453	10683
914.566	10820
914.68	10774
914.793	10679
914.906	10618
915.019	10523
915.132	10409
915.245	10538
915.358	10569
915.47	10432
915.583	10462
915.696	10538
915.809	10714
915.921	10660
916.034	10493
916.146	10432
916.259	10417
916.371	10493
916.483	10481
916.595	10443
916.708	10474
916.82	10398
916.932	10424
917.044	10462
917.156	10394
917.268	10265
917.38	10363
917.491	10303
917.603	10325
917.715	10478
917.826	10382
917.938	10276
918.049	10109
918.161	10409
918.272	10508
918.384	10409
918.495	10352
918.606	10272
918.717	10200
918.828	10215
918.939	10272
919.05	10063
919.161	10215
919.272	9994
919.383	10059
919.494	10211
919.604	10440
919.715	10253
919.826	10188
919.936	10188
920.047	10344
920.157	10329
920.267	10440
920.378	10265
920.488	10188
920.598	10386
920.708	10481
920.818	10481
920.928	10459
921.038	10634
921.148	10599
921.258	10314
921.368	10230
921.477	10055
921.587	10051
921.697	9983
921.806	10078
921.916	9987
922.025	9873
922.134	9774
922.244	9709
922.353	9759
922.462	9682
922.571	9644
922.68	9428
922.789	9481
922.898	9500
923.007	9507
923.116	9485
923.224	9443
923.333	9443
923.442	9355
923.55	9329
923.659	9428
923.767	9488
923.876	9367
923.984	9370
924.092	9317
924.201	9370
924.309	9336
924.417	9351
924.525	9306
924.633	9275
924.741	9994
924.849	9127
924.956	9241
925.064	9123
925.172	8994
925.279	9100
925.387	9077
925.494	9051
925.602	9272
925.709	9253
925.816	9077
925.924	9085
926.031	9226
926.138	9173
926.245	9203
926.352	9074
926.459	9180
926.566	9199
926.673	9135
926.779	8994
926.886	9047
926.993	8853
927.099	8914
927.206	8792
927.312	8773
927.419	8971
927.525	8845
927.631	8937
927.737	8796
927.843	8735
927.95	8644
928.056	8762
928.162	8750
928.267	8800
928.373	9424
928.479	8872
928.585	8674
928.69	8716
928.796	8800
928.901	8708
929.007	8518
929.112	8659
929.218	8610
929.323	8564
929.428	8602
929.533	8678
929.638	8518
929.743	8556
929.848	8636
929.953	8522
930.058	8488
930.163	8210
930.267	8362
930.372	8533
930.477	8347
930.581	8552
930.685	8427
930.79	8218
930.894	8279
930.998	8221
931.103	8446
931.207	8027
931.311	8084
931.415	7963
931.519	7803
931.623	7833
