Data from test_V78500241_2193.txt Node
Date: Fri Mar 25 14:48:58 CST 2022
User: usil
Spectrometer: V785-0024
Trigger mode: 0
Integration Time (sec): 4.000000E-1
Scans to average: 1
Nonlinearity correction enabled: false
Boxcar width: 0
Storing dark spectrum: false
XAxis mode: Wavelengths
Number of Pixels in Spectrum: 1024
>>>>>Begin Spectral Data<<<<<
801.071	22101
801.214	21987
801.356	21812
801.499	21755
801.641	21500
801.783	21485
801.926	21504
802.068	21424
802.211	21408
802.353	21264
802.496	21123
802.638	21032
802.78	20933
802.923	20933
803.065	20735
803.208	20830
803.35	20906
803.492	20948
803.635	21043
803.777	20895
803.919	20853
804.061	21192
804.204	20914
804.346	20701
804.488	20731
804.63	20765
804.773	20689
804.915	20937
805.057	20902
805.199	20765
805.341	20830
805.483	20876
805.626	20830
805.768	20689
805.91	20895
806.052	20819
806.194	20678
806.336	20887
806.478	20773
806.62	20845
806.762	20754
806.904	21009
807.046	21245
807.188	21127
807.33	21089
807.472	21135
807.614	21005
807.756	21024
807.898	20815
808.04	20800
808.182	20853
808.324	20876
808.465	21024
808.607	21032
808.749	21241
808.891	21268
809.033	21378
809.174	21272
809.316	21195
809.458	21226
809.6	21146
809.741	21154
809.883	21370
810.025	21412
810.166	21348
810.308	21260
810.45	21249
810.591	21218
810.733	21017
810.875	20967
811.016	20929
811.158	20853
811.299	20876
811.441	21028
811.582	21104
811.724	20952
811.865	20929
812.007	20910
812.148	20887
812.29	20899
812.431	20956
812.573	21291
812.714	21329
812.855	21428
812.997	21572
813.138	21633
813.279	21648
813.421	21431
813.562	21272
813.703	21165
813.845	21032
813.986	20834
814.127	20640
814.268	20564
814.41	20590
814.551	20552
814.692	20457
814.833	20374
814.974	20454
815.115	20465
815.256	20351
815.397	20278
815.539	20469
815.68	20252
815.821	20256
815.962	20294
816.103	20149
816.244	19993
816.385	19997
816.526	19944
816.666	19803
816.807	19643
816.948	19757
817.089	19742
817.23	19757
817.371	19750
817.512	19609
817.653	19632
817.793	19582
817.934	19685
818.075	19643
818.216	19445
818.356	19632
818.497	19388
818.638	19362
818.778	19107
818.919	19335
819.06	19282
819.2	19464
819.341	19476
819.481	19514
819.622	19597
819.762	19753
819.903	19719
820.043	19651
820.184	19628
820.324	19571
820.465	19696
820.605	19609
820.746	19502
820.886	19369
821.026	19487
821.167	19556
821.307	19670
821.447	19487
821.588	19411
821.728	19251
821.868	19198
822.008	19076
822.149	18993
822.289	19072
822.429	18757
822.569	18661
822.709	18631
822.849	18532
822.99	18479
823.13	18372
823.27	18369
823.41	18247
823.55	18281
823.69	18353
823.83	18323
823.97	18243
824.11	18007
824.25	18072
824.389	18053
824.529	18216
824.669	18114
824.809	18152
824.949	18098
825.089	18064
825.228	18064
825.368	17889
825.508	17764
825.648	17866
825.787	17878
825.927	17870
826.067	17783
826.206	17775
826.346	17885
826.485	17863
826.625	17809
826.765	17912
826.904	17874
827.044	17649
827.183	17554
827.323	17535
827.462	17566
827.601	17562
827.741	17490
827.88	17455
828.02	17463
828.159	17459
828.298	17509
828.437	17608
828.577	17505
828.716	17642
828.855	17440
828.994	17406
829.134	17280
829.273	17269
829.412	17235
829.551	17128
829.69	17334
829.829	17261
829.968	17360
830.107	17360
830.246	17326
830.385	17246
830.524	17258
830.663	17132
830.802	16942
830.941	16934
831.08	16911
831.219	17037
831.357	16930
831.496	17181
831.635	16847
831.774	16835
831.913	16839
832.051	16782
832.19	16824
832.329	16710
832.467	16577
832.606	16470
832.744	16599
832.883	16497
833.022	16565
833.16	16611
833.299	16573
833.437	16599
833.576	16649
833.714	16634
833.852	16660
833.991	16653
834.129	16725
834.267	16641
834.406	16656
834.544	16573
834.682	16660
834.821	16706
834.959	16843
835.097	16634
835.235	16759
835.373	16634
835.511	16698
835.65	16569
835.788	16508
835.926	16546
836.064	16417
836.202	16455
836.34	16550
836.478	16679
836.615	16535
836.753	16649
836.891	16702
837.029	16565
837.167	16618
837.305	16504
837.443	16436
837.58	16367
837.718	16497
837.856	16402
837.993	16363
838.131	16459
838.269	16360
838.406	16375
838.544	16310
838.681	16105
838.819	16177
838.956	16093
839.094	15975
839.231	16044
839.369	16196
839.506	16459
839.643	16276
839.781	15998
839.918	15960
840.055	16021
840.193	16021
840.33	15998
840.467	15987
840.604	15968
840.742	16143
840.879	15880
841.016	15808
841.153	15846
841.29	16029
841.427	16025
841.564	15953
841.701	16017
841.838	15907
841.975	15854
842.112	15850
842.249	15831
842.385	15808
842.522	15941
842.659	15819
842.796	15694
842.933	15789
843.069	15682
843.206	15717
843.343	15816
843.479	15770
843.616	15827
843.752	15580
843.889	15595
844.025	15675
844.162	15439
844.298	15671
844.435	15477
844.571	15481
844.708	15587
844.844	15690
844.98	15682
845.117	15595
845.253	15568
845.389	15420
845.525	15435
845.661	15447
845.798	15287
845.934	15458
846.07	15245
846.206	15488
846.342	15458
846.478	15408
846.614	15138
846.75	15005
846.886	15119
847.022	15249
847.158	15123
847.294	15116
847.429	15169
847.565	15070
847.701	15382
847.837	14845
847.972	14800
848.108	14956
848.244	14944
848.379	14777
848.515	14678
848.65	14648
848.786	14826
848.921	14667
849.057	14834
849.192	14746
849.328	14678
849.463	14705
849.598	14621
849.734	14613
849.869	14564
850.004	14465
850.14	14518
850.275	14526
850.41	14419
850.545	14469
850.68	14404
850.815	14476
850.95	14446
851.085	14651
851.22	14530
851.355	14560
851.49	14431
851.625	14427
851.76	14370
851.895	14393
852.03	14328
852.165	14404
852.299	14495
852.434	14564
852.569	14541
852.703	14503
852.838	14610
852.973	14682
853.107	14651
853.242	14400
853.376	14309
853.511	14275
853.645	14355
853.78	14381
853.914	14370
854.048	14324
854.183	14339
854.317	14408
854.451	14503
854.585	14339
854.72	14275
854.854	14499
854.988	14168
855.122	14313
855.256	14180
855.39	14282
855.524	14434
855.658	14339
855.792	14362
855.926	14336
856.06	14415
856.194	14450
856.327	14374
856.461	14233
856.595	14290
856.729	14309
856.862	14415
856.996	14324
857.13	14423
857.263	14450
857.397	14590
857.53	14347
857.664	14351
857.797	14484
857.931	14431
858.064	14339
858.197	14473
858.331	14431
858.464	14294
858.597	14313
858.731	14366
858.864	14328
858.997	14233
859.13	14366
859.263	14385
859.396	14396
859.529	14396
859.662	14214
859.795	14324
859.928	14355
860.061	14389
860.194	14514
860.327	14343
860.46	14377
860.592	14355
860.725	14495
860.858	14469
860.99	14366
861.123	14286
861.256	14355
861.388	14366
861.521	14963
861.653	14263
861.786	14149
861.918	14172
862.05	14214
862.183	14195
862.315	14294
862.447	14419
862.58	14252
862.712	14065
862.844	13997
862.976	14134
863.108	14142
863.24	14351
863.372	14035
863.504	14210
863.636	14119
863.768	14210
863.9	14157
864.032	14027
864.164	14062
864.296	14168
864.428	14161
864.559	14317
864.691	14195
864.823	14218
864.954	14069
865.086	14130
865.217	14153
865.349	14027
865.48	14100
865.612	14126
865.743	14275
865.875	14210
866.006	14043
866.137	14119
866.269	14073
866.4	14142
866.531	14046
866.662	14172
866.793	14027
866.924	14058
867.055	14096
867.186	14111
867.317	14046
867.448	14012
867.579	14001
867.71	14062
867.841	14024
867.972	14054
868.103	14134
868.233	14092
868.364	14005
868.495	14240
868.625	14396
868.756	14400
868.886	14221
869.017	14351
869.147	14412
869.278	14492
869.408	14301
869.539	14389
869.669	14412
869.799	14313
869.929	14473
870.06	14461
870.19	14762
870.32	14682
870.45	14640
870.58	14708
870.71	14895
870.84	14823
870.97	14731
871.1	14746
871.23	14914
871.36	14872
871.489	14883
871.619	14925
871.749	14910
871.879	14994
872.008	15020
872.138	14963
872.267	14933
872.397	14811
872.526	14769
872.656	14727
872.785	14788
872.915	14994
873.044	15058
873.173	14925
873.303	14952
873.432	15058
873.561	15116
873.69	15036
873.819	14975
873.948	15047
874.077	15013
874.206	14941
874.335	15017
874.464	15161
874.593	15230
874.722	15188
874.851	15188
874.979	15382
875.108	15283
875.237	15279
875.365	15176
875.494	15336
875.623	15431
875.751	15275
875.88	15268
876.008	15378
876.136	15473
876.265	15797
876.393	15846
876.521	15781
876.65	15755
876.778	15732
876.906	15671
877.034	15705
877.162	15698
877.29	15663
877.418	15770
877.546	15755
877.674	15690
877.802	15743
877.93	15675
878.058	15690
878.185	15545
878.313	15713
878.441	15800
878.568	15515
878.696	15637
878.824	15797
878.951	15865
879.079	15842
879.206	16044
879.333	15876
879.461	15838
879.588	15804
879.715	15884
879.842	16040
879.97	15816
880.097	15526
880.224	15481
880.351	15603
880.478	15633
880.605	15428
880.732	15462
880.859	15823
880.986	15641
881.112	15682
881.239	15515
881.366	15355
881.493	15348
881.619	15245
881.746	15233
881.872	15169
881.999	15272
882.125	15146
882.252	15272
882.378	15188
882.505	15389
882.631	15283
882.757	15081
882.883	15017
883.01	15074
883.136	14979
883.262	14883
883.388	14914
883.514	15127
883.64	15100
883.766	15089
883.892	14861
884.018	14887
884.143	15055
884.269	15024
884.395	14739
884.52	14807
884.646	14697
884.772	14705
884.897	14655
885.023	14796
885.148	14773
885.274	14933
885.399	14788
885.524	14724
885.65	14785
885.775	14727
885.9	14758
886.025	14857
886.15	14826
886.275	14598
886.4	14602
886.525	14701
886.65	14705
886.775	14670
886.9	14849
887.025	14948
887.149	14724
887.274	14533
887.399	14484
887.523	14571
887.648	14480
887.773	14473
887.897	14686
888.021	14602
888.146	14503
888.27	14651
888.395	14674
888.519	14739
888.643	14636
888.767	14651
888.891	14583
889.015	14389
889.139	14507
889.263	14434
889.387	14598
889.511	14590
889.635	14598
889.759	14469
889.883	14374
890.006	14427
890.13	14514
890.254	14446
890.377	14305
890.501	14263
890.624	14199
890.748	14358
890.871	14138
890.995	14145
891.118	14084
891.241	14126
891.364	14149
891.488	14294
891.611	14259
891.734	14252
891.857	14218
891.98	14142
892.103	14298
892.226	14191
892.349	14187
892.471	13978
892.594	14096
892.717	14153
892.839	14084
892.962	14123
893.085	14210
893.207	14126
893.33	14012
893.452	14111
893.575	14221
893.697	14096
893.819	14282
893.941	14389
894.064	14286
894.186	14088
894.308	14123
894.43	14286
894.552	14442
894.674	14252
894.796	14161
894.918	14123
895.04	14115
895.161	14404
895.283	14278
895.405	14172
895.526	14244
895.648	14248
895.769	14248
895.891	14427
896.012	14370
896.134	14324
896.255	14343
896.376	14305
896.498	14324
896.619	14271
896.74	14286
896.861	14358
896.982	14587
897.103	14777
897.224	14579
897.345	14488
897.466	14465
897.587	14522
897.708	14682
897.828	14594
897.949	14537
898.07	14415
898.19	14568
898.311	14674
898.431	14533
898.552	14606
898.672	14762
898.792	14689
898.913	14697
899.033	14602
899.153	14514
899.273	14495
899.393	14503
899.513	14560
899.633	14488
899.753	14427
899.873	14473
899.993	14640
900.113	14385
900.232	14575
900.352	14473
900.472	14423
900.591	14290
900.711	14404
900.83	14233
900.95	14412
901.069	14610
901.189	14339
901.308	13978
901.427	14035
901.546	13967
901.665	14088
901.784	14065
901.904	13986
902.023	13879
902.141	13696
902.26	13677
902.379	13769
902.498	13586
902.617	13548
902.735	13632
902.854	13613
902.973	13563
903.091	13327
903.21	13350
903.328	13266
903.446	13232
903.565	13145
903.683	13304
903.801	13118
903.919	13160
904.038	13156
904.156	13061
904.274	13042
904.392	13015
904.51	13015
904.627	12909
904.745	13023
904.863	13110
904.981	12806
905.098	12738
905.216	12623
905.334	12757
905.451	12715
905.569	12688
905.686	12783
905.803	12779
905.921	12559
906.038	12566
906.155	12669
906.272	12464
906.389	12418
906.506	12289
906.623	12361
906.74	12224
906.857	12213
906.974	12239
907.091	12369
907.208	12509
907.324	12296
907.441	12262
907.557	12102
907.674	12068
907.79	11988
907.907	12030
908.023	12068
908.139	12087
908.256	12079
908.372	11996
908.488	11946
908.604	11904
908.72	11783
908.836	11760
908.952	11836
909.068	11847
909.184	11923
909.3	11843
909.415	11878
909.531	11828
909.647	11592
909.762	11589
909.878	11570
909.993	11562
910.108	11482
910.224	11581
910.339	11642
910.454	11512
910.57	11444
910.685	11425
910.8	11657
910.915	11649
911.03	11433
911.145	11273
911.259	11223
911.374	11315
911.489	11197
911.604	11223
911.718	11022
911.833	11102
911.947	10949
912.062	10824
912.176	11022
912.291	11090
912.405	11064
912.519	11277
912.633	11216
912.748	11201
912.862	11022
912.976	10877
913.09	10850
913.204	10896
913.318	10991
913.431	11056
913.545	10987
913.659	11094
913.772	10927
913.886	10835
914	10824
914.113	10885
914.226	10896
914.34	10847
914.453	10782
914.566	10881
914.68	10835
914.793	10733
914.906	10565
915.019	10584
915.132	10455
915.245	10599
915.358	10641
915.47	10558
915.583	10592
915.696	10618
915.809	10683
915.921	10675
916.034	10462
916.146	10478
916.259	10485
916.371	10641
916.483	10554
916.595	10485
916.708	10538
916.82	10360
916.932	10409
917.044	10428
917.156	10474
917.268	10333
917.38	10436
917.491	10398
917.603	10337
917.715	10478
917.826	10485
917.938	10409
918.049	10257
918.161	10390
918.272	10481
918.384	10527
918.495	10386
918.606	10287
918.717	10223
918.828	10268
918.939	10219
919.05	10177
919.161	10196
919.272	9903
919.383	10120
919.494	10268
919.604	10493
919.715	10322
919.826	10257
919.936	10242
920.047	10329
920.157	10310
920.267	10478
920.378	10249
920.488	10276
920.598	10398
920.708	10649
920.818	10489
920.928	10504
921.038	10611
921.148	10516
921.258	10276
921.368	10238
921.477	10147
921.587	10139
921.697	9960
921.806	10200
921.916	10025
922.025	9926
922.134	9755
922.244	9774
922.353	9793
922.462	9705
922.571	9637
922.68	9515
922.789	9443
922.898	9504
923.007	9530
923.116	9610
923.224	9545
923.333	9458
923.442	9420
923.55	9412
923.659	9454
923.767	9473
923.876	9275
923.984	9488
924.092	9329
924.201	9412
924.309	9412
924.417	9397
924.525	9302
924.633	9351
924.741	10246
924.849	9184
924.956	9329
925.064	9253
925.172	9150
925.279	9024
925.387	9146
925.494	9127
925.602	9256
925.709	9214
925.816	9017
925.924	9165
926.031	9260
926.138	9214
926.245	9253
926.352	9055
926.459	9294
926.566	9260
926.673	9097
926.779	9055
926.886	8986
926.993	8937
927.099	8895
927.206	8914
927.312	8830
927.419	8899
927.525	8906
927.631	8971
927.737	8845
927.843	8777
927.95	8678
928.056	8800
928.162	8815
928.267	8815
928.373	9420
928.479	8845
928.585	8682
928.69	8804
928.796	8815
928.901	8754
929.007	8533
929.112	8632
929.218	8621
929.323	8610
929.428	8602
929.533	8785
929.638	8571
929.743	8632
929.848	8663
929.953	8587
930.058	8492
930.163	8351
930.267	8336
930.372	8495
930.477	8294
930.581	8522
930.685	8499
930.79	8339
930.894	8400
930.998	8351
931.103	8488
931.207	8142
931.311	8016
931.415	7944
931.519	7803
931.623	7795
