Data from test_V78500241_3393.txt Node
Date: Fri Mar 25 14:57:20 CST 2022
User: usil
Spectrometer: V785-0024
Trigger mode: 0
Integration Time (sec): 4.000000E-1
Scans to average: 1
Nonlinearity correction enabled: false
Boxcar width: 0
Storing dark spectrum: false
XAxis mode: Wavelengths
Number of Pixels in Spectrum: 1024
>>>>>Begin Spectral Data<<<<<
801.071	21850
801.214	21785
801.356	21549
801.499	21545
801.641	21306
801.783	21332
801.926	21325
802.068	21317
802.211	21176
802.353	21169
802.496	20902
802.638	20701
802.78	20849
802.923	20686
803.065	20476
803.208	20568
803.35	20708
803.492	20853
803.635	20838
803.777	20655
803.919	20785
804.061	20918
804.204	20769
804.346	20533
804.488	20606
804.63	20667
804.773	20514
804.915	20564
805.057	20617
805.199	20511
805.341	20480
805.483	20705
805.626	20621
805.768	20473
805.91	20590
806.052	20560
806.194	20415
806.336	20746
806.478	20537
806.62	20484
806.762	20564
806.904	20674
807.046	20826
807.188	20834
807.33	20804
807.472	20910
807.614	20712
807.756	20807
807.898	20575
808.04	20560
808.182	20621
808.324	20545
808.465	20541
808.607	20906
808.749	20880
808.891	20876
809.033	21066
809.174	20986
809.316	20834
809.458	20800
809.6	20910
809.741	20910
809.883	21013
810.025	20971
810.166	21112
810.308	21077
810.45	20986
810.591	20902
810.733	20678
810.875	20777
811.016	20659
811.158	20556
811.299	20667
811.441	20765
811.582	20746
811.724	20636
811.865	20613
812.007	20606
812.148	20625
812.29	20602
812.431	20807
812.573	20906
812.714	21074
812.855	21081
812.997	21222
813.138	21447
813.279	21275
813.421	21184
813.562	21074
813.703	20918
813.845	20701
813.986	20465
814.127	20278
814.268	20172
814.41	20183
814.551	20191
814.692	20294
814.833	20096
814.974	20119
815.115	20107
815.256	20046
815.397	19955
815.539	20012
815.68	19887
815.821	19780
815.962	19883
816.103	19849
816.244	19795
816.385	19658
816.526	19639
816.666	19533
816.807	19320
816.948	19407
817.089	19396
817.23	19377
817.371	19377
817.512	19259
817.653	19312
817.793	19392
817.934	19304
818.075	19358
818.216	19202
818.356	19384
818.497	19137
818.638	19008
818.778	19053
818.919	19019
819.06	19004
819.2	19187
819.341	19228
819.481	19148
819.622	19453
819.762	19495
819.903	19415
820.043	19308
820.184	19335
820.324	19297
820.465	19293
820.605	19228
820.746	19308
820.886	19137
821.026	19278
821.167	19240
821.307	19324
821.447	19228
821.588	19137
821.728	19008
821.868	18894
822.008	18631
822.149	18696
822.289	18631
822.429	18464
822.569	18437
822.709	18407
822.849	18258
822.99	18167
823.13	18155
823.27	18262
823.41	17935
823.55	18007
823.69	18041
823.83	18038
823.97	17946
824.11	17904
824.25	17745
824.389	17866
824.529	17760
824.669	17695
824.809	17885
824.949	17790
825.089	17878
825.228	17767
825.368	17710
825.508	17516
825.648	17558
825.787	17661
825.927	17661
826.067	17474
826.206	17520
826.346	17615
826.485	17505
826.625	17661
826.765	17676
826.904	17501
827.044	17376
827.183	17402
827.323	17216
827.462	17322
827.601	17265
827.741	17185
827.88	17299
828.02	17170
828.159	17223
828.298	17280
828.437	17318
828.577	17208
828.716	17292
828.855	17200
828.994	17014
829.134	17006
829.273	17067
829.412	16946
829.551	16934
829.69	16904
829.829	17056
829.968	17147
830.107	17155
830.246	17075
830.385	17052
830.524	16854
830.663	16908
830.802	16812
830.941	16626
831.08	16542
831.219	16782
831.357	16698
831.496	16892
831.635	16531
831.774	16508
831.913	16459
832.051	16527
832.19	16577
832.329	16550
832.467	16409
832.606	16284
832.744	16348
832.883	16363
833.022	16325
833.16	16291
833.299	16363
833.437	16322
833.576	16257
833.714	16440
833.852	16356
833.991	16466
834.129	16436
834.267	16344
834.406	16344
834.544	16455
834.682	16417
834.821	16428
834.959	16558
835.097	16382
835.235	16462
835.373	16428
835.511	16348
835.65	16402
835.788	16303
835.926	16101
836.064	16044
836.202	16173
836.34	16265
836.478	16478
836.615	16284
836.753	16303
836.891	16322
837.029	16455
837.167	16276
837.305	16128
837.443	16287
837.58	16173
837.718	16344
837.856	16185
837.993	16090
838.131	16192
838.269	16128
838.406	16226
838.544	16040
838.681	15884
838.819	15880
838.956	15724
839.094	15770
839.231	15709
839.369	15880
839.506	16150
839.643	15983
839.781	15755
839.918	15667
840.055	15766
840.193	15762
840.33	15747
840.467	15682
840.604	15743
840.742	15899
840.879	15610
841.016	15728
841.153	15663
841.29	15812
841.427	15789
841.564	15781
841.701	15663
841.838	15797
841.975	15561
842.112	15652
842.249	15545
842.385	15542
842.522	15705
842.659	15587
842.796	15454
842.933	15481
843.069	15424
843.206	15523
843.343	15675
843.479	15538
843.616	15515
843.752	15389
843.889	15283
844.025	15450
844.162	15252
844.298	15439
844.435	15367
844.571	15264
844.708	15310
844.844	15488
844.98	15374
845.117	15336
845.253	15310
845.389	15123
845.525	15298
845.661	15138
845.798	15039
845.934	15119
846.07	15020
846.206	15150
846.342	15359
846.478	15131
846.614	14937
846.75	14910
846.886	14796
847.022	14872
847.158	14861
847.294	14937
847.429	14902
847.565	14880
847.701	15199
847.837	14659
847.972	14667
848.108	14689
848.244	14746
848.379	14484
848.515	14568
848.65	14495
848.786	14492
848.921	14507
849.057	14629
849.192	14575
849.328	14579
849.463	14533
849.598	14488
849.734	14438
849.869	14275
850.004	14237
850.14	14256
850.275	14202
850.41	14176
850.545	14214
850.68	14328
850.815	14244
850.95	14218
851.085	14533
851.22	14362
851.355	14240
851.49	14240
851.625	14271
851.76	14202
851.895	14210
852.03	14210
852.165	14191
852.299	14309
852.434	14309
852.569	14256
852.703	14225
852.838	14457
852.973	14461
853.107	14400
853.242	14176
853.376	14111
853.511	14005
853.645	14084
853.78	14233
853.914	14267
854.048	14073
854.183	14123
854.317	14119
854.451	14317
854.585	14168
854.72	14100
854.854	14195
854.988	14077
855.122	14187
855.256	13925
855.39	14058
855.524	14176
855.658	14145
855.792	14092
855.926	14214
856.06	14092
856.194	14180
856.327	14161
856.461	14092
856.595	14115
856.729	14027
856.862	14229
856.996	14126
857.13	14191
857.263	14278
857.397	14290
857.53	14123
857.664	14183
857.797	14278
857.931	14351
858.064	14180
858.197	14252
858.331	14191
858.464	14195
858.597	13989
858.731	14111
858.864	14012
858.997	14142
859.13	14168
859.263	14168
859.396	14233
859.529	14035
859.662	14062
859.795	14111
859.928	14180
860.061	14278
860.194	14377
860.327	14195
860.46	14088
860.592	14248
860.725	14252
860.858	14256
860.99	14107
861.123	14100
861.256	14027
861.388	14161
861.521	14796
861.653	14001
861.786	13944
861.918	13997
862.05	14016
862.183	14138
862.315	14221
862.447	14100
862.58	14100
862.712	13875
862.844	13788
862.976	14016
863.108	13936
863.24	14358
863.372	13807
863.504	13913
863.636	13963
863.768	13974
863.9	13917
864.032	13807
864.164	13799
864.296	13989
864.428	14016
864.559	13967
864.691	14069
864.823	13967
864.954	13947
865.086	13913
865.217	13898
865.349	13887
865.48	13879
865.612	14035
865.743	14054
865.875	13959
866.006	13841
866.137	13894
866.269	14020
866.4	13909
866.531	13917
866.662	13879
866.793	13902
866.924	13849
867.055	13947
867.186	13944
867.317	13826
867.448	13788
867.579	13860
867.71	13761
867.841	13791
867.972	13890
868.103	13902
868.233	14012
868.364	13940
868.495	13967
868.625	14187
868.756	14210
868.886	14069
869.017	14103
869.147	14244
869.278	14343
869.408	14172
869.539	14145
869.669	14130
869.799	14214
869.929	14328
870.06	14267
870.19	14469
870.32	14495
870.45	14438
870.58	14518
870.71	14724
870.84	14602
870.97	14571
871.1	14533
871.23	14796
871.36	14670
871.489	14659
871.619	14712
871.749	14651
871.879	14739
872.008	14872
872.138	14918
872.267	14750
872.397	14564
872.526	14587
872.656	14530
872.785	14655
872.915	14765
873.044	14823
873.173	14731
873.303	14868
873.432	14883
873.561	14887
873.69	14731
873.819	14864
873.948	14823
874.077	14849
874.206	14667
874.335	14785
874.464	14929
874.593	15062
874.722	15013
874.851	15237
874.979	15169
875.108	15161
875.237	15119
875.365	15127
875.494	15123
875.623	15241
875.751	15089
875.88	15138
876.008	15302
876.136	15386
876.265	15595
876.393	15698
876.521	15580
876.65	15511
876.778	15568
876.906	15564
877.034	15515
877.162	15625
877.29	15435
877.418	15584
877.546	15492
877.674	15568
877.802	15481
877.93	15519
878.058	15511
878.185	15405
878.313	15469
878.441	15511
878.568	15332
878.696	15519
878.824	15477
878.951	15507
879.079	15705
879.206	15884
879.333	15656
879.461	15576
879.588	15614
879.715	15778
879.842	15831
879.97	15682
880.097	15408
880.224	15355
880.351	15485
880.478	15416
880.605	15306
880.732	15382
880.859	15675
880.986	15424
881.112	15416
881.239	15176
881.366	15180
881.493	15184
881.619	15058
881.746	15093
881.872	14986
881.999	15013
882.125	15039
882.252	15173
882.378	15138
882.505	15195
882.631	15028
882.757	14925
882.883	14944
883.01	14777
883.136	14845
883.262	14758
883.388	14667
883.514	14960
883.64	14861
883.766	14857
883.892	14769
884.018	14720
884.143	14895
884.269	14891
884.395	14670
884.52	14545
884.646	14621
884.772	14507
884.897	14457
885.023	14674
885.148	14674
885.274	14731
885.399	14670
885.524	14549
885.65	14598
885.775	14568
885.9	14556
886.025	14727
886.15	14689
886.275	14518
886.4	14419
886.525	14511
886.65	14461
886.775	14526
886.9	14701
887.025	14857
887.149	14598
887.274	14423
887.399	14381
887.523	14408
887.648	14313
887.773	14256
887.897	14446
888.021	14511
888.146	14415
888.27	14533
888.395	14587
888.519	14415
888.643	14438
888.767	14545
888.891	14389
889.015	14202
889.139	14381
889.263	14225
889.387	14328
889.511	14381
889.635	14480
889.759	14301
889.883	14149
890.006	14332
890.13	14317
890.254	14240
890.377	14317
890.501	14145
890.624	13993
890.748	14168
890.871	14046
890.995	13883
891.118	13944
891.241	14039
891.364	13989
891.488	14119
891.611	13890
891.734	14039
891.857	14043
891.98	14027
892.103	14039
892.226	13955
892.349	13997
892.471	13944
892.594	13978
892.717	13932
892.839	14065
892.962	13989
893.085	14031
893.207	14001
893.33	13883
893.452	13925
893.575	13997
893.697	13921
893.819	14191
893.941	14134
894.064	14195
894.186	13997
894.308	13898
894.43	14153
894.552	14142
894.674	14069
894.796	14005
894.918	14016
895.04	14027
895.161	14123
895.283	14195
895.405	14058
895.526	14065
895.648	14008
895.769	14100
895.891	14214
896.012	14248
896.134	14161
896.255	14153
896.376	14069
896.498	14123
896.619	14172
896.74	14138
896.861	14168
896.982	14438
897.103	14625
897.224	14499
897.345	14465
897.466	14305
897.587	14454
897.708	14602
897.828	14549
897.949	14355
898.07	14309
898.19	14370
898.311	14526
898.431	14431
898.552	14476
898.672	14583
898.792	14537
898.913	14590
899.033	14587
899.153	14358
899.273	14377
899.393	14351
899.513	14389
899.633	14381
899.753	14454
899.873	14332
899.993	14408
900.113	14351
900.232	14351
900.352	14336
900.472	14332
900.591	14168
900.711	14328
900.83	14248
900.95	14366
901.069	14339
901.189	14119
901.308	13963
901.427	13879
901.546	13837
901.665	13963
901.784	13791
901.904	13860
902.023	13613
902.141	13525
902.26	13468
902.379	13552
902.498	13510
902.617	13407
902.735	13480
902.854	13445
902.973	13381
903.091	13179
903.21	13198
903.328	13129
903.446	13095
903.565	12996
903.683	13099
903.801	12905
903.919	13050
904.038	12977
904.156	12848
904.274	12928
904.392	12840
904.51	12791
904.627	12947
904.745	12878
904.863	12837
904.981	12570
905.098	12502
905.216	12551
905.334	12684
905.451	12471
905.569	12559
905.686	12631
905.803	12464
905.921	12323
906.038	12456
906.155	12422
906.272	12247
906.389	12315
906.506	12213
906.623	12155
906.74	12079
906.857	11954
906.974	12068
907.091	12251
907.208	12319
907.324	12209
907.441	11965
907.557	11874
907.674	11855
907.79	11821
907.907	11954
908.023	11878
908.139	11901
908.256	11878
908.372	11783
908.488	11870
908.604	11589
908.72	11551
908.836	11653
908.952	11676
909.068	11661
909.184	11771
909.3	11680
909.415	11745
909.531	11688
909.647	11471
909.762	11436
909.878	11395
909.993	11425
910.108	11368
910.224	11448
910.339	11467
910.454	11330
910.57	11273
910.685	11162
910.8	11482
910.915	11391
911.03	11250
911.145	11147
911.259	11083
911.374	11143
911.489	11056
911.604	11025
911.718	10900
911.833	10930
911.947	10809
912.062	10702
912.176	10873
912.291	10904
912.405	10801
912.519	11109
912.633	11010
912.748	10980
912.862	10877
912.976	10771
913.09	10675
913.204	10725
913.318	10767
913.431	10828
913.545	10889
913.659	10965
913.772	10786
913.886	10630
914	10660
914.113	10714
914.226	10782
914.34	10771
914.453	10516
914.566	10774
914.68	10596
914.793	10577
914.906	10447
915.019	10314
915.132	10329
915.245	10394
915.358	10379
915.47	10436
915.583	10428
915.696	10413
915.809	10577
915.921	10565
916.034	10390
916.146	10230
916.259	10352
916.371	10402
916.483	10409
916.595	10337
916.708	10337
916.82	10306
916.932	10280
917.044	10299
917.156	10325
917.268	10188
917.38	10223
917.491	10192
917.603	10200
917.715	10322
917.826	10261
917.938	10169
918.049	10063
918.161	10166
918.272	10367
918.384	10360
918.495	10200
918.606	10162
918.717	10048
918.828	10105
918.939	10128
919.05	10040
919.161	10063
919.272	9926
919.383	10021
919.494	10112
919.604	10299
919.715	10143
919.826	10040
919.936	10021
920.047	10196
920.157	10166
920.267	10375
920.378	10147
920.488	10188
920.598	10287
920.708	10481
920.818	10268
920.928	10379
921.038	10516
921.148	10478
921.258	10181
921.368	10128
921.477	10002
921.587	9953
921.697	9865
921.806	10093
921.916	9835
922.025	9770
922.134	9736
922.244	9698
922.353	9694
922.462	9629
922.571	9584
922.68	9466
922.789	9386
922.898	9443
923.007	9298
923.116	9462
923.224	9382
923.333	9363
923.442	9294
923.55	9253
923.659	9317
923.767	9359
923.876	9275
923.984	9294
924.092	9264
924.201	9279
924.309	9260
924.417	9363
924.525	9268
924.633	9275
924.741	10147
924.849	9028
924.956	9226
925.064	9070
925.172	8963
925.279	9085
925.387	9089
925.494	9089
925.602	9199
925.709	9146
925.816	9074
925.924	9127
926.031	9195
926.138	9081
926.245	9116
926.352	9032
926.459	9116
926.566	9135
926.673	9062
926.779	9013
926.886	8929
926.993	8830
927.099	8857
927.206	8800
927.312	8758
927.419	8929
927.525	8842
927.631	8845
927.737	8739
927.843	8686
927.95	8655
928.056	8667
928.162	8689
928.267	8724
928.373	9321
928.479	8712
928.585	8564
928.69	8693
928.796	8674
928.901	8602
929.007	8587
929.112	8549
929.218	8556
929.323	8556
929.428	8503
929.533	8724
929.638	8423
929.743	8503
929.848	8590
929.953	8564
930.058	8396
930.163	8298
930.267	8301
930.372	8457
930.477	8256
930.581	8499
930.685	8358
930.79	8214
930.894	8244
930.998	8240
931.103	8381
931.207	8115
931.311	7974
931.415	7967
931.519	7715
931.623	7792
