Data from test_V78500241_2382.txt Node
Date: Fri Mar 25 14:50:17 CST 2022
User: usil
Spectrometer: V785-0024
Trigger mode: 0
Integration Time (sec): 4.000000E-1
Scans to average: 1
Nonlinearity correction enabled: false
Boxcar width: 0
Storing dark spectrum: false
XAxis mode: Wavelengths
Number of Pixels in Spectrum: 1024
>>>>>Begin Spectral Data<<<<<
801.071	22128
801.214	22131
801.356	21915
801.499	21869
801.641	21698
801.783	21553
801.926	21614
802.068	21511
802.211	21416
802.353	21389
802.496	21001
802.638	21089
802.78	21070
802.923	20967
803.065	20895
803.208	20743
803.35	20830
803.492	20990
803.635	21036
803.777	20921
803.919	21036
804.061	21268
804.204	20902
804.346	20773
804.488	20807
804.63	20788
804.773	20792
804.915	20788
805.057	20857
805.199	20712
805.341	20891
805.483	20933
805.626	20960
805.768	20678
805.91	20796
806.052	20830
806.194	20621
806.336	20994
806.478	20750
806.62	20746
806.762	20785
806.904	20971
807.046	21188
807.188	21093
807.33	21154
807.472	21081
807.614	20975
807.756	20937
807.898	20823
808.04	20883
808.182	20845
808.324	20887
808.465	20857
808.607	21036
808.749	21230
808.891	21237
809.033	21351
809.174	21397
809.316	21093
809.458	21207
809.6	21188
809.741	21272
809.883	21329
810.025	21310
810.166	21355
810.308	21275
810.45	21275
810.591	21192
810.733	20979
810.875	20941
811.016	20929
811.158	20918
811.299	21081
811.441	21032
811.582	21100
811.724	20910
811.865	20895
812.007	20971
812.148	20941
812.29	20967
812.431	21066
812.573	21344
812.714	21279
812.855	21397
812.997	21519
813.138	21583
813.279	21519
813.421	21443
813.562	21386
813.703	21233
813.845	21032
813.986	20815
814.127	20750
814.268	20560
814.41	20530
814.551	20446
814.692	20526
814.833	20415
814.974	20393
815.115	20495
815.256	20343
815.397	20282
815.539	20339
815.68	20278
815.821	20149
815.962	20252
816.103	20145
816.244	19986
816.385	19959
816.526	19909
816.666	19822
816.807	19537
816.948	19689
817.089	19769
817.23	19807
817.371	19723
817.512	19605
817.653	19502
817.793	19571
817.934	19655
818.075	19624
818.216	19609
818.356	19537
818.497	19460
818.638	19327
818.778	19365
818.919	19331
819.06	19259
819.2	19365
819.341	19487
819.481	19609
819.622	19670
819.762	19811
819.903	19681
820.043	19628
820.184	19556
820.324	19556
820.465	19537
820.605	19624
820.746	19556
820.886	19415
821.026	19472
821.167	19483
821.307	19567
821.447	19521
821.588	19445
821.728	19270
821.868	19080
822.008	18958
822.149	19008
822.289	18901
822.429	18753
822.569	18684
822.709	18593
822.849	18570
822.99	18445
823.13	18547
823.27	18403
823.41	18304
823.55	18266
823.69	18281
823.83	18247
823.97	18285
824.11	18030
824.25	18015
824.389	18041
824.529	18182
824.669	17973
824.809	18155
824.949	18064
825.089	18159
825.228	18060
825.368	18011
825.508	17866
825.648	17893
825.787	17889
825.927	17901
826.067	17794
826.206	17729
826.346	17836
826.485	17836
826.625	17828
826.765	17908
826.904	17893
827.044	17630
827.183	17627
827.323	17516
827.462	17459
827.601	17493
827.741	17558
827.88	17547
828.02	17349
828.159	17535
828.298	17566
828.437	17512
828.577	17455
828.716	17619
828.855	17471
828.994	17254
829.134	17250
829.273	17231
829.412	17223
829.551	17197
829.69	17212
829.829	17288
829.968	17410
830.107	17349
830.246	17208
830.385	17254
830.524	17159
830.663	17151
830.802	17022
830.941	16892
831.08	16801
831.219	16831
831.357	16968
831.496	17056
831.635	16923
831.774	16675
831.913	16778
832.051	16641
832.19	16672
832.329	16744
832.467	16611
832.606	16611
832.744	16535
832.883	16584
833.022	16554
833.16	16527
833.299	16603
833.437	16497
833.576	16569
833.714	16622
833.852	16702
833.991	16634
834.129	16660
834.267	16660
834.406	16599
834.544	16592
834.682	16592
834.821	16668
834.959	16771
835.097	16588
835.235	16694
835.373	16527
835.511	16573
835.65	16493
835.788	16508
835.926	16356
836.064	16303
836.202	16348
836.34	16455
836.478	16603
836.615	16538
836.753	16535
836.891	16656
837.029	16455
837.167	16485
837.305	16375
837.443	16398
837.58	16398
837.718	16375
837.856	16333
837.993	16276
838.131	16352
838.269	16360
838.406	16329
838.544	16196
838.681	16040
838.819	16150
838.956	15846
839.094	15964
839.231	15945
839.369	16101
839.506	16341
839.643	16166
839.781	15873
839.918	15823
840.055	15934
840.193	15930
840.33	15846
840.467	15926
840.604	15975
840.742	16223
840.879	15774
841.016	15835
841.153	15857
841.29	16040
841.427	15922
841.564	15854
841.701	15934
841.838	15816
841.975	15842
842.112	15831
842.249	15713
842.385	15599
842.522	15892
842.659	15759
842.796	15644
842.933	15785
843.069	15648
843.206	15663
843.343	15861
843.479	15717
843.616	15701
843.752	15481
843.889	15504
844.025	15622
844.162	15443
844.298	15614
844.435	15397
844.571	15469
844.708	15462
844.844	15614
844.98	15618
845.117	15595
845.253	15351
845.389	15363
845.525	15420
845.661	15325
845.798	15279
845.934	15245
846.07	15264
846.206	15325
846.342	15450
846.478	15199
846.614	14986
846.75	15020
846.886	15020
847.022	15157
847.158	15199
847.294	15036
847.429	15070
847.565	14998
847.701	15317
847.837	14845
847.972	14811
848.108	14861
848.244	14762
848.379	14708
848.515	14655
848.65	14636
848.786	14648
848.921	14590
849.057	14727
849.192	14693
849.328	14670
849.463	14636
849.598	14476
849.734	14511
849.869	14492
850.004	14415
850.14	14476
850.275	14461
850.41	14320
850.545	14275
850.68	14473
850.815	14389
850.95	14362
851.085	14640
851.22	14465
851.355	14415
851.49	14370
851.625	14400
851.76	14294
851.895	14240
852.03	14298
852.165	14351
852.299	14389
852.434	14484
852.569	14450
852.703	14412
852.838	14408
852.973	14545
853.107	14511
853.242	14313
853.376	14358
853.511	14130
853.645	14187
853.78	14332
853.914	14278
854.048	14218
854.183	14347
854.317	14248
854.451	14427
854.585	14176
854.72	14259
854.854	14381
854.988	14172
855.122	14290
855.256	14153
855.39	14225
855.524	14320
855.658	14351
855.792	14351
855.926	14351
856.06	14336
856.194	14309
856.327	14282
856.461	14183
856.595	14206
856.729	14214
856.862	14423
856.996	14389
857.13	14278
857.263	14408
857.397	14438
857.53	14244
857.664	14366
857.797	14271
857.931	14309
858.064	14374
858.197	14412
858.331	14225
858.464	14278
858.597	14161
858.731	14210
858.864	14305
858.997	14309
859.13	14294
859.263	14305
859.396	14320
859.529	14252
859.662	14267
859.795	14240
859.928	14381
860.061	14438
860.194	14370
860.327	14294
860.46	14221
860.592	14320
860.725	14423
860.858	14396
860.99	14286
861.123	14218
861.256	14259
861.388	14221
861.521	14902
861.653	14168
861.786	14168
861.918	14134
862.05	14233
862.183	14275
862.315	14290
862.447	14225
862.58	14157
862.712	14065
862.844	13959
862.976	14077
863.108	14103
863.24	14309
863.372	14020
863.504	14035
863.636	14058
863.768	14115
863.9	14134
864.032	14020
864.164	13997
864.296	14005
864.428	14157
864.559	14210
864.691	14145
864.823	14100
864.954	14130
865.086	14092
865.217	14084
865.349	14081
865.48	14069
865.612	14100
865.743	14153
865.875	14046
866.006	14050
866.137	14062
866.269	13974
866.4	14065
866.531	14073
866.662	13852
866.793	13993
866.924	13955
867.055	14107
867.186	14050
867.317	13986
867.448	13921
867.579	14001
867.71	13978
867.841	13982
867.972	14043
868.103	14020
868.233	14069
868.364	14065
868.495	14092
868.625	14263
868.756	14259
868.886	14275
869.017	14263
869.147	14385
869.278	14488
869.408	14336
869.539	14317
869.669	14301
869.799	14370
869.929	14427
870.06	14374
870.19	14625
870.32	14579
870.45	14568
870.58	14724
870.71	14758
870.84	14807
870.97	14670
871.1	14621
871.23	14895
871.36	14910
871.489	14788
871.619	14807
871.749	14902
871.879	14929
872.008	14952
872.138	14956
872.267	14956
872.397	14819
872.526	14720
872.656	14735
872.785	14762
872.915	15024
873.044	14998
873.173	14910
873.303	14887
873.432	14971
873.561	14982
873.69	14937
873.819	14918
873.948	15020
874.077	14948
874.206	14796
874.335	14933
874.464	15100
874.593	15161
874.722	15169
874.851	15298
874.979	15287
875.108	15321
875.237	15256
875.365	15287
875.494	15207
875.623	15405
875.751	15302
875.88	15287
876.008	15408
876.136	15572
876.265	15610
876.393	15869
876.521	15797
876.65	15785
876.778	15675
876.906	15595
877.034	15633
877.162	15538
877.29	15466
877.418	15603
877.546	15652
877.674	15720
877.802	15629
877.93	15610
878.058	15671
878.185	15606
878.313	15766
878.441	15675
878.568	15492
878.696	15656
878.824	15736
878.951	15812
879.079	15819
879.206	15907
879.333	15907
879.461	15789
879.588	15781
879.715	15926
879.842	15888
879.97	15698
880.097	15591
880.224	15557
880.351	15428
880.478	15519
880.605	15507
880.732	15564
880.859	15732
880.986	15557
881.112	15618
881.239	15378
881.366	15252
881.493	15154
881.619	15051
881.746	15268
881.872	15218
881.999	15127
882.125	15180
882.252	15165
882.378	15325
882.505	15291
882.631	15116
882.757	15085
882.883	14990
883.01	14872
883.136	14941
883.262	14849
883.388	14807
883.514	14952
883.64	15081
883.766	15001
883.892	14830
884.018	14739
884.143	15032
884.269	15093
884.395	14811
884.52	14682
884.646	14750
884.772	14598
884.897	14655
885.023	14610
885.148	14773
885.274	14830
885.399	14845
885.524	14678
885.65	14697
885.775	14590
885.9	14670
886.025	14826
886.15	14705
886.275	14670
886.4	14655
886.525	14583
886.65	14610
886.775	14583
886.9	14758
887.025	14914
887.149	14602
887.274	14533
887.399	14503
887.523	14434
887.648	14530
887.773	14465
887.897	14598
888.021	14549
888.146	14446
888.27	14644
888.395	14693
888.519	14507
888.643	14594
888.767	14560
888.891	14473
889.015	14336
889.139	14355
889.263	14358
889.387	14484
889.511	14526
889.635	14495
889.759	14431
889.883	14324
890.006	14431
890.13	14434
890.254	14298
890.377	14271
890.501	14183
890.624	14123
890.748	14313
890.871	14100
890.995	14081
891.118	13989
891.241	14073
891.364	14046
891.488	14233
891.611	14054
891.734	14027
891.857	14202
891.98	14081
892.103	14142
892.226	14210
892.349	14054
892.471	13860
892.594	14073
892.717	14073
892.839	14081
892.962	14062
893.085	14138
893.207	14103
893.33	14065
893.452	14012
893.575	14107
893.697	14050
893.819	14252
893.941	14290
894.064	14259
894.186	14035
894.308	14058
894.43	14221
894.552	14328
894.674	14225
894.796	14065
894.918	14119
895.04	14145
895.161	14256
895.283	14294
895.405	14206
895.526	14187
895.648	14164
895.769	14206
895.891	14248
896.012	14271
896.134	14267
896.255	14199
896.376	14183
896.498	14240
896.619	14320
896.74	14271
896.861	14339
896.982	14632
897.103	14773
897.224	14571
897.345	14514
897.466	14442
897.587	14545
897.708	14629
897.828	14648
897.949	14533
898.07	14317
898.19	14514
898.311	14724
898.431	14579
898.552	14568
898.672	14705
898.792	14693
898.913	14640
899.033	14514
899.153	14488
899.273	14419
899.393	14450
899.513	14457
899.633	14415
899.753	14526
899.873	14495
899.993	14530
900.113	14484
900.232	14465
900.352	14511
900.472	14370
900.591	14290
900.711	14446
900.83	14290
900.95	14473
901.069	14488
901.189	14343
901.308	14161
901.427	14035
901.546	14035
901.665	14107
901.784	14031
901.904	13936
902.023	13769
902.141	13571
902.26	13613
902.379	13670
902.498	13624
902.617	13506
902.735	13605
902.854	13575
902.973	13525
903.091	13270
903.21	13236
903.328	13289
903.446	13171
903.565	13156
903.683	13164
903.801	13110
903.919	13160
904.038	13141
904.156	12943
904.274	13095
904.392	12916
904.51	12909
904.627	12913
904.745	13019
904.863	13015
904.981	12795
905.098	12745
905.216	12642
905.334	12631
905.451	12654
905.569	12677
905.686	12738
905.803	12631
905.921	12532
906.038	12616
906.155	12494
906.272	12361
906.389	12350
906.506	12224
906.623	12304
906.74	12235
906.857	12125
906.974	12152
907.091	12251
907.208	12323
907.324	12289
907.441	12167
907.557	12041
907.674	12045
907.79	11942
907.907	11958
908.023	11999
908.139	12011
908.256	11958
908.372	11863
908.488	11904
908.604	11863
908.72	11691
908.836	11878
908.952	11729
909.068	11813
909.184	11882
909.3	11688
909.415	11729
909.531	11764
909.647	11596
909.762	11532
909.878	11490
909.993	11551
910.108	11448
910.224	11566
910.339	11615
910.454	11421
910.57	11379
910.685	11307
910.8	11646
910.915	11558
911.03	11364
911.145	11239
911.259	11185
911.374	11223
911.489	11128
911.604	11041
911.718	11022
911.833	10965
911.947	10774
912.062	10774
912.176	10976
912.291	10949
912.405	10946
912.519	11159
912.633	11204
912.748	11037
912.862	11025
912.976	10839
913.09	10763
913.204	10847
913.318	10900
913.431	11033
913.545	10953
913.659	11014
913.772	10911
913.886	10725
914	10675
914.113	10828
914.226	10858
914.34	10774
914.453	10649
914.566	10805
914.68	10683
914.793	10653
914.906	10440
915.019	10462
915.132	10436
915.245	10447
915.358	10417
915.47	10478
915.583	10561
915.696	10573
915.809	10546
915.921	10649
916.034	10493
916.146	10516
916.259	10466
916.371	10508
916.483	10516
916.595	10402
916.708	10432
916.82	10348
916.932	10428
917.044	10287
917.156	10379
917.268	10276
917.38	10253
917.491	10367
917.603	10242
917.715	10436
917.826	10500
917.938	10306
918.049	10185
918.161	10303
918.272	10398
918.384	10436
918.495	10360
918.606	10192
918.717	10105
918.828	10185
918.939	10223
919.05	10025
919.161	10101
919.272	9956
919.383	10021
919.494	10238
919.604	10443
919.715	10219
919.826	10162
919.936	10215
920.047	10287
920.157	10306
920.267	10402
920.378	10227
920.488	10223
920.598	10462
920.708	10550
920.818	10367
920.928	10409
921.038	10550
921.148	10565
921.258	10322
921.368	10147
921.477	10150
921.587	10082
921.697	9960
921.806	10154
921.916	9949
922.025	9823
922.134	9671
922.244	9694
922.353	9705
922.462	9705
922.571	9610
922.68	9504
922.789	9435
922.898	9523
923.007	9443
923.116	9576
923.224	9443
923.333	9412
923.442	9382
923.55	9378
923.659	9306
923.767	9477
923.876	9283
923.984	9382
924.092	9275
924.201	9294
924.309	9275
924.417	9416
924.525	9264
924.633	9302
924.741	10021
924.849	9066
924.956	9256
925.064	9077
925.172	9070
925.279	9062
925.387	9119
925.494	9203
925.602	9275
925.709	9192
925.816	9081
925.924	9123
926.031	9142
926.138	9085
926.245	9184
926.352	9062
926.459	9207
926.566	9253
926.673	9089
926.779	9013
926.886	8937
926.993	8845
927.099	8815
927.206	8826
927.312	8800
927.419	8807
927.525	8834
927.631	8914
927.737	8826
927.843	8705
927.95	8590
928.056	8682
928.162	8727
928.267	8811
928.373	9428
928.479	8773
928.585	8598
928.69	8648
928.796	8708
928.901	8708
929.007	8526
929.112	8583
929.218	8579
929.323	8587
929.428	8537
929.533	8766
929.638	8511
929.743	8503
929.848	8598
929.953	8530
930.058	8480
930.163	8355
930.267	8343
930.372	8492
930.477	8317
930.581	8533
930.685	8434
930.79	8172
930.894	8301
930.998	8286
931.103	8393
931.207	8043
931.311	7982
931.415	7970
931.519	7814
931.623	7795
