Data from test_V78500241_2767.txt Node
Date: Fri Mar 25 14:52:58 CST 2022
User: usil
Spectrometer: V785-0024
Trigger mode: 0
Integration Time (sec): 4.000000E-1
Scans to average: 1
Nonlinearity correction enabled: false
Boxcar width: 0
Storing dark spectrum: false
XAxis mode: Wavelengths
Number of Pixels in Spectrum: 1024
>>>>>Begin Spectral Data<<<<<
801.071	22177
801.214	21949
801.356	21671
801.499	21720
801.641	21420
801.783	21435
801.926	21336
802.068	21351
802.211	21249
802.353	21131
802.496	21024
802.638	20864
802.78	20982
802.923	20914
803.065	20712
803.208	20792
803.35	20663
803.492	20937
803.635	20826
803.777	20758
803.919	20819
804.061	21009
804.204	20902
804.346	20735
804.488	20602
804.63	20727
804.773	20609
804.915	20636
805.057	20716
805.199	20499
805.341	20785
805.483	20701
805.626	20689
805.768	20609
805.91	20678
806.052	20762
806.194	20522
806.336	20731
806.478	20735
806.62	20454
806.762	20590
806.904	20796
807.046	21062
807.188	20773
807.33	20937
807.472	21066
807.614	20861
807.756	20944
807.898	20689
808.04	20800
808.182	20743
808.324	20826
808.465	20792
808.607	20906
808.749	21066
808.891	21093
809.033	21199
809.174	21036
809.316	20956
809.458	20941
809.6	21017
809.741	21077
809.883	21138
810.025	21218
810.166	21138
810.308	21096
810.45	21036
810.591	21047
810.733	20876
810.875	20868
811.016	20769
811.158	20697
811.299	20701
811.441	20853
811.582	20769
811.724	20823
811.865	20864
812.007	20777
812.148	20632
812.29	20762
812.431	20883
812.573	21001
812.714	21051
812.855	21207
812.997	21412
813.138	21492
813.279	21367
813.421	21195
813.562	21192
813.703	20975
813.845	20876
813.986	20655
814.127	20431
814.268	20514
814.41	20320
814.551	20396
814.692	20358
814.833	20221
814.974	20351
815.115	20396
815.256	20252
815.397	20149
815.539	20176
815.68	20027
815.821	19955
815.962	20122
816.103	20081
816.244	19849
816.385	19772
816.526	19712
816.666	19567
816.807	19495
816.948	19533
817.089	19575
817.23	19525
817.371	19384
817.512	19457
817.653	19403
817.793	19472
817.934	19480
818.075	19392
818.216	19506
818.356	19434
818.497	19244
818.638	19137
818.778	19118
818.919	19050
819.06	19187
819.2	19244
819.341	19293
819.481	19400
819.622	19483
819.762	19624
819.903	19578
820.043	19525
820.184	19415
820.324	19419
820.465	19495
820.605	19453
820.746	19422
820.886	19270
821.026	19377
821.167	19350
821.307	19518
821.447	19365
821.588	19179
821.728	19076
821.868	18863
822.008	18867
822.149	18875
822.289	18833
822.429	18646
822.569	18547
822.709	18555
822.849	18380
822.99	18247
823.13	18201
823.27	18327
823.41	18057
823.55	18072
823.69	18171
823.83	18060
823.97	17999
824.11	17866
824.25	17927
824.389	17897
824.529	17984
824.669	17817
824.809	18053
824.949	18072
825.089	18072
825.228	17920
825.368	17718
825.508	17745
825.648	17665
825.787	17726
825.927	17668
826.067	17642
826.206	17718
826.346	17634
826.485	17752
826.625	17668
826.765	17657
826.904	17646
827.044	17395
827.183	17406
827.323	17337
827.462	17406
827.601	17345
827.741	17292
827.88	17410
828.02	17174
828.159	17288
828.298	17341
828.437	17471
828.577	17364
828.716	17532
828.855	17296
828.994	17071
829.134	17075
829.273	17216
829.412	17105
829.551	17071
829.69	17128
829.829	17079
829.968	17280
830.107	17265
830.246	17200
830.385	17178
830.524	17086
830.663	16911
830.802	16934
830.941	16767
831.08	16797
831.219	16828
831.357	16847
831.496	16953
831.635	16736
831.774	16637
831.913	16558
832.051	16519
832.19	16554
832.329	16561
832.467	16322
832.606	16481
832.744	16440
832.883	16455
833.022	16390
833.16	16348
833.299	16554
833.437	16344
833.576	16459
833.714	16481
833.852	16561
833.991	16603
834.129	16516
834.267	16478
834.406	16413
834.544	16493
834.682	16519
834.821	16409
834.959	16664
835.097	16379
835.235	16611
835.373	16569
835.511	16481
835.65	16394
835.788	16405
835.926	16257
836.064	16257
836.202	16268
836.34	16360
836.478	16489
836.615	16398
836.753	16504
836.891	16440
837.029	16428
837.167	16398
837.305	16287
837.443	16276
837.58	16299
837.718	16253
837.856	16322
837.993	16192
838.131	16322
838.269	16181
838.406	16204
838.544	16200
838.681	16002
838.819	16013
838.956	15781
839.094	15808
839.231	15903
839.369	16078
839.506	16215
839.643	16078
839.781	15888
839.918	15724
840.055	15770
840.193	15797
840.33	15838
840.467	15793
840.604	15930
840.742	16032
840.879	15682
841.016	15701
841.153	15675
841.29	15941
841.427	15911
841.564	15835
841.701	15880
841.838	15846
841.975	15629
842.112	15770
842.249	15679
842.385	15572
842.522	15808
842.659	15663
842.796	15622
842.933	15603
843.069	15542
843.206	15450
843.343	15705
843.479	15595
843.616	15652
843.752	15458
843.889	15367
844.025	15530
844.162	15348
844.298	15542
844.435	15504
844.571	15363
844.708	15485
844.844	15511
844.98	15485
845.117	15523
845.253	15306
845.389	15203
845.525	15359
845.661	15241
845.798	15176
845.934	15275
846.07	15173
846.206	15260
846.342	15336
846.478	15211
846.614	15024
846.75	14979
846.886	14933
847.022	15013
847.158	15039
847.294	15032
847.429	15089
847.565	14925
847.701	15237
847.837	14712
847.972	14689
848.108	14819
848.244	14792
848.379	14606
848.515	14640
848.65	14606
848.786	14514
848.921	14552
849.057	14785
849.192	14667
849.328	14583
849.463	14617
849.598	14423
849.734	14427
849.869	14476
850.004	14355
850.14	14431
850.275	14339
850.41	14282
850.545	14355
850.68	14370
850.815	14400
850.95	14290
851.085	14533
851.22	14419
851.355	14290
851.49	14229
851.625	14343
851.76	14225
851.895	14282
852.03	14168
852.165	14164
852.299	14393
852.434	14495
852.569	14362
852.703	14381
852.838	14381
852.973	14495
853.107	14457
853.242	14278
853.376	14240
853.511	14130
853.645	14142
853.78	14317
853.914	14202
854.048	14119
854.183	14176
854.317	14290
854.451	14393
854.585	14149
854.72	14062
854.854	14309
854.988	14187
855.122	14187
855.256	14084
855.39	14214
855.524	14233
855.658	14278
855.792	14271
855.926	14233
856.06	14324
856.194	14248
856.327	14305
856.461	14229
856.595	14069
856.729	14221
856.862	14305
856.996	14176
857.13	14210
857.263	14336
857.397	14339
857.53	14263
857.664	14240
857.797	14336
857.931	14282
858.064	14214
858.197	14313
858.331	14259
858.464	14157
858.597	14073
858.731	14157
858.864	14176
858.997	14164
859.13	14233
859.263	14263
859.396	14240
859.529	14161
859.662	14161
859.795	14134
859.928	14294
860.061	14366
860.194	14332
860.327	14206
860.46	14100
860.592	14320
860.725	14294
860.858	14286
860.99	14237
861.123	14016
861.256	14199
861.388	14275
861.521	14864
861.653	14077
861.786	14024
861.918	14092
862.05	14084
862.183	14058
862.315	14298
862.447	14259
862.58	14077
862.712	14020
862.844	13837
862.976	14126
863.108	14050
863.24	14488
863.372	13921
863.504	14001
863.636	13993
863.768	14062
863.9	13974
864.032	13913
864.164	14001
864.296	14024
864.428	14092
864.559	14012
864.691	14062
864.823	14092
864.954	13909
865.086	14005
865.217	14035
865.349	13856
865.48	13906
865.612	14012
865.743	14161
865.875	14016
866.006	13982
866.137	13963
866.269	13944
866.4	13928
866.531	14005
866.662	13860
866.793	13883
866.924	13917
867.055	13963
867.186	13887
867.317	13856
867.448	13887
867.579	13852
867.71	13830
867.841	13833
867.972	14008
868.103	13925
868.233	13925
868.364	14027
868.495	14005
868.625	14168
868.756	14339
868.886	14088
869.017	14176
869.147	14366
869.278	14294
869.408	14282
869.539	14202
869.669	14225
869.799	14294
869.929	14298
870.06	14396
870.19	14575
870.32	14461
870.45	14488
870.58	14625
870.71	14746
870.84	14758
870.97	14610
871.1	14617
871.23	14895
871.36	14781
871.489	14708
871.619	14735
871.749	14811
871.879	14857
872.008	15005
872.138	14777
872.267	14899
872.397	14693
872.526	14674
872.656	14579
872.785	14552
872.915	14781
873.044	14971
873.173	14842
873.303	14826
873.432	14895
873.561	14933
873.69	14876
873.819	14895
873.948	14979
874.077	14910
874.206	14746
874.335	14891
874.464	15009
874.593	15112
874.722	15184
874.851	15184
874.979	15272
875.108	15291
875.237	15203
875.365	15100
875.494	15195
875.623	15192
875.751	15135
875.88	15207
876.008	15260
876.136	15393
876.265	15584
876.393	15698
876.521	15705
876.65	15644
876.778	15656
876.906	15603
877.034	15637
877.162	15523
877.29	15458
877.418	15595
877.546	15564
877.674	15572
877.802	15587
877.93	15625
878.058	15538
878.185	15420
878.313	15576
878.441	15663
878.568	15477
878.696	15515
878.824	15633
878.951	15682
879.079	15770
879.206	15888
879.333	15880
879.461	15614
879.588	15694
879.715	15732
879.842	15907
879.97	15690
880.097	15420
880.224	15488
880.351	15431
880.478	15557
880.605	15435
880.732	15386
880.859	15713
880.986	15424
881.112	15538
881.239	15272
881.366	15241
881.493	15161
881.619	15123
881.746	15264
881.872	15066
881.999	15077
882.125	15081
882.252	15077
882.378	15245
882.505	15268
882.631	15093
882.757	14891
882.883	14994
883.01	14967
883.136	14895
883.262	14857
883.388	14876
883.514	15039
883.64	14948
883.766	14963
883.892	14758
884.018	14765
884.143	14929
884.269	15005
884.395	14731
884.52	14594
884.646	14610
884.772	14545
884.897	14590
885.023	14689
885.148	14773
885.274	14796
885.399	14720
885.524	14636
885.65	14678
885.775	14735
885.9	14689
886.025	14701
886.15	14762
886.275	14552
886.4	14575
886.525	14598
886.65	14556
886.775	14526
886.9	14705
887.025	14777
887.149	14659
887.274	14484
887.399	14454
887.523	14408
887.648	14377
887.773	14324
887.897	14526
888.021	14431
888.146	14431
888.27	14590
888.395	14533
888.519	14507
888.643	14480
888.767	14545
888.891	14385
889.015	14332
889.139	14351
889.263	14229
889.387	14488
889.511	14514
889.635	14434
889.759	14408
889.883	14305
890.006	14438
890.13	14442
890.254	14282
890.377	14267
890.501	14161
890.624	14096
890.748	14278
890.871	14046
890.995	14001
891.118	13947
891.241	14016
891.364	14035
891.488	14168
891.611	14149
891.734	13986
891.857	14161
891.98	13955
892.103	14149
892.226	14138
892.349	13970
892.471	13890
892.594	13993
892.717	14050
892.839	13959
892.962	14062
893.085	14123
893.207	14043
893.33	14016
893.452	14054
893.575	14020
893.697	14005
893.819	14240
893.941	14225
894.064	14271
894.186	14050
894.308	14024
894.43	14149
894.552	14366
894.674	14225
894.796	14027
894.918	14214
895.04	14115
895.161	14180
895.283	14195
895.405	13967
895.526	14176
895.648	14210
895.769	14138
895.891	14161
896.012	14343
896.134	14305
896.255	14157
896.376	14282
896.498	14271
896.619	14221
896.74	14328
896.861	14332
896.982	14556
897.103	14739
897.224	14571
897.345	14488
897.466	14415
897.587	14556
897.708	14693
897.828	14579
897.949	14549
898.07	14332
898.19	14442
898.311	14693
898.431	14571
898.552	14575
898.672	14674
898.792	14682
898.913	14636
899.033	14575
899.153	14442
899.273	14434
899.393	14385
899.513	14488
899.633	14480
899.753	14473
899.873	14400
899.993	14530
900.113	14454
900.232	14480
900.352	14412
900.472	14332
900.591	14317
900.711	14400
900.83	14248
900.95	14389
901.069	14495
901.189	14301
901.308	14119
901.427	14001
901.546	14024
901.665	13989
901.784	13963
901.904	13849
902.023	13734
902.141	13636
902.26	13552
902.379	13601
902.498	13476
902.617	13552
902.735	13639
902.854	13575
902.973	13457
903.091	13327
903.21	13301
903.328	13301
903.446	13213
903.565	13168
903.683	13171
903.801	13008
903.919	13137
904.038	13095
904.156	12970
904.274	12951
904.392	12878
904.51	12947
904.627	13031
904.745	13046
904.863	13023
904.981	12802
905.098	12612
905.216	12673
905.334	12620
905.451	12669
905.569	12623
905.686	12707
905.803	12578
905.921	12471
906.038	12589
906.155	12467
906.272	12391
906.389	12350
906.506	12186
906.623	12338
906.74	12178
906.857	12064
906.974	12072
907.091	12258
907.208	12456
907.324	12300
907.441	12057
907.557	12076
907.674	11969
907.79	11958
907.907	11961
908.023	11980
908.139	11950
908.256	11965
908.372	11878
908.488	11805
908.604	11691
908.72	11634
908.836	11695
908.952	11745
909.068	11748
909.184	11859
909.3	11729
909.415	11836
909.531	11764
909.647	11562
909.762	11429
909.878	11459
909.993	11543
910.108	11520
910.224	11558
910.339	11490
910.454	11467
910.57	11387
910.685	11280
910.8	11554
910.915	11581
911.03	11364
911.145	11239
911.259	11220
911.374	11231
911.489	11117
911.604	11094
911.718	11006
911.833	10923
911.947	10866
912.062	10824
912.176	10923
912.291	10976
912.405	11022
912.519	11151
912.633	11140
912.748	11006
912.862	10980
912.976	10873
913.09	10774
913.204	10805
913.318	10866
913.431	10900
913.545	10942
913.659	10949
913.772	10854
913.886	10706
914	10729
914.113	10904
914.226	10881
914.34	10793
914.453	10641
914.566	10801
914.68	10675
914.793	10733
914.906	10497
915.019	10402
915.132	10402
915.245	10459
915.358	10447
915.47	10481
915.583	10508
915.696	10538
915.809	10599
915.921	10706
916.034	10447
916.146	10440
916.259	10428
916.371	10481
916.483	10538
916.595	10348
916.708	10424
916.82	10405
916.932	10382
917.044	10447
917.156	10390
917.268	10284
917.38	10265
917.491	10276
917.603	10348
917.715	10325
917.826	10451
917.938	10272
918.049	10128
918.161	10291
918.272	10440
918.384	10443
918.495	10375
918.606	10253
918.717	10101
918.828	10253
918.939	10230
919.05	10071
919.161	10185
919.272	9949
919.383	10048
919.494	10280
919.604	10428
919.715	10207
919.826	10135
919.936	10143
920.047	10261
920.157	10246
920.267	10360
920.378	10192
920.488	10230
920.598	10421
920.708	10596
920.818	10447
920.928	10382
921.038	10531
921.148	10535
921.258	10284
921.368	10177
921.477	10086
921.587	10055
921.697	9937
921.806	10067
921.916	9907
922.025	9781
922.134	9774
922.244	9671
922.353	9835
922.462	9701
922.571	9534
922.68	9454
922.789	9424
922.898	9492
923.007	9401
923.116	9496
923.224	9488
923.333	9416
923.442	9370
923.55	9283
923.659	9397
923.767	9397
923.876	9253
923.984	9382
924.092	9253
924.201	9241
924.309	9348
924.417	9313
924.525	9218
924.633	9329
924.741	9972
924.849	8982
924.956	9184
925.064	9131
925.172	9089
925.279	9074
925.387	9127
925.494	9028
925.602	9154
925.709	9222
925.816	9062
925.924	9188
926.031	9176
926.138	9135
926.245	9165
926.352	9043
926.459	9157
926.566	9184
926.673	9081
926.779	8971
926.886	8994
926.993	8918
927.099	8788
927.206	8815
927.312	8807
927.419	8941
927.525	8830
927.631	8918
927.737	8720
927.843	8727
927.95	8682
928.056	8727
928.162	8788
928.267	8811
928.373	9344
928.479	8758
928.585	8636
928.69	8663
928.796	8807
928.901	8571
929.007	8480
929.112	8678
929.218	8613
929.323	8629
929.428	8537
929.533	8606
929.638	8499
929.743	8545
929.848	8636
929.953	8476
930.058	8446
930.163	8259
930.267	8351
930.372	8442
930.477	8286
930.581	8625
930.685	8355
930.79	8225
930.894	8286
930.998	8225
931.103	8336
931.207	8107
931.311	7932
931.415	7959
931.519	7757
931.623	7746
