Data from test_V78500241_406.txt Node
Date: Fri Mar 25 14:36:32 CST 2022
User: usil
Spectrometer: V785-0024
Trigger mode: 0
Integration Time (sec): 4.000000E-1
Scans to average: 1
Nonlinearity correction enabled: false
Boxcar width: 0
Storing dark spectrum: false
XAxis mode: Wavelengths
Number of Pixels in Spectrum: 1024
>>>>>Begin Spectral Data<<<<<
801.071	26701
801.214	26602
801.356	26347
801.499	26286
801.641	25947
801.783	26100
801.926	26214
802.068	26027
802.211	26024
802.353	26039
802.496	25860
802.638	25712
802.78	25757
802.923	25658
803.065	25655
803.208	25689
803.35	25624
803.492	25586
803.635	25666
803.777	25605
803.919	25788
804.061	25959
804.204	25734
804.346	25620
804.488	25635
804.63	25769
804.773	25510
804.915	25499
805.057	25689
805.199	25563
805.341	25639
805.483	25784
805.626	25597
805.768	25715
805.91	25605
806.052	25734
806.194	25677
806.336	25833
806.478	25719
806.62	25784
806.762	25822
806.904	25974
807.046	26206
807.188	25993
807.33	26103
807.472	26183
807.614	25947
807.756	25989
807.898	25830
808.04	25753
808.182	25856
808.324	25791
808.465	25822
808.607	26020
808.749	26202
808.891	26248
809.033	26415
809.174	26294
809.316	26309
809.458	26229
809.6	26073
809.741	26229
809.883	26240
810.025	26419
810.166	26377
810.308	26278
810.45	26206
810.591	26153
810.733	26031
810.875	26103
811.016	25936
811.158	25925
811.299	26027
811.441	26115
811.582	26081
811.724	25944
811.865	25909
812.007	25989
812.148	25925
812.29	25997
812.431	26103
812.573	26278
812.714	26328
812.855	26450
812.997	26590
813.138	26613
813.279	26495
813.421	26602
813.562	26362
813.703	26396
813.845	26180
813.986	25833
814.127	25681
814.268	25628
814.41	25567
814.551	25358
814.692	25605
814.833	25514
814.974	25388
815.115	25590
815.256	25350
815.397	25327
815.539	25476
815.68	25202
815.821	25259
815.962	25304
816.103	25213
816.244	25133
816.385	24901
816.526	24848
816.666	24738
816.807	24700
816.948	24734
817.089	24715
817.23	24779
817.371	24738
817.512	24616
817.653	24448
817.793	24665
817.934	24711
818.075	24635
818.216	24684
818.356	24505
818.497	24601
818.638	24395
818.778	24315
818.919	24380
819.06	24388
819.2	24528
819.341	24433
819.481	24555
819.622	24711
819.762	24920
819.903	24623
820.043	24646
820.184	24623
820.324	24673
820.465	24661
820.605	24646
820.746	24623
820.886	24631
821.026	24582
821.167	24589
821.307	24700
821.447	24536
821.588	24410
821.728	24281
821.868	24117
822.008	24076
822.149	23969
822.289	23920
822.429	23741
822.569	23566
822.709	23836
822.849	23501
822.99	23493
823.13	23433
823.27	23318
823.41	23315
823.55	23147
823.69	23242
823.83	23204
823.97	23284
824.11	23071
824.25	22976
824.389	22995
824.529	23052
824.669	23003
824.809	23075
824.949	23025
825.089	22999
825.228	23037
825.368	22782
825.508	22873
825.648	22820
825.787	22915
825.927	22759
826.067	22923
826.206	22603
826.346	22968
826.485	22911
826.625	22725
826.765	22919
826.904	22828
827.044	22447
827.183	22516
827.323	22424
827.462	22497
827.601	22443
827.741	22386
827.88	22440
828.02	22356
828.159	22474
828.298	22466
828.437	22519
828.577	22394
828.716	22531
828.855	22356
828.994	22090
829.134	22261
829.273	22196
829.412	22181
829.551	22082
829.69	22044
829.829	22215
829.968	22226
830.107	22257
830.246	22188
830.385	22017
830.524	21998
830.663	21949
830.802	21778
830.941	21778
831.08	21652
831.219	21766
831.357	21793
831.496	21918
831.635	21698
831.774	21652
831.913	21637
832.051	21469
832.19	21511
832.329	21599
832.467	21500
832.606	21332
832.744	21317
832.883	21466
833.022	21405
833.16	21393
833.299	21378
833.437	21348
833.576	21397
833.714	21439
833.852	21454
833.991	21340
834.129	21408
834.267	21530
834.406	21420
834.544	21325
834.682	21378
834.821	21420
834.959	21454
835.097	21260
835.235	21367
835.373	21408
835.511	21302
835.65	21245
835.788	21435
835.926	21089
836.064	21005
836.202	21192
836.34	21291
836.478	21195
836.615	21135
836.753	21294
836.891	21233
837.029	21329
837.167	21165
837.305	21119
837.443	21211
837.58	21260
837.718	21222
837.856	21077
837.993	20948
838.131	21131
838.269	20982
838.406	21005
838.544	20883
838.681	20720
838.819	20804
838.956	20606
839.094	20541
839.231	20621
839.369	20629
839.506	20929
839.643	20712
839.781	20465
839.918	20526
840.055	20495
840.193	20503
840.33	20431
840.467	20343
840.604	20438
840.742	20773
840.879	20328
841.016	20450
841.153	20256
841.29	20469
841.427	20442
841.564	20404
841.701	20465
841.838	20434
841.975	20313
842.112	20355
842.249	20138
842.385	20100
842.522	20434
842.659	20256
842.796	20157
842.933	20221
843.069	20122
843.206	20084
843.343	20267
843.479	20130
843.616	20218
843.752	20039
843.889	20043
844.025	20164
844.162	19928
844.298	20069
844.435	19868
844.571	19833
844.708	19978
844.844	20195
844.98	20081
845.117	20031
845.253	19852
845.389	19704
845.525	19849
845.661	19845
845.798	19791
845.934	19925
846.07	19753
846.206	19776
846.342	19864
846.478	19609
846.614	19529
846.75	19377
846.886	19460
847.022	19464
847.158	19422
847.294	19396
847.429	19449
847.565	19373
847.701	19605
847.837	19202
847.972	19122
848.108	19175
848.244	19228
848.379	19008
848.515	19000
848.65	18867
848.786	18958
848.921	19015
849.057	19076
849.192	18966
849.328	19034
849.463	18962
849.598	18886
849.734	18882
849.869	18711
850.004	18787
850.14	18574
850.275	18677
850.41	18574
850.545	18745
850.68	18673
850.815	18730
850.95	18760
851.085	18943
851.22	18859
851.355	18639
851.49	18726
851.625	18635
851.76	18616
851.895	18623
852.03	18517
852.165	18715
852.299	18700
852.434	18677
852.569	18696
852.703	18661
852.838	18741
852.973	18848
853.107	18745
853.242	18604
853.376	18513
853.511	18395
853.645	18456
853.78	18677
853.914	18563
854.048	18433
854.183	18475
854.317	18471
854.451	18620
854.585	18452
854.72	18471
854.854	18582
854.988	18346
855.122	18426
855.256	18410
855.39	18547
855.524	18574
855.658	18623
855.792	18460
855.926	18646
856.06	18490
856.194	18559
856.327	18532
856.461	18403
856.595	18525
856.729	18475
856.862	18646
856.996	18566
857.13	18544
857.263	18498
857.397	18578
857.53	18399
857.664	18448
857.797	18570
857.931	18639
858.064	18566
858.197	18601
858.331	18483
858.464	18452
858.597	18395
858.731	18410
858.864	18422
858.997	18300
859.13	18437
859.263	18460
859.396	18490
859.529	18369
859.662	18338
859.795	18456
859.928	18479
860.061	18582
860.194	18574
860.327	18437
860.46	18494
860.592	18506
860.725	18536
860.858	18502
860.99	18376
861.123	18289
861.256	18441
861.388	18418
861.521	19259
861.653	18323
861.786	18262
861.918	18365
862.05	18395
862.183	18361
862.315	18456
862.447	18551
862.58	18395
862.712	18308
862.844	18133
862.976	18182
863.108	18281
863.24	18540
863.372	18277
863.504	18235
863.636	18140
863.768	18095
863.9	18201
864.032	18155
864.164	18098
864.296	18224
864.428	18285
864.559	18155
864.691	18121
864.823	18133
864.954	18083
865.086	18239
865.217	18106
865.349	18060
865.48	18030
865.612	18019
865.743	18213
865.875	18144
866.006	18098
866.137	18114
866.269	18079
866.4	18049
866.531	18011
866.662	18068
866.793	17988
866.924	18030
867.055	17923
867.186	18045
867.317	17897
867.448	17977
867.579	17984
867.71	18057
867.841	17996
867.972	18003
868.103	18019
868.233	18068
868.364	18072
868.495	18136
868.625	18357
868.756	18273
868.886	18342
869.017	18174
869.147	18323
869.278	18388
869.408	18178
869.539	18273
869.669	18239
869.799	18292
869.929	18506
870.06	18247
870.19	18559
870.32	18578
870.45	18582
870.58	18703
870.71	18719
870.84	18715
870.97	18616
871.1	18620
871.23	18829
871.36	18802
871.489	18726
871.619	18776
871.749	18764
871.879	18878
872.008	18958
872.138	18951
872.267	18852
872.397	18688
872.526	18696
872.656	18654
872.785	18623
872.915	18856
873.044	18958
873.173	18909
873.303	18989
873.432	18981
873.561	19004
873.69	18939
873.819	18878
873.948	18909
874.077	18852
874.206	18814
874.335	18920
874.464	19027
874.593	19133
874.722	19065
874.851	19160
874.979	19168
875.108	19297
875.237	19091
875.365	19156
875.494	19042
875.623	19247
875.751	19187
875.88	19297
876.008	19320
876.136	19381
876.265	19548
876.393	19693
876.521	19658
876.65	19533
876.778	19518
876.906	19457
877.034	19529
877.162	19559
877.29	19521
877.418	19518
877.546	19460
877.674	19548
877.802	19487
877.93	19628
878.058	19480
878.185	19525
878.313	19529
878.441	19571
878.568	19419
878.696	19571
878.824	19552
878.951	19624
879.079	19731
879.206	19932
879.333	19696
879.461	19632
879.588	19609
879.715	19780
879.842	19917
879.97	19693
880.097	19495
880.224	19377
880.351	19354
880.478	19499
880.605	19426
880.732	19422
880.859	19681
880.986	19377
881.112	19339
881.239	19266
881.366	19274
881.493	19080
881.619	19069
881.746	18989
881.872	19053
881.999	19008
882.125	18890
882.252	18935
882.378	19061
882.505	19084
882.631	19004
882.757	18787
882.883	18825
883.01	18776
883.136	18726
883.262	18730
883.388	18703
883.514	18840
883.64	18878
883.766	18654
883.892	18593
884.018	18589
884.143	18711
884.269	18840
884.395	18536
884.52	18372
884.646	18452
884.772	18410
884.897	18410
885.023	18418
885.148	18456
885.274	18597
885.399	18536
885.524	18350
885.65	18448
885.775	18506
885.9	18475
886.025	18528
886.15	18563
886.275	18388
886.4	18369
886.525	18403
886.65	18258
886.775	18262
886.9	18441
887.025	18642
887.149	18483
887.274	18201
887.399	18140
887.523	18102
887.648	18171
887.773	18076
887.897	18266
888.021	18262
888.146	18182
888.27	18448
888.395	18232
888.519	18186
888.643	18186
888.767	18239
888.891	18068
889.015	17973
889.139	18079
889.263	17980
889.387	18106
889.511	18106
889.635	18194
889.759	17927
889.883	17893
890.006	18079
890.13	18068
890.254	17946
890.377	18083
890.501	17672
890.624	17794
890.748	17832
890.871	17809
890.995	17604
891.118	17467
891.241	17604
891.364	17646
891.488	17684
891.611	17615
891.734	17737
891.857	17729
891.98	17680
892.103	17649
892.226	17718
892.349	17551
892.471	17482
892.594	17592
892.717	17604
892.839	17642
892.962	17558
893.085	17737
893.207	17634
893.33	17493
893.452	17459
893.575	17615
893.697	17710
893.819	17783
893.941	17733
894.064	17726
894.186	17524
894.308	17490
894.43	17733
894.552	17798
894.674	17684
894.796	17493
894.918	17642
895.04	17516
895.161	17756
895.283	17627
895.405	17551
895.526	17554
895.648	17634
895.769	17592
895.891	17592
896.012	17707
896.134	17817
896.255	17661
896.376	17657
896.498	17668
896.619	17668
896.74	17726
896.861	17817
896.982	17973
897.103	18102
897.224	17961
897.345	17836
897.466	17859
897.587	18011
897.708	18057
897.828	17942
897.949	17775
898.07	17714
898.19	17866
898.311	18015
898.431	17828
898.552	17946
898.672	18022
898.792	17984
898.913	17950
899.033	17748
899.153	17695
899.273	17627
899.393	17630
899.513	17733
899.633	17615
899.753	17748
899.873	17630
899.993	17733
900.113	17604
900.232	17684
900.352	17623
900.472	17547
900.591	17562
900.711	17562
900.83	17524
900.95	17512
901.069	17581
901.189	17452
901.308	17128
901.427	17193
901.546	17071
901.665	17193
901.784	17121
901.904	17029
902.023	16942
902.141	16713
902.26	16683
902.379	16805
902.498	16694
902.617	16603
902.735	16641
902.854	16664
902.973	16645
903.091	16261
903.21	16322
903.328	16390
903.446	16303
903.565	16143
903.683	16249
903.801	16029
903.919	16284
904.038	16120
904.156	16040
904.274	16002
904.392	15930
904.51	15945
904.627	16067
904.745	15918
904.863	16006
904.981	15694
905.098	15519
905.216	15606
905.334	15618
905.451	15660
905.569	15519
905.686	15656
905.803	15644
905.921	15477
906.038	15511
906.155	15439
906.272	15344
906.389	15279
906.506	15131
906.623	15180
906.74	15161
906.857	14998
906.974	15047
907.091	15169
907.208	15214
907.324	15275
907.441	15051
907.557	14933
907.674	14956
907.79	14731
907.907	14853
908.023	14933
908.139	14834
908.256	14746
908.372	14678
908.488	14785
908.604	14610
908.72	14549
908.836	14549
908.952	14552
909.068	14602
909.184	14659
909.3	14560
909.415	14644
909.531	14552
909.647	14366
909.762	14252
909.878	14305
909.993	14347
910.108	14389
910.224	14240
910.339	14263
910.454	14202
910.57	14138
910.685	13982
910.8	14298
910.915	14100
911.03	14050
911.145	13940
911.259	13890
911.374	13970
911.489	13902
911.604	13856
911.718	13791
911.833	13708
911.947	13544
912.062	13525
912.176	13750
912.291	13666
912.405	13609
912.519	13894
912.633	13826
912.748	13746
912.862	13696
912.976	13514
913.09	13411
913.204	13434
913.318	13445
913.431	13609
913.545	13601
913.659	13613
913.772	13453
913.886	13247
914	13373
914.113	13388
914.226	13438
914.34	13400
914.453	13304
914.566	13411
914.68	13285
914.793	13221
914.906	13088
915.019	13065
915.132	12897
915.245	12996
915.358	13012
915.47	13031
915.583	13053
915.696	13015
915.809	13137
915.921	13179
916.034	12935
916.146	12943
916.259	12958
916.371	13034
916.483	12996
916.595	12863
916.708	12878
916.82	12825
916.932	12844
917.044	12806
917.156	12738
917.268	12719
917.38	12814
917.491	12658
917.603	12738
917.715	12726
917.826	12779
917.938	12631
918.049	12570
918.161	12692
918.272	12787
918.384	12779
918.495	12673
918.606	12585
918.717	12563
918.828	12578
918.939	12528
919.05	12490
919.161	12433
919.272	12323
919.383	12429
919.494	12597
919.604	12726
919.715	12513
919.826	12414
919.936	12494
920.047	12506
920.157	12578
920.267	12669
920.378	12494
920.488	12467
920.598	12662
920.708	12806
920.818	12692
920.928	12722
921.038	12760
921.148	12768
921.258	12475
921.368	12388
921.477	12315
921.587	12296
921.697	12125
921.806	12224
921.916	12159
922.025	12019
922.134	11931
922.244	11935
922.353	11969
922.462	11832
922.571	11726
922.68	11630
922.789	11668
922.898	11665
923.007	11596
923.116	11600
923.224	11554
923.333	11554
923.442	11436
923.55	11414
923.659	11528
923.767	11638
923.876	11417
923.984	11547
924.092	11360
924.201	11429
924.309	11452
924.417	11471
924.525	11265
924.633	11334
924.741	12251
924.849	11113
924.956	11337
925.064	11132
925.172	11086
925.279	11033
925.387	11178
925.494	11216
925.602	11261
925.709	11193
925.816	10953
925.924	11151
926.031	11307
926.138	11143
926.245	11117
926.352	10984
926.459	11155
926.566	11121
926.673	11037
926.779	10961
926.886	10915
926.993	10820
927.099	10668
927.206	10729
927.312	10687
927.419	10820
927.525	10721
927.631	10843
927.737	10683
927.843	10641
927.95	10485
928.056	10531
928.162	10668
928.267	10702
928.373	11269
928.479	10717
928.585	10436
928.69	10577
928.796	10630
928.901	10569
929.007	10405
929.112	10443
929.218	10398
929.323	10341
929.428	10375
929.533	10459
929.638	10451
929.743	10360
929.848	10417
929.953	10382
930.058	10268
930.163	10154
930.267	10097
930.372	10185
930.477	10017
930.581	10287
930.685	10169
930.79	9979
930.894	10074
930.998	9972
931.103	10040
931.207	9770
931.311	9686
931.415	9648
931.519	9500
931.623	9458
