Data from test_V78500241_165.txt Node
Date: Fri Mar 25 14:34:52 CST 2022
User: usil
Spectrometer: V785-0024
Trigger mode: 0
Integration Time (sec): 4.000000E-1
Scans to average: 1
Nonlinearity correction enabled: false
Boxcar width: 0
Storing dark spectrum: false
XAxis mode: Wavelengths
Number of Pixels in Spectrum: 1024
>>>>>Begin Spectral Data<<<<<
801.071	28919
801.214	28946
801.356	28713
801.499	28557
801.641	28508
801.783	28421
801.926	28637
802.068	28360
802.211	28314
802.353	28306
802.496	28238
802.638	27968
802.78	28029
802.923	27994
803.065	27972
803.208	27934
803.35	27770
803.492	28078
803.635	28207
803.777	28051
803.919	28166
804.061	28519
804.204	28116
804.346	28055
804.488	28070
804.63	27960
804.773	28025
804.915	28325
805.057	28325
805.199	28086
805.341	28265
805.483	28303
805.626	28299
805.768	28204
805.91	28306
806.052	28382
806.194	28246
806.336	28478
806.478	28413
806.62	28413
806.762	28607
806.904	28725
807.046	29067
807.188	28885
807.33	29010
807.472	29204
807.614	29261
807.756	29375
807.898	29471
808.04	29687
808.182	30079
808.324	30486
808.465	31088
808.607	31727
808.749	32297
808.891	32495
809.033	32682
809.174	32122
809.316	31693
809.458	31156
809.6	30692
809.741	30197
809.883	29847
810.025	29771
810.166	29760
810.308	29524
810.45	29235
810.591	29284
810.733	28923
810.875	28790
811.016	28782
811.158	28668
811.299	28763
811.441	28877
811.582	28843
811.724	28721
811.865	28645
812.007	28656
812.148	28790
812.29	28679
812.431	28763
812.573	28972
812.714	29071
812.855	29086
812.997	29269
813.138	29242
813.279	29178
813.421	29056
813.562	29056
813.703	28942
813.845	28755
813.986	28504
814.127	28253
814.268	28196
814.41	28287
814.551	28128
814.692	28291
814.833	28036
814.974	28051
815.115	28223
815.256	27979
815.397	27991
815.539	28044
815.68	27869
815.821	27789
815.962	27770
816.103	27827
816.244	27534
816.385	27694
816.526	27481
816.666	27310
816.807	27264
816.948	27260
817.089	27344
817.23	27188
817.371	27237
817.512	27119
817.653	27146
817.793	27119
817.934	27104
818.075	27218
818.216	27081
818.356	27096
818.497	27009
818.638	26815
818.778	26906
818.919	26754
819.06	26899
819.2	26906
819.341	27135
819.481	27077
819.622	27268
819.762	27401
819.903	27252
820.043	27275
820.184	27195
820.324	27039
820.465	27199
820.605	27085
820.746	27138
820.886	26975
821.026	27085
821.167	26998
821.307	27077
821.447	26960
821.588	26883
821.728	26701
821.868	26571
822.008	26450
822.149	26419
822.289	26393
822.429	26092
822.569	26100
822.709	26122
822.849	25940
822.99	25864
823.13	25837
823.27	25879
823.41	25620
823.55	25655
823.69	25601
823.83	25693
823.97	25643
824.11	25479
824.25	25453
824.389	25426
824.529	25438
824.669	25422
824.809	25575
824.949	25548
825.089	25499
825.228	25487
825.368	25240
825.508	25251
825.648	25358
825.787	25301
825.927	25339
826.067	25194
826.206	25308
826.346	25164
826.485	25362
826.625	25255
826.765	25278
826.904	25228
827.044	24973
827.183	24928
827.323	24951
827.462	25023
827.601	24798
827.741	24852
827.88	24878
828.02	24928
828.159	24947
828.298	24916
828.437	24817
828.577	24707
828.716	24932
828.855	24848
828.994	24540
829.134	24631
829.273	24631
829.412	24566
829.551	24471
829.69	24570
829.829	24665
829.968	24612
830.107	24623
830.246	24597
830.385	24456
830.524	24441
830.663	24292
830.802	24308
830.941	24178
831.08	24045
831.219	24281
831.357	24159
831.496	24281
831.635	24163
831.774	23965
831.913	23969
832.051	23897
832.19	23794
832.329	24057
832.467	23847
832.606	23687
832.744	23710
832.883	23817
833.022	23714
833.16	23798
833.299	23817
833.437	23840
833.576	23912
833.714	23882
833.852	24041
833.991	23885
834.129	24049
834.267	24049
834.406	23965
834.544	23927
834.682	23954
834.821	23817
834.959	23935
835.097	23733
835.235	23840
835.373	23775
835.511	23745
835.65	23676
835.788	23680
835.926	23471
836.064	23315
836.202	23436
836.34	23668
836.478	23661
836.615	23509
836.753	23554
836.891	23551
837.029	23619
837.167	23406
837.305	23356
837.443	23471
837.58	23429
837.718	23364
837.856	23334
837.993	23326
838.131	23364
838.269	23292
838.406	23280
838.544	23216
838.681	22961
838.819	23056
838.956	22801
839.094	22812
839.231	22904
839.369	22927
839.506	23220
839.643	22968
839.781	22805
839.918	22694
840.055	22630
840.193	22706
840.33	22645
840.467	22702
840.604	22763
840.742	22786
840.879	22447
841.016	22584
841.153	22596
841.29	22778
841.427	22713
841.564	22717
841.701	22607
841.838	22523
841.975	22493
842.112	22542
842.249	22348
842.385	22322
842.522	22626
842.659	22382
842.796	22348
842.933	22413
843.069	22287
843.206	22386
843.343	22550
843.479	22394
843.616	22310
843.752	22154
843.889	22139
844.025	22356
844.162	22211
844.298	22329
844.435	22207
844.571	22268
844.708	22325
844.844	22607
844.98	22618
845.117	22512
845.253	22557
845.389	22736
845.525	23421
845.661	24178
845.798	25320
845.934	26065
846.07	26503
846.206	26457
846.342	25833
846.478	24475
846.614	23497
846.75	22736
846.886	22238
847.022	22105
847.158	21964
847.294	21895
847.429	21797
847.565	21580
847.701	21800
847.837	21534
847.972	21340
848.108	21348
848.244	21351
848.379	21226
848.515	21119
848.65	21138
848.786	21001
848.921	21089
849.057	21287
849.192	21173
849.328	21199
849.463	21192
849.598	21051
849.734	21081
849.869	20952
850.004	20819
850.14	20849
850.275	20876
850.41	20849
850.545	20819
850.68	20724
850.815	20819
850.95	20902
851.085	20967
851.22	20921
851.355	20921
851.49	20921
851.625	20750
851.76	20788
851.895	20716
852.03	20606
852.165	20880
852.299	20769
852.434	20937
852.569	20739
852.703	20830
852.838	20815
852.973	20823
853.107	20807
853.242	20838
853.376	20583
853.511	20678
853.645	20530
853.78	20807
853.914	20655
854.048	20659
854.183	20644
854.317	20708
854.451	20925
854.585	20594
854.72	20575
854.854	20781
854.988	20549
855.122	20674
855.256	20476
855.39	20640
855.524	20670
855.658	20701
855.792	20689
855.926	20632
856.06	20792
856.194	20625
856.327	20693
856.461	20484
856.595	20594
856.729	20636
856.862	20708
856.996	20648
857.13	20743
857.263	20629
857.397	20632
857.53	20640
857.664	20587
857.797	20655
857.931	20754
858.064	20640
858.197	20746
858.331	20450
858.464	20537
858.597	20434
858.731	20511
858.864	20537
858.997	20549
859.13	20720
859.263	20518
859.396	20640
859.529	20594
859.662	20374
859.795	20400
859.928	20507
860.061	20674
860.194	20678
860.327	20556
860.46	20442
860.592	20636
860.725	20530
860.858	20670
860.99	20434
861.123	20381
861.256	20408
861.388	20431
861.521	20971
861.653	20431
861.786	20294
861.918	20473
862.05	20434
862.183	20556
862.315	20522
862.447	20621
862.58	20575
862.712	20263
862.844	20259
862.976	20267
863.108	20305
863.24	20571
863.372	20172
863.504	20145
863.636	20126
863.768	20176
863.9	20191
864.032	20172
864.164	20164
864.296	20126
864.428	20263
864.559	20252
864.691	20214
864.823	20244
864.954	20229
865.086	20134
865.217	20130
865.349	20115
865.48	20107
865.612	20024
865.743	20225
865.875	20081
866.006	19989
866.137	20103
866.269	20054
866.4	20073
866.531	20088
866.662	20065
866.793	19967
866.924	20043
867.055	19963
867.186	19967
867.317	20046
867.448	19864
867.579	19849
867.71	19860
867.841	19986
867.972	20027
868.103	20031
868.233	20119
868.364	19967
868.495	20195
868.625	20210
868.756	20415
868.886	20191
869.017	20202
869.147	20339
869.278	20408
869.408	20343
869.539	20259
869.669	20358
869.799	20298
869.929	20396
870.06	20385
870.19	20640
870.32	20442
870.45	20587
870.58	20716
870.71	20743
870.84	20807
870.97	20617
871.1	20644
871.23	20838
871.36	20853
871.489	20765
871.619	20769
871.749	20819
871.879	20895
872.008	20998
872.138	20902
872.267	20807
872.397	20754
872.526	20731
872.656	20781
872.785	20758
872.915	20823
873.044	20921
873.173	20933
873.303	20819
873.432	20982
873.561	20883
873.69	21024
873.819	20941
873.948	21047
874.077	20921
874.206	20967
874.335	20937
874.464	20994
874.593	21272
874.722	21256
874.851	21268
874.979	21211
875.108	21302
875.237	21207
875.365	21112
875.494	21237
875.623	21332
875.751	21138
875.88	21245
876.008	21321
876.136	21351
876.265	21629
876.393	21759
876.521	21934
876.65	21797
876.778	21690
876.906	21660
877.034	21629
877.162	21694
877.29	21724
877.418	21739
877.546	21755
877.674	21732
877.802	21713
877.93	21827
878.058	21827
878.185	21804
878.313	21842
878.441	21880
878.568	21892
878.696	21979
878.824	22287
878.951	22557
879.079	22847
879.206	23360
879.333	23551
879.461	23687
879.588	24018
879.715	24034
879.842	23958
879.97	23554
880.097	22972
880.224	22691
880.351	22634
880.478	22287
880.605	22196
880.732	22234
880.859	22310
880.986	22154
881.112	21968
881.239	21949
881.366	21720
881.493	21747
881.619	21637
881.746	21603
881.872	21553
881.999	21599
882.125	21424
882.252	21637
882.378	21568
882.505	21819
882.631	21679
882.757	21507
882.883	21553
883.01	21424
883.136	21450
883.262	21325
883.388	21237
883.514	21435
883.64	21416
883.766	21329
883.892	21169
884.018	21218
884.143	21332
884.269	21557
884.395	21188
884.52	21108
884.646	21176
884.772	20975
884.897	20883
885.023	21039
885.148	21176
885.274	21207
885.399	20982
885.524	20941
885.65	20891
885.775	21058
885.9	20883
886.025	21081
886.15	20910
886.275	20769
886.4	20735
886.525	20796
886.65	20731
886.775	20777
886.9	20838
887.025	20960
887.149	20735
887.274	20457
887.399	20541
887.523	20366
887.648	20393
887.773	20252
887.897	20507
888.021	20431
888.146	20347
888.27	20507
888.395	20457
888.519	20370
888.643	20362
888.767	20301
888.891	20263
889.015	20240
889.139	20248
889.263	20077
889.387	20157
889.511	20294
889.635	20183
889.759	20084
889.883	20092
890.006	20195
890.13	20161
890.254	19978
890.377	20016
890.501	19826
890.624	19742
890.748	19925
890.871	19742
890.995	19624
891.118	19544
891.241	19628
891.364	19658
891.488	19693
891.611	19472
891.734	19658
891.857	19544
891.98	19601
892.103	19731
892.226	19468
892.349	19552
892.471	19438
892.594	19464
892.717	19586
892.839	19480
892.962	19518
893.085	19525
893.207	19438
893.33	19335
893.452	19483
893.575	19480
893.697	19415
893.819	19533
893.941	19529
894.064	19670
894.186	19438
894.308	19346
894.43	19556
894.552	19597
894.674	19529
894.796	19430
894.918	19369
895.04	19388
895.161	19525
895.283	19487
895.405	19365
895.526	19438
895.648	19278
895.769	19407
895.891	19381
896.012	19438
896.134	19521
896.255	19548
896.376	19339
896.498	19384
896.619	19472
896.74	19407
896.861	19495
896.982	19837
897.103	19887
897.224	19776
897.345	19586
897.466	19639
897.587	19643
897.708	19776
897.828	19696
897.949	19586
898.07	19510
898.19	19677
898.311	19651
898.431	19521
898.552	19575
898.672	19791
898.792	19738
898.913	19753
899.033	19548
899.153	19502
899.273	19316
899.393	19316
899.513	19381
899.633	19373
899.753	19297
899.873	19358
899.993	19449
900.113	19316
900.232	19312
900.352	19403
900.472	19206
900.591	19107
900.711	19152
900.83	19179
900.95	19335
901.069	19221
901.189	19137
901.308	18859
901.427	18875
901.546	18844
901.665	18871
901.784	18829
901.904	18730
902.023	18604
902.141	18365
902.26	18414
902.379	18304
902.498	18350
902.617	18182
902.735	18285
902.854	18239
902.973	18095
903.091	18045
903.21	17885
903.328	17916
903.446	17817
903.565	17649
903.683	17615
903.801	17630
903.919	17615
904.038	17687
904.156	17505
904.274	17532
904.392	17391
904.51	17474
904.627	17528
904.745	17478
904.863	17448
904.981	17288
905.098	17090
905.216	17174
905.334	17178
905.451	17159
905.569	17086
905.686	17143
905.803	17121
905.921	16957
906.038	17056
906.155	17018
906.272	16862
906.389	16927
906.506	16668
906.623	16733
906.74	16615
906.857	16531
906.974	16622
907.091	16683
907.208	16786
907.324	16672
907.441	16478
907.557	16322
907.674	16386
907.79	16291
907.907	16303
908.023	16382
908.139	16280
908.256	16341
908.372	16226
908.488	16116
908.604	16036
908.72	16002
908.836	16071
908.952	16029
909.068	16036
909.184	16040
909.3	16013
909.415	15991
909.531	16086
909.647	15739
909.762	15747
909.878	15679
909.993	15739
910.108	15709
910.224	15641
910.339	15701
910.454	15587
910.57	15477
910.685	15447
910.8	15698
910.915	15641
911.03	15599
911.145	15351
911.259	15249
911.374	15363
911.489	15195
911.604	15169
911.718	15097
911.833	15043
911.947	14963
912.062	14933
912.176	15036
912.291	14990
912.405	15157
912.519	15226
912.633	15230
912.748	15089
912.862	14937
912.976	14906
913.09	14750
913.204	14815
913.318	14853
913.431	14963
913.545	14929
913.659	14925
913.772	14823
913.886	14739
914	14800
914.113	14773
914.226	14754
914.34	14788
914.453	14606
914.566	14754
914.68	14568
914.793	14492
914.906	14393
915.019	14317
915.132	14176
915.245	14370
915.358	14347
915.47	14286
915.583	14355
915.696	14320
915.809	14404
915.921	14473
916.034	14290
916.146	14248
916.259	14195
916.371	14290
916.483	14240
916.595	14263
916.708	14126
916.82	14199
916.932	14138
917.044	14138
917.156	14031
917.268	13951
917.38	14012
917.491	13993
917.603	13993
917.715	14008
917.826	13978
917.938	13917
918.049	13879
918.161	13890
918.272	14077
918.384	14073
918.495	13955
918.606	13913
918.717	13750
918.828	13864
918.939	13757
919.05	13655
919.161	13753
919.272	13548
919.383	13571
919.494	13727
919.604	13909
919.715	13742
919.826	13738
919.936	13586
920.047	13772
920.157	13674
920.267	13845
920.378	13738
920.488	13712
920.598	13913
920.708	14016
920.818	13856
920.928	13913
921.038	14008
921.148	13902
921.258	13681
921.368	13616
921.477	13441
921.587	13552
921.697	13274
921.806	13400
921.916	13304
922.025	13080
922.134	12966
922.244	13038
922.353	13209
922.462	12935
922.571	12837
922.68	12738
922.789	12612
922.898	12692
923.007	12722
923.116	12783
923.224	12700
923.333	12646
923.442	12642
923.55	12589
923.659	12612
923.767	12597
923.876	12502
923.984	12601
924.092	12395
924.201	12506
924.309	12525
924.417	12445
924.525	12448
924.633	12433
924.741	13285
924.849	12216
924.956	12380
925.064	12247
925.172	12175
925.279	12273
925.387	12258
925.494	12216
925.602	12334
925.709	12292
925.816	12117
925.924	12133
926.031	12171
926.138	12163
926.245	12235
926.352	12057
926.459	12228
926.566	12152
926.673	12026
926.779	11988
926.886	11942
926.993	11794
927.099	11863
927.206	11748
927.312	11756
927.419	11813
927.525	11733
927.631	11748
927.737	11608
927.843	11623
927.95	11414
928.056	11528
928.162	11619
928.267	11668
928.373	12266
928.479	11699
928.585	11448
928.69	11570
928.796	11585
928.901	11482
929.007	11326
929.112	11391
929.218	11444
929.323	11353
929.428	11360
929.533	11433
929.638	11265
929.743	11265
929.848	11429
929.953	11246
930.058	11277
930.163	11037
930.267	11048
930.372	11201
930.477	11067
930.581	11208
930.685	11083
930.79	10900
930.894	10995
930.998	10885
931.103	10965
931.207	10660
931.311	10569
931.415	10519
931.519	10337
931.623	10367
