Data from test_V78500241_3668.txt Node
Date: Fri Mar 25 14:59:15 CST 2022
User: usil
Spectrometer: V785-0024
Trigger mode: 0
Integration Time (sec): 4.000000E-1
Scans to average: 1
Nonlinearity correction enabled: false
Boxcar width: 0
Storing dark spectrum: false
XAxis mode: Wavelengths
Number of Pixels in Spectrum: 1024
>>>>>Begin Spectral Data<<<<<
801.071	21869
801.214	21770
801.356	21473
801.499	21450
801.641	21256
801.783	21256
801.926	21260
802.068	21173
802.211	21138
802.353	21055
802.496	20956
802.638	20705
802.78	20663
802.923	20667
803.065	20476
803.208	20609
803.35	20708
803.492	20731
803.635	20739
803.777	20480
803.919	20670
804.061	20899
804.204	20689
804.346	20606
804.488	20507
804.63	20575
804.773	20461
804.915	20571
805.057	20632
805.199	20343
805.341	20556
805.483	20575
805.626	20609
805.768	20522
805.91	20507
806.052	20552
806.194	20438
806.336	20594
806.478	20469
806.62	20415
806.762	20492
806.904	20716
807.046	20880
807.188	20838
807.33	20872
807.472	20842
807.614	20746
807.756	20571
807.898	20511
808.04	20552
808.182	20499
808.324	20621
808.465	20629
808.607	20724
808.749	20872
808.891	20887
809.033	20933
809.174	20910
809.316	20857
809.458	20743
809.6	20773
809.741	20963
809.883	20933
810.025	21028
810.166	20998
810.308	20895
810.45	20979
810.591	20758
810.733	20739
810.875	20629
811.016	20434
811.158	20412
811.299	20621
811.441	20655
811.582	20606
811.724	20629
811.865	20564
812.007	20651
812.148	20522
812.29	20609
812.431	20750
812.573	20868
812.714	20960
812.855	21070
812.997	21211
813.138	21313
813.279	21230
813.421	21070
813.562	21028
813.703	20804
813.845	20918
813.986	20473
814.127	20221
814.268	20149
814.41	20111
814.551	20164
814.692	20191
814.833	20073
814.974	20092
815.115	20153
815.256	19898
815.397	19974
815.539	20039
815.68	19925
815.821	19795
815.962	19807
816.103	19841
816.244	19670
816.385	19559
816.526	19616
816.666	19533
816.807	19331
816.948	19335
817.089	19365
817.23	19339
817.371	19126
817.512	19289
817.653	19293
817.793	19103
817.934	19145
818.075	19190
818.216	19301
818.356	19308
818.497	19042
818.638	18886
818.778	18932
818.919	18973
819.06	19008
819.2	19046
819.341	19122
819.481	19103
819.622	19259
819.762	19464
819.903	19266
820.043	19320
820.184	19282
820.324	19244
820.465	19289
820.605	19217
820.746	19190
820.886	19034
821.026	19236
821.167	19118
821.307	19251
821.447	19137
821.588	19050
821.728	18871
821.868	18867
822.008	18719
822.149	18760
822.289	18585
822.429	18467
822.569	18437
822.709	18327
822.849	18152
822.99	18121
823.13	18129
823.27	18114
823.41	17912
823.55	17840
823.69	17882
823.83	18007
823.97	17912
824.11	17703
824.25	17710
824.389	17760
824.529	17783
824.669	17737
824.809	17767
824.949	17824
825.089	17828
825.228	17623
825.368	17539
825.508	17558
825.648	17566
825.787	17562
825.927	17547
826.067	17497
826.206	17512
826.346	17543
826.485	17581
826.625	17543
826.765	17646
826.904	17482
827.044	17250
827.183	17162
827.323	17334
827.462	17288
827.601	17227
827.741	17166
827.88	17170
828.02	17132
828.159	17223
828.298	17200
828.437	17239
828.577	17254
828.716	17277
828.855	17086
828.994	17041
829.134	17124
829.273	17128
829.412	16908
829.551	16885
829.69	16991
829.829	17033
829.968	17178
830.107	16949
830.246	16946
830.385	17029
830.524	16862
830.663	16831
830.802	16809
830.941	16679
831.08	16599
831.219	16816
831.357	16550
831.496	16892
831.635	16592
831.774	16542
831.913	16485
832.051	16409
832.19	16379
832.329	16561
832.467	16249
832.606	16348
832.744	16360
832.883	16325
833.022	16318
833.16	16352
833.299	16356
833.437	16352
833.576	16337
833.714	16291
833.852	16352
833.991	16440
834.129	16565
834.267	16497
834.406	16417
834.544	16352
834.682	16379
834.821	16386
834.959	16523
835.097	16375
835.235	16485
835.373	16519
835.511	16428
835.65	16318
835.788	16318
835.926	16173
836.064	16150
836.202	16128
836.34	16322
836.478	16280
836.615	16348
836.753	16424
836.891	16538
837.029	16379
837.167	16303
837.305	16223
837.443	16169
837.58	16154
837.718	16158
837.856	16177
837.993	16192
838.131	16101
838.269	16093
838.406	16169
838.544	16021
838.681	15903
838.819	15865
838.956	15770
839.094	15739
839.231	15789
839.369	15804
839.506	16101
839.643	16048
839.781	15709
839.918	15682
840.055	15778
840.193	15690
840.33	15682
840.467	15660
840.604	15884
840.742	15968
840.879	15675
841.016	15641
841.153	15648
841.29	15876
841.427	15732
841.564	15743
841.701	15770
841.838	15736
841.975	15599
842.112	15587
842.249	15576
842.385	15447
842.522	15728
842.659	15610
842.796	15603
842.933	15519
843.069	15530
843.206	15439
843.343	15549
843.479	15576
843.616	15568
843.752	15291
843.889	15374
844.025	15462
844.162	15287
844.298	15447
844.435	15405
844.571	15222
844.708	15275
844.844	15454
844.98	15469
845.117	15485
845.253	15287
845.389	15150
845.525	15348
845.661	15146
845.798	15024
845.934	15222
846.07	15028
846.206	15226
846.342	15252
846.478	15222
846.614	14910
846.75	14887
846.886	14861
847.022	15043
847.158	14800
847.294	14887
847.429	14864
847.565	14823
847.701	15154
847.837	14659
847.972	14606
848.108	14807
848.244	14739
848.379	14598
848.515	14499
848.65	14400
848.786	14476
848.921	14461
849.057	14530
849.192	14663
849.328	14503
849.463	14541
849.598	14480
849.734	14385
849.869	14320
850.004	14370
850.14	14332
850.275	14301
850.41	14221
850.545	14161
850.68	14225
850.815	14313
850.95	14313
851.085	14499
851.22	14298
851.355	14282
851.49	14229
851.625	14195
851.76	14252
851.895	14199
852.03	14225
852.165	14282
852.299	14240
852.434	14275
852.569	14259
852.703	14218
852.838	14366
852.973	14484
853.107	14362
853.242	14275
853.376	14142
853.511	13951
853.645	14088
853.78	14278
853.914	14100
854.048	14119
854.183	14088
854.317	14119
854.451	14385
854.585	14024
854.72	14145
854.854	14202
854.988	14069
855.122	14107
855.256	14005
855.39	14172
855.524	14199
855.658	14183
855.792	14237
855.926	14180
856.06	14195
856.194	14191
856.327	14145
856.461	14050
856.595	14088
856.729	14024
856.862	14237
856.996	14199
857.13	14180
857.263	14252
857.397	14282
857.53	14180
857.664	14248
857.797	14298
857.931	14324
858.064	14153
858.197	14210
858.331	14191
858.464	14062
858.597	14016
858.731	14092
858.864	14172
858.997	14161
859.13	14168
859.263	14172
859.396	14168
859.529	14005
859.662	14081
859.795	14119
859.928	14100
860.061	14271
860.194	14256
860.327	14130
860.46	14111
860.592	14328
860.725	14286
860.858	14195
860.99	14199
861.123	14016
861.256	14138
861.388	14111
861.521	14773
861.653	13989
861.786	13936
861.918	13928
862.05	14012
862.183	14123
862.315	14088
862.447	14229
862.58	14039
862.712	13898
862.844	13837
862.976	14020
863.108	14027
863.24	14377
863.372	13826
863.504	13963
863.636	13944
863.768	13986
863.9	13894
864.032	13833
864.164	13898
864.296	13993
864.428	14016
864.559	14046
864.691	14062
864.823	13921
864.954	13963
865.086	13944
865.217	13936
865.349	13788
865.48	13799
865.612	13906
865.743	14065
865.875	13963
866.006	13879
866.137	13913
866.269	14001
866.4	13849
866.531	13811
866.662	13761
866.793	13791
866.924	13902
867.055	13947
867.186	13799
867.317	13860
867.448	13803
867.579	13841
867.71	13814
867.841	13879
867.972	13906
868.103	13864
868.233	13944
868.364	13936
868.495	13982
868.625	14145
868.756	14252
868.886	14134
869.017	14153
869.147	14256
869.278	14263
869.408	14214
869.539	14164
869.669	14202
869.799	14157
869.929	14240
870.06	14294
870.19	14522
870.32	14457
870.45	14575
870.58	14495
870.71	14629
870.84	14594
870.97	14625
871.1	14461
871.23	14785
871.36	14663
871.489	14758
871.619	14625
871.749	14842
871.879	14838
872.008	14735
872.138	14788
872.267	14735
872.397	14613
872.526	14598
872.656	14552
872.785	14590
872.915	14811
873.044	14842
873.173	14727
873.303	14804
873.432	14872
873.561	14872
873.69	14861
873.819	14762
873.948	14895
874.077	14830
874.206	14807
874.335	14948
874.464	14982
874.593	15135
874.722	15024
874.851	15214
874.979	15169
875.108	15093
875.237	15081
875.365	15138
875.494	15093
875.623	15218
875.751	15055
875.88	15222
876.008	15351
876.136	15431
876.265	15511
876.393	15652
876.521	15682
876.65	15728
876.778	15564
876.906	15519
877.034	15500
877.162	15469
877.29	15443
877.418	15534
877.546	15557
877.674	15530
877.802	15473
877.93	15614
878.058	15530
878.185	15439
878.313	15580
878.441	15526
878.568	15443
878.696	15317
878.824	15660
878.951	15561
879.079	15698
879.206	15869
879.333	15614
879.461	15473
879.588	15698
879.715	15686
879.842	15850
879.97	15633
880.097	15393
880.224	15359
880.351	15378
880.478	15485
880.605	15363
880.732	15397
880.859	15637
880.986	15405
881.112	15351
881.239	15268
881.366	15188
881.493	15043
881.619	15051
881.746	15024
881.872	15138
881.999	15093
882.125	14956
882.252	15051
882.378	15108
882.505	15142
882.631	15013
882.757	14883
882.883	14971
883.01	14933
883.136	14788
883.262	14720
883.388	14689
883.514	14872
883.64	14941
883.766	14857
883.892	14724
884.018	14754
884.143	14788
884.269	14876
884.395	14693
884.52	14571
884.646	14590
884.772	14518
884.897	14412
885.023	14499
885.148	14708
885.274	14720
885.399	14689
885.524	14594
885.65	14507
885.775	14579
885.9	14602
886.025	14674
886.15	14663
886.275	14488
886.4	14533
886.525	14552
886.65	14469
886.775	14488
886.9	14571
887.025	14834
887.149	14552
887.274	14419
887.399	14434
887.523	14434
887.648	14408
887.773	14336
887.897	14434
888.021	14507
888.146	14351
888.27	14552
888.395	14423
888.519	14423
888.643	14469
888.767	14476
888.891	14309
889.015	14256
889.139	14400
889.263	14168
889.387	14377
889.511	14438
889.635	14332
889.759	14343
889.883	14252
890.006	14305
890.13	14358
890.254	14229
890.377	14237
890.501	14081
890.624	14123
890.748	14153
890.871	14031
890.995	13909
891.118	13841
891.241	13989
891.364	13913
891.488	14111
891.611	14027
891.734	13921
891.857	13936
891.98	14005
892.103	13997
892.226	14073
892.349	13936
892.471	13849
892.594	13925
892.717	13993
892.839	13902
892.962	14001
893.085	14016
893.207	13845
893.33	13925
893.452	13928
893.575	13989
893.697	13986
893.819	14111
893.941	14126
894.064	14119
894.186	13928
894.308	13986
894.43	14084
894.552	14161
894.674	14134
894.796	13902
894.918	14073
895.04	13959
895.161	14202
895.283	14096
895.405	13989
895.526	14081
895.648	13993
895.769	14119
895.891	14202
896.012	14195
896.134	14199
896.255	14149
896.376	14123
896.498	14149
896.619	14199
896.74	14119
896.861	14218
896.982	14473
897.103	14594
897.224	14442
897.345	14393
897.466	14259
897.587	14339
897.708	14549
897.828	14339
897.949	14305
898.07	14278
898.19	14324
898.311	14636
898.431	14454
898.552	14343
898.672	14625
898.792	14564
898.913	14495
899.033	14396
899.153	14415
899.273	14183
899.393	14290
899.513	14419
899.633	14343
899.753	14347
899.873	14332
899.993	14317
900.113	14275
900.232	14286
900.352	14355
900.472	14214
900.591	14046
900.711	14233
900.83	14138
900.95	14218
901.069	14263
901.189	14123
901.308	13959
901.427	13757
901.546	13883
901.665	13841
901.784	13925
901.904	13803
902.023	13681
902.141	13491
902.26	13430
902.379	13502
902.498	13521
902.617	13499
902.735	13480
902.854	13377
902.973	13339
903.091	13213
903.21	13107
903.328	13137
903.446	13145
903.565	13065
903.683	13072
903.801	12916
903.919	13004
904.038	12920
904.156	12894
904.274	12924
904.392	12795
904.51	12909
904.627	12833
904.745	12905
904.863	12829
904.981	12631
905.098	12551
905.216	12612
905.334	12589
905.451	12612
905.569	12525
905.686	12620
905.803	12563
905.921	12388
906.038	12452
906.155	12399
906.272	12289
906.389	12327
906.506	12224
906.623	12239
906.74	12182
906.857	12022
906.974	12117
907.091	12205
907.208	12292
907.324	12148
907.441	12038
907.557	11931
907.674	11946
907.79	11847
907.907	11897
908.023	11916
908.139	11965
908.256	12019
908.372	11935
908.488	11714
908.604	11680
908.72	11714
908.836	11726
908.952	11646
909.068	11748
909.184	11836
909.3	11657
909.415	11710
909.531	11714
909.647	11486
909.762	11452
909.878	11349
909.993	11440
910.108	11398
910.224	11520
910.339	11410
910.454	11372
910.57	11349
910.685	11193
910.8	11524
910.915	11535
911.03	11254
911.145	11162
911.259	11166
911.374	11109
911.489	11079
911.604	11056
911.718	10881
911.833	10854
911.947	10786
912.062	10736
912.176	10869
912.291	10991
912.405	10889
912.519	11071
912.633	11147
912.748	10877
912.862	10972
912.976	10767
913.09	10710
913.204	10801
913.318	10805
913.431	10934
913.545	10908
913.659	10927
913.772	10725
913.886	10679
914	10656
914.113	10717
914.226	10873
914.34	10790
914.453	10565
914.566	10778
914.68	10634
914.793	10672
914.906	10489
915.019	10371
915.132	10382
915.245	10409
915.358	10356
915.47	10421
915.583	10382
915.696	10497
915.809	10611
915.921	10565
916.034	10428
916.146	10394
916.259	10325
916.371	10451
916.483	10367
916.595	10405
916.708	10344
916.82	10295
916.932	10318
917.044	10367
917.156	10341
917.268	10204
917.38	10246
917.491	10185
917.603	10310
917.715	10341
917.826	10314
917.938	10204
918.049	10154
918.161	10314
918.272	10402
918.384	10310
918.495	10284
918.606	10124
918.717	10044
918.828	10139
918.939	10177
919.05	10059
919.161	10116
919.272	9918
919.383	9991
919.494	10158
919.604	10325
919.715	10154
919.826	9987
919.936	10051
920.047	10325
920.157	10143
920.267	10325
920.378	10215
920.488	10181
920.598	10341
920.708	10462
920.818	10360
920.928	10424
921.038	10542
921.148	10417
921.258	10204
921.368	10215
921.477	10051
921.587	9934
921.697	9892
921.806	10029
921.916	9895
922.025	9717
922.134	9644
922.244	9717
922.353	9785
922.462	9622
922.571	9553
922.68	9374
922.789	9424
922.898	9431
923.007	9329
923.116	9405
923.224	9420
923.333	9435
923.442	9359
923.55	9275
923.659	9287
923.767	9310
923.876	9256
923.984	9386
924.092	9249
924.201	9291
924.309	9321
924.417	9253
924.525	9203
924.633	9207
924.741	10002
924.849	9055
924.956	9199
925.064	9024
925.172	9009
925.279	8975
925.387	9089
925.494	9089
925.602	9188
925.709	9135
925.816	8990
925.924	9036
926.031	9100
926.138	9028
926.245	9108
926.352	8948
926.459	9123
926.566	9230
926.673	9077
926.779	8910
926.886	8979
926.993	8785
927.099	8766
927.206	8792
927.312	8670
927.419	8766
927.525	8777
927.631	8807
927.737	8682
927.843	8598
927.95	8602
928.056	8674
928.162	8689
928.267	8800
928.373	9275
928.479	8762
928.585	8537
928.69	8610
928.796	8648
928.901	8606
929.007	8530
929.112	8587
929.218	8583
929.323	8495
929.428	8488
929.533	8625
929.638	8427
929.743	8480
929.848	8522
929.953	8507
930.058	8396
930.163	8328
930.267	8275
930.372	8450
930.477	8214
930.581	8457
930.685	8279
930.79	8225
930.894	8240
930.998	8225
931.103	8336
931.207	7944
931.311	8012
931.415	7974
931.519	7704
931.623	7723
