Data from test_V78500241_636.txt Node
Date: Fri Mar 25 14:38:08 CST 2022
User: usil
Spectrometer: V785-0024
Trigger mode: 0
Integration Time (sec): 4.000000E-1
Scans to average: 1
Nonlinearity correction enabled: false
Boxcar width: 0
Storing dark spectrum: false
XAxis mode: Wavelengths
Number of Pixels in Spectrum: 1024
>>>>>Begin Spectral Data<<<<<
801.071	27983
801.214	27743
801.356	27447
801.499	27382
801.641	27370
801.783	27275
801.926	27222
802.068	27127
802.211	26960
802.353	27024
802.496	26762
802.638	26735
802.78	26712
802.923	26693
803.065	26754
803.208	26644
803.35	26514
803.492	26705
803.635	27058
803.777	26823
803.919	26899
804.061	27131
804.204	26937
804.346	26872
804.488	26739
804.63	26940
804.773	27032
804.915	26921
805.057	27188
805.199	27108
805.341	27294
805.483	27351
805.626	27275
805.768	27302
805.91	27351
806.052	27679
806.194	27564
806.336	27903
806.478	27926
806.62	28040
806.762	28333
806.904	28698
807.046	29242
807.188	29345
807.33	29809
807.472	30213
807.614	30764
807.756	31495
807.898	32297
808.04	33629
808.182	35102
808.324	37335
808.465	39732
808.607	42441
808.749	44823
808.891	46325
809.033	46329
809.174	44891
809.316	42589
809.458	39747
809.6	37069
809.741	34828
809.883	33081
810.025	32035
810.166	31148
810.308	30376
810.45	29916
810.591	29505
810.733	28953
810.875	28675
811.016	28322
811.158	28299
811.299	28310
811.441	28158
811.582	28112
811.724	27808
811.865	27663
812.007	27580
812.148	27564
812.29	27564
812.431	27648
812.573	27800
812.714	27686
812.855	27800
812.997	27873
813.138	27854
813.279	27968
813.421	27816
813.562	27713
813.703	27496
813.845	27218
813.986	26986
814.127	26720
814.268	26640
814.41	26693
814.551	26499
814.692	26606
814.833	26362
814.974	26457
815.115	26492
815.256	26324
815.397	26180
815.539	26252
815.68	26161
815.821	26081
815.962	26221
816.103	25989
816.244	25932
816.385	25677
816.526	25788
816.666	25639
816.807	25479
816.948	25655
817.089	25575
817.23	25476
817.371	25381
817.512	25377
817.653	25297
817.793	25343
817.934	25358
818.075	25244
818.216	25365
818.356	25198
818.497	25164
818.638	24985
818.778	24962
818.919	25004
819.06	25148
819.2	25088
819.341	25187
819.481	25236
819.622	25377
819.762	25415
819.903	25445
820.043	25346
820.184	25251
820.324	25282
820.465	25396
820.605	25316
820.746	25304
820.886	25137
821.026	25190
821.167	25198
821.307	25160
821.447	25118
821.588	24779
821.728	24795
821.868	24612
822.008	24532
822.149	24467
822.289	24460
822.429	24243
822.569	24064
822.709	24064
822.849	23992
822.99	23904
823.13	23874
823.27	23817
823.41	23699
823.55	23665
823.69	23676
823.83	23672
823.97	23638
824.11	23463
824.25	23345
824.389	23395
824.529	23482
824.669	23383
824.809	23581
824.949	23505
825.089	23463
825.228	23326
825.368	23094
825.508	23231
825.648	23273
825.787	23231
825.927	23360
826.067	23200
826.206	23185
826.346	23341
826.485	23334
826.625	23208
826.765	23383
826.904	23239
827.044	23056
827.183	23003
827.323	22904
827.462	22889
827.601	22869
827.741	22961
827.88	22885
828.02	22828
828.159	22877
828.298	22957
828.437	22797
828.577	22824
828.716	22976
828.855	22809
828.994	22550
829.134	22626
829.273	22664
829.412	22535
829.551	22352
829.69	22531
829.829	22580
829.968	22653
830.107	22618
830.246	22596
830.385	22512
830.524	22417
830.663	22360
830.802	22181
830.941	22128
831.08	22124
831.219	22272
831.357	22147
831.496	22424
831.635	22109
831.774	22059
831.913	22093
832.051	22040
832.19	21994
832.329	21945
832.467	22017
832.606	21846
832.744	21854
832.883	21987
833.022	22112
833.16	22097
833.299	22204
833.437	22337
833.576	22367
833.714	22561
833.852	22774
833.991	22858
834.129	22843
834.267	22919
834.406	22771
834.544	22839
834.682	22637
834.821	22550
834.959	22561
835.097	22329
835.235	22409
835.373	22143
835.511	22147
835.65	21953
835.788	21823
835.926	21675
836.064	21538
836.202	21663
836.34	21888
836.478	21770
836.615	21660
836.753	21682
836.891	21781
837.029	21595
837.167	21599
837.305	21625
837.443	21599
837.58	21583
837.718	21500
837.856	21488
837.993	21492
838.131	21424
838.269	21344
838.406	21412
838.544	21302
838.681	21096
838.819	21001
838.956	20960
839.094	20941
839.231	20994
839.369	21066
839.506	21260
839.643	21108
839.781	20899
839.918	20849
840.055	20891
840.193	20857
840.33	20872
840.467	20895
840.604	20872
840.742	21043
840.879	20819
841.016	20773
841.153	20785
841.29	20906
841.427	20868
841.564	20800
841.701	20769
841.838	20796
841.975	20682
842.112	20826
842.249	20724
842.385	20708
842.522	20796
842.659	20663
842.796	20655
842.933	20651
843.069	20716
843.206	20644
843.343	20804
843.479	20785
843.616	20788
843.752	20621
843.889	20640
844.025	20781
844.162	20697
844.298	20773
844.435	20975
844.571	20952
844.708	21313
844.844	21679
844.98	22109
845.117	22538
845.253	23208
845.389	24707
845.525	27526
845.661	32195
845.798	37799
845.934	42026
846.07	43662
846.206	42441
846.342	38765
846.478	33310
846.614	28337
846.75	25285
846.886	23429
847.022	22337
847.158	21625
847.294	21119
847.429	20842
847.565	20568
847.701	20686
847.837	20035
847.972	19875
848.108	20043
848.244	19795
848.379	19632
848.515	19624
848.65	19620
848.786	19578
848.921	19559
849.057	19647
849.192	19502
849.328	19575
849.463	19571
849.598	19358
849.734	19350
849.869	19365
850.004	19198
850.14	19259
850.275	19190
850.41	19141
850.545	19187
850.68	19225
850.815	19168
850.95	19240
851.085	19312
851.22	19244
851.355	19091
851.49	19103
851.625	19148
851.76	19221
851.895	19110
852.03	19129
852.165	19225
852.299	19175
852.434	19308
852.569	19209
852.703	19266
852.838	19263
852.973	19369
853.107	19419
853.242	19156
853.376	19137
853.511	19080
853.645	19183
853.78	19388
853.914	19320
854.048	19327
854.183	19339
854.317	19419
854.451	19552
854.585	19308
854.72	19255
854.854	19312
854.988	19145
855.122	19168
855.256	19084
855.39	19126
855.524	19247
855.658	19255
855.792	19198
855.926	19141
856.06	19091
856.194	19164
856.327	19069
856.461	18977
856.595	18916
856.729	18993
856.862	19145
856.996	19038
857.13	19046
857.263	19175
857.397	19004
857.53	18943
857.664	19050
857.797	19012
857.931	19095
858.064	18954
858.197	19000
858.331	18928
858.464	18779
858.597	18817
858.731	18817
858.864	18875
858.997	18977
859.13	18894
859.263	18973
859.396	19034
859.529	18806
859.662	18837
859.795	18825
859.928	18856
860.061	18954
860.194	19137
860.327	18928
860.46	18859
860.592	18985
860.725	19076
860.858	18954
860.99	18890
861.123	18741
861.256	18730
861.388	18810
861.521	19502
861.653	18692
861.786	18658
861.918	18760
862.05	18840
862.183	18890
862.315	18795
862.447	18905
862.58	18753
862.712	18616
862.844	18513
862.976	18612
863.108	18566
863.24	19038
863.372	18513
863.504	18509
863.636	18525
863.768	18559
863.9	18544
864.032	18517
864.164	18471
864.296	18528
864.428	18741
864.559	18486
864.691	18604
864.823	18513
864.954	18551
865.086	18555
865.217	18441
865.349	18391
865.48	18513
865.612	18448
865.743	18612
865.875	18445
866.006	18517
866.137	18448
866.269	18525
866.4	18525
866.531	18380
866.662	18414
866.793	18376
866.924	18509
867.055	18467
867.186	18407
867.317	18308
867.448	18258
867.579	18399
867.71	18365
867.841	18388
867.972	18547
868.103	18403
868.233	18483
868.364	18513
868.495	18391
868.625	18566
868.756	18814
868.886	18559
869.017	18673
869.147	18802
869.278	18882
869.408	18772
869.539	18684
869.669	18760
869.799	18684
869.929	18764
870.06	18764
870.19	19042
870.32	19038
870.45	19095
870.58	19061
870.71	19152
870.84	19331
870.97	19107
871.1	19069
871.23	19377
871.36	19373
871.489	19263
871.619	19278
871.749	19365
871.879	19445
872.008	19582
872.138	19362
872.267	19289
872.397	19213
872.526	19316
872.656	19198
872.785	19373
872.915	19438
873.044	19521
873.173	19476
873.303	19639
873.432	19647
873.561	19620
873.69	19700
873.819	19651
873.948	19620
874.077	19662
874.206	19704
874.335	19757
874.464	19833
874.593	19909
874.722	19875
874.851	20111
874.979	20077
875.108	20069
875.237	20191
875.365	19993
875.494	20149
875.623	20320
875.751	20320
875.88	20339
876.008	20465
876.136	20583
876.265	20838
876.393	20910
876.521	21112
876.65	21051
876.778	20895
876.906	21013
877.034	21135
877.162	21218
877.29	21032
877.418	21264
877.546	21370
877.674	21359
877.802	21496
877.93	21530
878.058	21766
878.185	21983
878.313	22067
878.441	22348
878.568	22497
878.696	23056
878.824	23726
878.951	24764
879.079	26050
879.206	27800
879.333	29368
879.461	30711
879.588	31582
879.715	31818
879.842	31080
879.97	29486
880.097	27698
880.224	26286
880.351	25228
880.478	24563
880.605	24072
880.732	23878
880.859	23821
880.986	23512
881.112	23433
881.239	23280
881.366	23220
881.493	22949
881.619	22869
881.746	22987
881.872	22961
881.999	22976
882.125	23105
882.252	23334
882.378	23056
882.505	23239
882.631	23121
882.757	22885
882.883	23090
883.01	23121
883.136	22965
883.262	22854
883.388	22763
883.514	23003
883.64	22995
883.766	22938
883.892	22710
884.018	22820
884.143	22938
884.269	22889
884.395	22645
884.52	22622
884.646	22721
884.772	22694
884.897	22607
885.023	22672
885.148	22565
885.274	22721
885.399	22664
885.524	22554
885.65	22455
885.775	22325
885.9	22116
886.025	22105
886.15	21972
886.275	21701
886.4	21606
886.525	21431
886.65	21393
886.775	21222
886.9	21393
887.025	21420
887.149	21104
887.274	20891
887.399	20785
887.523	20651
887.648	20492
887.773	20503
887.897	20552
888.021	20545
888.146	20415
888.27	20385
888.395	20537
888.519	20271
888.643	20336
888.767	20259
888.891	20088
889.015	20005
889.139	20012
889.263	20005
889.387	20062
889.511	20027
889.635	19989
889.759	19803
889.883	19761
890.006	19746
890.13	19795
890.254	19620
890.377	19586
890.501	19297
890.624	19346
890.748	19438
890.871	19282
890.995	19122
891.118	19053
891.241	19183
891.364	18989
891.488	19137
891.611	19015
891.734	18966
891.857	19099
891.98	18977
892.103	18981
892.226	18966
892.349	18951
892.471	18745
892.594	18798
892.717	18935
892.839	18703
892.962	18703
893.085	18722
893.207	18776
893.33	18551
893.452	18669
893.575	18604
893.697	18627
893.819	18703
893.941	18913
894.064	18688
894.186	18460
894.308	18426
894.43	18574
894.552	18589
894.674	18661
894.796	18391
894.918	18445
895.04	18460
895.161	18521
895.283	18513
895.405	18441
895.526	18350
895.648	18365
895.769	18407
895.891	18407
896.012	18517
896.134	18410
896.255	18483
896.376	18353
896.498	18361
896.619	18441
896.74	18388
896.861	18467
896.982	18635
897.103	18772
897.224	18574
897.345	18566
897.466	18532
897.587	18509
897.708	18795
897.828	18582
897.949	18536
898.07	18315
898.19	18486
898.311	18654
898.431	18551
898.552	18506
898.672	18627
898.792	18608
898.913	18521
899.033	18346
899.153	18346
899.273	18235
899.393	18266
899.513	18239
899.633	18289
899.753	18273
899.873	18319
899.993	18296
900.113	18300
900.232	18228
900.352	18209
900.472	18125
900.591	17984
900.711	18182
900.83	18133
900.95	18216
901.069	18133
901.189	17992
901.308	17764
901.427	17634
901.546	17718
901.665	17767
901.784	17611
901.904	17497
902.023	17433
902.141	17204
902.26	17227
902.379	17284
902.498	17159
902.617	17094
902.735	17174
902.854	17162
902.973	16984
903.091	16885
903.21	16691
903.328	16744
903.446	16630
903.565	16561
903.683	16577
903.801	16398
903.919	16447
904.038	16584
904.156	16455
904.274	16405
904.392	16276
904.51	16272
904.627	16306
904.745	16352
904.863	16116
904.981	16105
905.098	15983
905.216	15945
905.334	16074
905.451	16006
905.569	15949
905.686	15937
905.803	15941
905.921	15781
906.038	15911
906.155	15720
906.272	15633
906.389	15728
906.506	15435
906.623	15553
906.74	15496
906.857	15386
906.974	15252
907.091	15500
907.208	15584
907.324	15584
907.441	15348
907.557	15252
907.674	15260
907.79	15104
907.907	15214
908.023	15157
908.139	15188
908.256	15077
908.372	15104
908.488	15032
908.604	14914
908.72	14845
908.836	14811
908.952	14861
909.068	14804
909.184	15013
909.3	14899
909.415	14864
909.531	14804
909.647	14594
909.762	14575
909.878	14499
909.993	14625
910.108	14560
910.224	14571
910.339	14514
910.454	14404
910.57	14514
910.685	14434
910.8	14549
910.915	14514
911.03	14362
911.145	14263
911.259	14206
911.374	14282
911.489	14035
911.604	14107
911.718	13986
911.833	14058
911.947	13875
912.062	13868
912.176	13993
912.291	13936
912.405	13932
912.519	14176
912.633	14031
912.748	13955
912.862	13978
912.976	13788
913.09	13734
913.204	13742
913.318	13727
913.431	13875
913.545	13871
913.659	13970
913.772	13868
913.886	13776
914	13639
914.113	13738
914.226	13807
914.34	13841
914.453	13552
914.566	13712
914.68	13632
914.793	13605
914.906	13350
915.019	13327
915.132	13236
915.245	13289
915.358	13358
915.47	13388
915.583	13316
915.696	13384
915.809	13537
915.921	13487
916.034	13297
916.146	13312
916.259	13289
916.371	13312
916.483	13388
916.595	13107
916.708	13225
916.82	13225
916.932	13217
917.044	13240
917.156	13198
917.268	12985
917.38	13099
917.491	13053
917.603	13099
917.715	13179
917.826	13152
917.938	12947
918.049	12840
918.161	13050
918.272	13129
918.384	13118
918.495	13004
918.606	12837
918.717	12814
918.828	12730
918.939	12852
919.05	12806
919.161	12764
919.272	12593
919.383	12696
919.494	12867
919.604	13004
919.715	12821
919.826	12749
919.936	12696
920.047	12821
920.157	12795
920.267	13027
920.378	12859
920.488	12806
920.598	13038
920.708	13084
920.818	12962
920.928	12848
921.038	13152
921.148	12996
921.258	12814
921.368	12738
921.477	12525
921.587	12464
921.697	12414
921.806	12776
921.916	12372
922.025	12247
922.134	12235
922.244	12254
922.353	12178
922.462	12068
922.571	12041
922.68	11882
922.789	11870
922.898	11920
923.007	11783
923.116	11874
923.224	11794
923.333	11786
923.442	11741
923.55	11726
923.659	11729
923.767	11786
923.876	11665
923.984	11653
924.092	11596
924.201	11726
924.309	11665
924.417	11642
924.525	11528
924.633	11653
924.741	12323
924.849	11410
924.956	11623
925.064	11360
925.172	11284
925.279	11356
925.387	11360
925.494	11387
925.602	11490
925.709	11402
925.816	11227
925.924	11318
926.031	11391
926.138	11368
926.245	11376
926.352	11364
926.459	11417
926.566	11376
926.673	11261
926.779	11117
926.886	11143
926.993	11010
927.099	10984
927.206	10980
927.312	10972
927.419	10984
927.525	10991
927.631	11124
927.737	10892
927.843	10896
927.95	10710
928.056	10866
928.162	10900
928.267	10923
928.373	11368
928.479	11029
928.585	10675
928.69	10839
928.796	10873
928.901	10702
929.007	10634
929.112	10668
929.218	10660
929.323	10706
929.428	10603
929.533	10759
929.638	10584
929.743	10611
929.848	10653
929.953	10596
930.058	10500
930.163	10329
930.267	10341
930.372	10459
930.477	10284
930.581	10481
930.685	10371
930.79	10177
930.894	10280
930.998	10169
931.103	10333
931.207	9956
931.311	9888
931.415	9831
931.519	9618
931.623	9644
