Data from test_V78500241_2783.txt Node
Date: Fri Mar 25 14:53:05 CST 2022
User: usil
Spectrometer: V785-0024
Trigger mode: 0
Integration Time (sec): 4.000000E-1
Scans to average: 1
Nonlinearity correction enabled: false
Boxcar width: 0
Storing dark spectrum: false
XAxis mode: Wavelengths
Number of Pixels in Spectrum: 1024
>>>>>Begin Spectral Data<<<<<
801.071	22029
801.214	21930
801.356	21770
801.499	21641
801.641	21450
801.783	21382
801.926	21405
802.068	21359
802.211	21336
802.353	21184
802.496	20910
802.638	20941
802.78	20765
802.923	20887
803.065	20705
803.208	20720
803.35	20845
803.492	20842
803.635	20872
803.777	20644
803.919	20826
804.061	21028
804.204	20758
804.346	20663
804.488	20701
804.63	20807
804.773	20511
804.915	20655
805.057	20807
805.199	20568
805.341	20648
805.483	20758
805.626	20773
805.768	20606
805.91	20613
806.052	20720
806.194	20568
806.336	20929
806.478	20617
806.62	20530
806.762	20727
806.904	20834
807.046	21051
807.188	20982
807.33	20933
807.472	20937
807.614	20948
807.756	20899
807.898	20815
808.04	20708
808.182	20693
808.324	20686
808.465	20796
808.607	20845
808.749	21123
808.891	20933
809.033	21116
809.174	21055
809.316	21043
809.458	21036
809.6	20861
809.741	21039
809.883	21081
810.025	21138
810.166	21123
810.308	21199
810.45	21131
810.591	21028
810.733	20994
810.875	20785
811.016	20712
811.158	20712
811.299	20796
811.441	20864
811.582	20765
811.724	20644
811.865	20705
812.007	20712
812.148	20826
812.29	20769
812.431	20910
812.573	20921
812.714	21135
812.855	21176
812.997	21298
813.138	21469
813.279	21336
813.421	21283
813.562	21245
813.703	20967
813.845	20792
813.986	20651
814.127	20518
814.268	20503
814.41	20389
814.551	20282
814.692	20499
814.833	20153
814.974	20229
815.115	20400
815.256	20115
815.397	20157
815.539	20210
815.68	20046
815.821	19974
815.962	20111
816.103	19947
816.244	19818
816.385	19772
816.526	19757
816.666	19715
816.807	19365
816.948	19552
817.089	19529
817.23	19582
817.371	19400
817.512	19426
817.653	19472
817.793	19354
817.934	19411
818.075	19354
818.216	19419
818.356	19301
818.497	19168
818.638	19107
818.778	19148
818.919	19152
819.06	19202
819.2	19107
819.341	19225
819.481	19335
819.622	19396
819.762	19635
819.903	19571
820.043	19445
820.184	19506
820.324	19457
820.465	19472
820.605	19502
820.746	19358
820.886	19346
821.026	19407
821.167	19369
821.307	19426
821.447	19407
821.588	19194
821.728	19088
821.868	19027
822.008	18875
822.149	18878
822.289	18749
822.429	18574
822.569	18460
822.709	18441
822.849	18311
822.99	18327
823.13	18254
823.27	18311
823.41	18235
823.55	18140
823.69	18148
823.83	18235
823.97	18136
824.11	17813
824.25	17840
824.389	17904
824.529	18007
824.669	17882
824.809	18053
824.949	18011
825.089	18098
825.228	17878
825.368	17729
825.508	17714
825.648	17729
825.787	17767
825.927	17722
826.067	17718
826.206	17691
826.346	17707
826.485	17790
826.625	17570
826.765	17832
826.904	17779
827.044	17505
827.183	17459
827.323	17410
827.462	17398
827.601	17364
827.741	17322
827.88	17311
828.02	17303
828.159	17452
828.298	17379
828.437	17444
828.577	17410
828.716	17482
828.855	17322
828.994	17117
829.134	17079
829.273	17170
829.412	17090
829.551	17159
829.69	17143
829.829	17121
829.968	17193
830.107	17239
830.246	17136
830.385	17029
830.524	17003
830.663	16850
830.802	16752
830.941	16691
831.08	16717
831.219	16774
831.357	16744
831.496	16999
831.635	16698
831.774	16637
831.913	16626
832.051	16500
832.19	16538
832.329	16508
832.467	16459
832.606	16382
832.744	16428
832.883	16489
833.022	16413
833.16	16413
833.299	16531
833.437	16531
833.576	16580
833.714	16466
833.852	16523
833.991	16478
834.129	16569
834.267	16481
834.406	16569
834.544	16500
834.682	16512
834.821	16599
834.959	16622
835.097	16523
835.235	16485
835.373	16478
835.511	16512
835.65	16356
835.788	16371
835.926	16230
836.064	16276
836.202	16249
836.34	16485
836.478	16523
836.615	16470
836.753	16481
836.891	16481
837.029	16508
837.167	16344
837.305	16386
837.443	16379
837.58	16249
837.718	16405
837.856	16272
837.993	16242
838.131	16303
838.269	16257
838.406	16295
838.544	16109
838.681	16013
838.819	15949
838.956	15781
839.094	15911
839.231	15888
839.369	16036
839.506	16223
839.643	16010
839.781	15770
839.918	15789
840.055	15835
840.193	15679
840.33	15732
840.467	15873
840.604	15842
840.742	16120
840.879	15644
841.016	15816
841.153	15717
841.29	15979
841.427	15793
841.564	15869
841.701	15865
841.838	15751
841.975	15686
842.112	15774
842.249	15743
842.385	15584
842.522	15766
842.659	15755
842.796	15599
842.933	15568
843.069	15637
843.206	15496
843.343	15599
843.479	15671
843.616	15679
843.752	15462
843.889	15363
844.025	15553
844.162	15382
844.298	15511
844.435	15389
844.571	15439
844.708	15439
844.844	15584
844.98	15504
845.117	15584
845.253	15264
845.389	15298
845.525	15329
845.661	15222
845.798	15024
845.934	15218
846.07	15241
846.206	15249
846.342	15325
846.478	15222
846.614	15104
846.75	14929
846.886	14925
847.022	15112
847.158	14941
847.294	15005
847.429	14998
847.565	14967
847.701	15176
847.837	14727
847.972	14746
848.108	14830
848.244	14811
848.379	14617
848.515	14499
848.65	14556
848.786	14541
848.921	14617
849.057	14712
849.192	14648
849.328	14674
849.463	14636
849.598	14434
849.734	14450
849.869	14473
850.004	14347
850.14	14385
850.275	14427
850.41	14271
850.545	14290
850.68	14298
850.815	14294
850.95	14377
851.085	14507
851.22	14465
851.355	14339
851.49	14347
851.625	14309
851.76	14313
851.895	14233
852.03	14233
852.165	14290
852.299	14461
852.434	14324
852.569	14400
852.703	14351
852.838	14423
852.973	14450
853.107	14476
853.242	14324
853.376	14248
853.511	14096
853.645	14210
853.78	14244
853.914	14267
854.048	14191
854.183	14115
854.317	14164
854.451	14370
854.585	14058
854.72	14237
854.854	14229
854.988	14221
855.122	14290
855.256	14107
855.39	14259
855.524	14309
855.658	14278
855.792	14233
855.926	14240
856.06	14275
856.194	14259
856.327	14256
856.461	14069
856.595	14092
856.729	14244
856.862	14393
856.996	14225
857.13	14206
857.263	14294
857.397	14305
857.53	14111
857.664	14225
857.797	14301
857.931	14339
858.064	14225
858.197	14358
858.331	14195
858.464	14195
858.597	14111
858.731	14134
858.864	14225
858.997	14183
859.13	14244
859.263	14161
859.396	14374
859.529	14126
859.662	14214
859.795	14195
859.928	14271
860.061	14408
860.194	14381
860.327	14191
860.46	14161
860.592	14267
860.725	14385
860.858	14336
860.99	14142
861.123	14088
861.256	14187
861.388	14214
861.521	14883
861.653	14039
861.786	14043
861.918	14084
862.05	14183
862.183	14237
862.315	14229
862.447	14256
862.58	14183
862.712	14031
862.844	13902
862.976	14016
863.108	14073
863.24	14480
863.372	13898
863.504	13982
863.636	13986
863.768	14039
863.9	13982
864.032	13841
864.164	14020
864.296	14050
864.428	14054
864.559	14039
864.691	14077
864.823	14096
864.954	14069
865.086	14084
865.217	13970
865.349	13917
865.48	14001
865.612	13993
865.743	14100
865.875	14073
866.006	13967
866.137	14058
866.269	13868
866.4	13951
866.531	13868
866.662	13898
866.793	13913
866.924	13989
867.055	13959
867.186	13967
867.317	13879
867.448	13902
867.579	13921
867.71	13871
867.841	13788
867.972	13982
868.103	13970
868.233	14043
868.364	14069
868.495	14058
868.625	14142
868.756	14454
868.886	14164
869.017	14248
869.147	14332
869.278	14244
869.408	14191
869.539	14225
869.669	14298
869.799	14294
869.929	14427
870.06	14412
870.19	14606
870.32	14610
870.45	14469
870.58	14610
870.71	14754
870.84	14701
870.97	14693
871.1	14610
871.23	14819
871.36	14914
871.489	14777
871.619	14861
871.749	14823
871.879	14826
872.008	14811
872.138	14857
872.267	14804
872.397	14659
872.526	14682
872.656	14613
872.785	14655
872.915	14952
873.044	14925
873.173	14883
873.303	14834
873.432	14967
873.561	15024
873.69	14826
873.819	14849
873.948	14982
874.077	14910
874.206	14758
874.335	14819
874.464	15032
874.593	15108
874.722	15070
874.851	15233
874.979	15233
875.108	15214
875.237	15146
875.365	15039
875.494	15142
875.623	15340
875.751	15142
875.88	15287
876.008	15275
876.136	15370
876.265	15652
876.393	15759
876.521	15739
876.65	15641
876.778	15576
876.906	15622
877.034	15549
877.162	15618
877.29	15587
877.418	15610
877.546	15618
877.674	15641
877.802	15694
877.93	15667
878.058	15637
878.185	15553
878.313	15557
878.441	15603
878.568	15515
878.696	15576
878.824	15690
878.951	15584
879.079	15797
879.206	15964
879.333	15838
879.461	15705
879.588	15625
879.715	15888
879.842	15895
879.97	15732
880.097	15488
880.224	15496
880.351	15466
880.478	15458
880.605	15386
880.732	15439
880.859	15728
880.986	15424
881.112	15511
881.239	15351
881.366	15173
881.493	15188
881.619	15135
881.746	15154
881.872	15066
881.999	15108
882.125	15047
882.252	15157
882.378	15081
882.505	15173
882.631	15032
882.757	15001
882.883	15017
883.01	15066
883.136	14800
883.262	14796
883.388	14746
883.514	14998
883.64	14941
883.766	14937
883.892	14739
884.018	14849
884.143	14948
884.269	15013
884.395	14705
884.52	14712
884.646	14629
884.772	14511
884.897	14560
885.023	14606
885.148	14868
885.274	14765
885.399	14758
885.524	14594
885.65	14716
885.775	14644
885.9	14750
886.025	14785
886.15	14727
886.275	14571
886.4	14495
886.525	14655
886.65	14514
886.775	14598
886.9	14724
887.025	14895
887.149	14674
887.274	14473
887.399	14381
887.523	14480
887.648	14488
887.773	14400
887.897	14476
888.021	14575
888.146	14412
888.27	14587
888.395	14541
888.519	14583
888.643	14571
888.767	14549
888.891	14423
889.015	14385
889.139	14415
889.263	14320
889.387	14503
889.511	14545
889.635	14366
889.759	14313
889.883	14370
890.006	14313
890.13	14404
890.254	14259
890.377	14309
890.501	14134
890.624	14115
890.748	14210
890.871	14077
890.995	14039
891.118	13963
891.241	14050
891.364	13944
891.488	14164
891.611	14008
891.734	14035
891.857	14054
891.98	14153
892.103	14100
892.226	14123
892.349	14077
892.471	13826
892.594	14001
892.717	14058
892.839	13959
892.962	14039
893.085	14157
893.207	14084
893.33	13909
893.452	13928
893.575	14115
893.697	13974
893.819	14187
893.941	14298
894.064	14187
894.186	13970
894.308	14062
894.43	14107
894.552	14229
894.674	14161
894.796	14084
894.918	14123
895.04	13982
895.161	14214
895.283	14221
895.405	14126
895.526	14123
895.648	14096
895.769	14229
895.891	14210
896.012	14282
896.134	14286
896.255	14172
896.376	14244
896.498	14275
896.619	14275
896.74	14294
896.861	14225
896.982	14514
897.103	14785
897.224	14583
897.345	14511
897.466	14366
897.587	14434
897.708	14575
897.828	14568
897.949	14476
898.07	14282
898.19	14434
898.311	14648
898.431	14503
898.552	14610
898.672	14644
898.792	14739
898.913	14568
899.033	14507
899.153	14351
899.273	14244
899.393	14385
899.513	14400
899.633	14347
899.753	14495
899.873	14381
899.993	14492
900.113	14442
900.232	14457
900.352	14434
900.472	14324
900.591	14138
900.711	14267
900.83	14275
900.95	14328
901.069	14294
901.189	14218
901.308	14039
901.427	13997
901.546	13940
901.665	14039
901.784	13955
901.904	13852
902.023	13700
902.141	13624
902.26	13495
902.379	13674
902.498	13514
902.617	13556
902.735	13586
902.854	13537
902.973	13468
903.091	13327
903.21	13221
903.328	13312
903.446	13194
903.565	13122
903.683	13160
903.801	13042
903.919	13038
904.038	13031
904.156	12909
904.274	13004
904.392	12894
904.51	12920
904.627	12932
904.745	13065
904.863	13053
904.981	12673
905.098	12639
905.216	12623
905.334	12665
905.451	12578
905.569	12589
905.686	12620
905.803	12662
905.921	12376
906.038	12540
906.155	12498
906.272	12285
906.389	12391
906.506	12194
906.623	12197
906.74	12197
906.857	12079
906.974	12171
907.091	12277
907.208	12384
907.324	12281
907.441	12175
907.557	11969
907.674	11863
907.79	11874
907.907	11912
908.023	11984
908.139	11961
908.256	11939
908.372	11863
908.488	11840
908.604	11767
908.72	11634
908.836	11703
908.952	11627
909.068	11729
909.184	11817
909.3	11684
909.415	11756
909.531	11691
909.647	11474
909.762	11520
909.878	11512
909.993	11440
910.108	11467
910.224	11440
910.339	11471
910.454	11493
910.57	11303
910.685	11216
910.8	11558
910.915	11459
911.03	11376
911.145	11147
911.259	11181
911.374	11231
911.489	11151
911.604	11045
911.718	10904
911.833	10946
911.947	10889
912.062	10812
912.176	10934
912.291	11018
912.405	10900
912.519	11128
912.633	11212
912.748	11014
912.862	10991
912.976	10866
913.09	10687
913.204	10797
913.318	10873
913.431	10915
913.545	10953
913.659	10953
913.772	10790
913.886	10740
914	10653
914.113	10793
914.226	10824
914.34	10733
914.453	10653
914.566	10733
914.68	10637
914.793	10626
914.906	10470
915.019	10440
915.132	10405
915.245	10394
915.358	10436
915.47	10550
915.583	10470
915.696	10497
915.809	10550
915.921	10637
916.034	10363
916.146	10440
916.259	10322
916.371	10474
916.483	10489
916.595	10329
916.708	10466
916.82	10367
916.932	10318
917.044	10356
917.156	10314
917.268	10325
917.38	10341
917.491	10253
917.603	10325
917.715	10386
917.826	10405
917.938	10295
918.049	10181
918.161	10344
918.272	10455
918.384	10421
918.495	10382
918.606	10181
918.717	10082
918.828	10215
918.939	10227
919.05	10135
919.161	10147
919.272	9892
919.383	10021
919.494	10223
919.604	10405
919.715	10154
919.826	10131
919.936	10204
920.047	10185
920.157	10192
920.267	10443
920.378	10227
920.488	10147
920.598	10303
920.708	10527
920.818	10367
920.928	10413
921.038	10554
921.148	10382
921.258	10207
921.368	10154
921.477	10040
921.587	10048
921.697	9888
921.806	10078
921.916	9968
922.025	9812
922.134	9743
922.244	9694
922.353	9793
922.462	9675
922.571	9599
922.68	9412
922.789	9374
922.898	9435
923.007	9374
923.116	9477
923.224	9351
923.333	9401
923.442	9332
923.55	9348
923.659	9256
923.767	9443
923.876	9294
923.984	9348
924.092	9199
924.201	9340
924.309	9279
924.417	9344
924.525	9260
924.633	9348
924.741	9956
924.849	9097
924.956	9207
925.064	9058
925.172	8948
925.279	9036
925.387	9142
925.494	9135
925.602	9233
925.709	9188
925.816	9039
925.924	9081
926.031	9233
926.138	9036
926.245	9093
926.352	9036
926.459	9157
926.566	9176
926.673	9039
926.779	8929
926.886	8868
926.993	8914
927.099	8788
927.206	8762
927.312	8735
927.419	8811
927.525	8842
927.631	8891
927.737	8731
927.843	8716
927.95	8625
928.056	8674
928.162	8689
928.267	8800
928.373	9351
928.479	8788
928.585	8636
928.69	8746
928.796	8762
928.901	8659
929.007	8461
929.112	8602
929.218	8708
929.323	8545
929.428	8579
929.533	8689
929.638	8469
929.743	8507
929.848	8492
929.953	8488
930.058	8454
930.163	8301
930.267	8301
930.372	8396
930.477	8267
930.581	8488
930.685	8381
930.79	8290
930.894	8301
930.998	8176
931.103	8351
931.207	8046
931.311	7936
931.415	7940
931.519	7727
931.623	7723
