Data from test_V78500241_2962.txt Node
Date: Fri Mar 25 14:54:20 CST 2022
User: usil
Spectrometer: V785-0024
Trigger mode: 0
Integration Time (sec): 4.000000E-1
Scans to average: 1
Nonlinearity correction enabled: false
Boxcar width: 0
Storing dark spectrum: false
XAxis mode: Wavelengths
Number of Pixels in Spectrum: 1024
>>>>>Begin Spectral Data<<<<<
801.071	22150
801.214	21888
801.356	21717
801.499	21679
801.641	21450
801.783	21454
801.926	21386
802.068	21428
802.211	21363
802.353	21173
802.496	21058
802.638	20952
802.78	20838
802.923	20739
803.065	20826
803.208	20712
803.35	20811
803.492	20826
803.635	20887
803.777	20838
803.919	20785
804.061	21112
804.204	20925
804.346	20731
804.488	20735
804.63	20674
804.773	20613
804.915	20663
805.057	20800
805.199	20754
805.341	20636
805.483	20769
805.626	20716
805.768	20644
805.91	20735
806.052	20868
806.194	20545
806.336	20933
806.478	20674
806.62	20609
806.762	20815
806.904	20864
807.046	21199
807.188	21036
807.33	20986
807.472	21135
807.614	20861
807.756	20914
807.898	20716
808.04	20781
808.182	20788
808.324	20830
808.465	20876
808.607	20925
808.749	21066
808.891	21176
809.033	21222
809.174	21199
809.316	21051
809.458	21074
809.6	21020
809.741	21176
809.883	21131
810.025	21256
810.166	21138
810.308	21218
810.45	21100
810.591	21093
810.733	20883
810.875	20910
811.016	20826
811.158	20804
811.299	20834
811.441	20982
811.582	20925
811.724	20807
811.865	20838
812.007	20834
812.148	20796
812.29	20796
812.431	20952
812.573	21173
812.714	21302
812.855	21348
812.997	21374
813.138	21625
813.279	21591
813.421	21275
813.562	21321
813.703	21116
813.845	20967
813.986	20670
814.127	20446
814.268	20469
814.41	20305
814.551	20408
814.692	20446
814.833	20328
814.974	20317
815.115	20419
815.256	20256
815.397	20267
815.539	20275
815.68	20229
815.821	19986
815.962	20199
816.103	20138
816.244	19955
816.385	19925
816.526	19761
816.666	19674
816.807	19491
816.948	19582
817.089	19468
817.23	19597
817.371	19582
817.512	19510
817.653	19533
817.793	19483
817.934	19419
818.075	19559
818.216	19487
818.356	19407
818.497	19293
818.638	19320
818.778	19175
818.919	19240
819.06	19232
819.2	19343
819.341	19438
819.481	19411
819.622	19506
819.762	19670
819.903	19582
820.043	19616
820.184	19514
820.324	19384
820.465	19578
820.605	19411
820.746	19544
820.886	19289
821.026	19453
821.167	19453
821.307	19521
821.447	19324
821.588	19369
821.728	19088
821.868	19114
822.008	18859
822.149	18901
822.289	18886
822.429	18627
822.569	18582
822.709	18631
822.849	18437
822.99	18384
823.13	18350
823.27	18338
823.41	18266
823.55	18095
823.69	18254
823.83	18216
823.97	18098
824.11	17931
824.25	18049
824.389	17874
824.529	18102
824.669	17992
824.809	18121
824.949	17992
825.089	18045
825.228	17999
825.368	17779
825.508	17809
825.648	17794
825.787	17718
825.927	17870
826.067	17741
826.206	17642
826.346	17783
826.485	17722
826.625	17737
826.765	17805
826.904	17722
827.044	17570
827.183	17493
827.323	17467
827.462	17581
827.601	17505
827.741	17467
827.88	17524
828.02	17318
828.159	17376
828.298	17372
828.437	17497
828.577	17429
828.716	17581
828.855	17395
828.994	17178
829.134	17220
829.273	17151
829.412	17159
829.551	17136
829.69	17189
829.829	17220
829.968	17303
830.107	17162
830.246	17159
830.385	17098
830.524	17102
830.663	17022
830.802	16904
830.941	16816
831.08	16740
831.219	16854
831.357	16889
831.496	16972
831.635	16721
831.774	16729
831.913	16748
832.051	16504
832.19	16554
832.329	16584
832.467	16573
832.606	16382
832.744	16569
832.883	16443
833.022	16470
833.16	16489
833.299	16550
833.437	16538
833.576	16519
833.714	16523
833.852	16500
833.991	16577
834.129	16596
834.267	16558
834.406	16512
834.544	16615
834.682	16615
834.821	16504
834.959	16645
835.097	16607
835.235	16615
835.373	16497
835.511	16554
835.65	16348
835.788	16341
835.926	16310
836.064	16188
836.202	16352
836.34	16478
836.478	16565
836.615	16333
836.753	16443
836.891	16538
837.029	16474
837.167	16325
837.305	16421
837.443	16287
837.58	16249
837.718	16348
837.856	16310
837.993	16173
838.131	16421
838.269	16143
838.406	16192
838.544	16158
838.681	15956
838.819	16010
838.956	15808
839.094	15804
839.231	15975
839.369	15934
839.506	16295
839.643	16013
839.781	15903
839.918	15865
840.055	15892
840.193	15797
840.33	15816
840.467	15835
840.604	15865
840.742	16067
840.879	15660
841.016	15743
841.153	15812
841.29	16090
841.427	15846
841.564	15846
841.701	15804
841.838	15739
841.975	15694
842.112	15766
842.249	15580
842.385	15538
842.522	15800
842.659	15606
842.796	15530
842.933	15542
843.069	15614
843.206	15576
843.343	15542
843.479	15568
843.616	15686
843.752	15397
843.889	15439
844.025	15549
844.162	15351
844.298	15553
844.435	15374
844.571	15355
844.708	15424
844.844	15618
844.98	15553
845.117	15481
845.253	15329
845.389	15291
845.525	15370
845.661	15287
845.798	15241
845.934	15195
846.07	15123
846.206	15313
846.342	15306
846.478	15180
846.614	14979
846.75	14921
846.886	14921
847.022	15005
847.158	14971
847.294	14899
847.429	15028
847.565	14960
847.701	15127
847.837	14762
847.972	14720
848.108	14804
848.244	14762
848.379	14583
848.515	14530
848.65	14461
848.786	14602
848.921	14537
849.057	14739
849.192	14724
849.328	14583
849.463	14674
849.598	14571
849.734	14473
849.869	14473
850.004	14343
850.14	14404
850.275	14343
850.41	14145
850.545	14339
850.68	14275
850.815	14320
850.95	14294
851.085	14484
851.22	14434
851.355	14343
851.49	14263
851.625	14301
851.76	14267
851.895	14202
852.03	14130
852.165	14351
852.299	14324
852.434	14351
852.569	14385
852.703	14309
852.838	14450
852.973	14454
853.107	14545
853.242	14237
853.376	14183
853.511	14065
853.645	14161
853.78	14362
853.914	14183
854.048	14096
854.183	14100
854.317	14290
854.451	14396
854.585	14126
854.72	14176
854.854	14347
854.988	14111
855.122	14195
855.256	14012
855.39	14218
855.524	14256
855.658	14248
855.792	14275
855.926	14225
856.06	14233
856.194	14278
856.327	14275
856.461	14149
856.595	14138
856.729	14248
856.862	14351
856.996	14244
857.13	14252
857.263	14339
857.397	14324
857.53	14309
857.664	14240
857.797	14225
857.931	14332
858.064	14180
858.197	14301
858.331	14164
858.464	14069
858.597	14035
858.731	14278
858.864	14187
858.997	14145
859.13	14202
859.263	14142
859.396	14317
859.529	14202
859.662	14225
859.795	14183
859.928	14225
860.061	14362
860.194	14332
860.327	14206
860.46	14180
860.592	14385
860.725	14343
860.858	14339
860.99	14161
861.123	14138
861.256	14153
861.388	14111
861.521	14876
861.653	14100
861.786	13963
861.918	14024
862.05	14100
862.183	14221
862.315	14263
862.447	14191
862.58	14115
862.712	13993
862.844	13909
862.976	14084
863.108	14065
863.24	14358
863.372	13928
863.504	14058
863.636	13974
863.768	14020
863.9	13974
864.032	13909
864.164	14016
864.296	13982
864.428	14043
864.559	13993
864.691	14020
864.823	14024
864.954	14001
865.086	13989
865.217	14103
865.349	13951
865.48	13944
865.612	14096
865.743	14008
865.875	13978
866.006	13890
866.137	14039
866.269	14001
866.4	13967
866.531	13959
866.662	13925
866.793	13932
866.924	13868
867.055	14001
867.186	13932
867.317	14035
867.448	13833
867.579	13928
867.71	13833
867.841	13890
867.972	14054
868.103	13986
868.233	13974
868.364	13970
868.495	14081
868.625	14092
868.756	14286
868.886	14103
869.017	14088
869.147	14366
869.278	14294
869.408	14218
869.539	14153
869.669	14275
869.799	14176
869.929	14309
870.06	14214
870.19	14511
870.32	14533
870.45	14537
870.58	14594
870.71	14667
870.84	14705
870.97	14568
871.1	14617
871.23	14807
871.36	14891
871.489	14716
871.619	14838
871.749	14765
871.879	14804
872.008	14933
872.138	14872
872.267	14785
872.397	14678
872.526	14663
872.656	14625
872.785	14758
872.915	14788
873.044	14868
873.173	14883
873.303	14986
873.432	14929
873.561	14895
873.69	14975
873.819	14792
873.948	15013
874.077	14902
874.206	14845
874.335	14880
874.464	15005
874.593	15176
874.722	15112
874.851	15226
874.979	15218
875.108	15207
875.237	15192
875.365	15051
875.494	15138
875.623	15252
875.751	15256
875.88	15268
876.008	15344
876.136	15348
876.265	15606
876.393	15660
876.521	15709
876.65	15736
876.778	15698
876.906	15564
877.034	15424
877.162	15450
877.29	15515
877.418	15553
877.546	15496
877.674	15564
877.802	15595
877.93	15660
878.058	15568
878.185	15477
878.313	15606
878.441	15603
878.568	15454
878.696	15591
878.824	15587
878.951	15709
879.079	15736
879.206	15968
879.333	15701
879.461	15545
879.588	15759
879.715	15709
879.842	15838
879.97	15644
880.097	15363
880.224	15469
880.351	15416
880.478	15519
880.605	15462
880.732	15389
880.859	15656
880.986	15435
881.112	15488
881.239	15405
881.366	15249
881.493	15100
881.619	15070
881.746	15127
881.872	15146
881.999	15001
882.125	15081
882.252	15184
882.378	15138
882.505	15180
882.631	15074
882.757	14834
882.883	14948
883.01	14967
883.136	14899
883.262	14731
883.388	14781
883.514	15017
883.64	14914
883.766	14845
883.892	14750
884.018	14807
884.143	14941
884.269	15062
884.395	14674
884.52	14476
884.646	14552
884.772	14545
884.897	14571
885.023	14678
885.148	14739
885.274	14781
885.399	14697
885.524	14686
885.65	14583
885.775	14724
885.9	14629
886.025	14705
886.15	14693
886.275	14579
886.4	14431
886.525	14617
886.65	14594
886.775	14625
886.9	14769
887.025	14891
887.149	14644
887.274	14484
887.399	14358
887.523	14560
887.648	14503
887.773	14374
887.897	14503
888.021	14507
888.146	14347
888.27	14530
888.395	14533
888.519	14503
888.643	14568
888.767	14571
888.891	14408
889.015	14324
889.139	14351
889.263	14244
889.387	14461
889.511	14526
889.635	14450
889.759	14290
889.883	14355
890.006	14415
890.13	14393
890.254	14267
890.377	14256
890.501	14107
890.624	14058
890.748	14256
890.871	14142
890.995	14016
891.118	13925
891.241	13951
891.364	14027
891.488	14084
891.611	13959
891.734	14016
891.857	14005
891.98	14012
892.103	14145
892.226	14043
892.349	13883
892.471	13917
892.594	13963
892.717	14058
892.839	13890
892.962	14046
893.085	14062
893.207	13944
893.33	13932
893.452	13932
893.575	14096
893.697	14081
893.819	14161
893.941	14271
894.064	14240
894.186	14012
894.308	13951
894.43	14183
894.552	14320
894.674	14176
894.796	13963
894.918	14145
895.04	14081
895.161	14168
895.283	14081
895.405	14050
895.526	14062
895.648	14016
895.769	14115
895.891	14176
896.012	14233
896.134	14278
896.255	14180
896.376	14248
896.498	14240
896.619	14267
896.74	14256
896.861	14237
896.982	14617
897.103	14762
897.224	14530
897.345	14431
897.466	14400
897.587	14492
897.708	14533
897.828	14469
897.949	14457
898.07	14263
898.19	14533
898.311	14632
898.431	14514
898.552	14503
898.672	14621
898.792	14674
898.913	14632
899.033	14434
899.153	14385
899.273	14358
899.393	14476
899.513	14412
899.633	14404
899.753	14393
899.873	14286
899.993	14533
900.113	14434
900.232	14480
900.352	14366
900.472	14381
900.591	14282
900.711	14294
900.83	14259
900.95	14446
901.069	14366
901.189	14100
901.308	14088
901.427	14020
901.546	13997
901.665	14058
901.784	13864
901.904	13818
902.023	13719
902.141	13476
902.26	13537
902.379	13613
902.498	13506
902.617	13445
902.735	13639
902.854	13529
902.973	13544
903.091	13362
903.21	13266
903.328	13381
903.446	13198
903.565	13084
903.683	13141
903.801	13103
903.919	13050
904.038	13038
904.156	12920
904.274	12989
904.392	12901
904.51	12878
904.627	12878
904.745	12916
904.863	12954
904.981	12715
905.098	12521
905.216	12688
905.334	12715
905.451	12585
905.569	12585
905.686	12604
905.803	12646
905.921	12323
906.038	12498
906.155	12369
906.272	12281
906.389	12380
906.506	12194
906.623	12243
906.74	12247
906.857	12163
906.974	12106
907.091	12247
907.208	12327
907.324	12232
907.441	12110
907.557	11908
907.674	11920
907.79	11790
907.907	11939
908.023	11939
908.139	11916
908.256	11878
908.372	11935
908.488	11817
908.604	11783
908.72	11668
908.836	11665
908.952	11748
909.068	11634
909.184	11863
909.3	11668
909.415	11767
909.531	11646
909.647	11608
909.762	11505
909.878	11391
909.993	11490
910.108	11493
910.224	11356
910.339	11493
910.454	11337
910.57	11353
910.685	11204
910.8	11608
910.915	11410
911.03	11368
911.145	11132
911.259	11159
911.374	11090
911.489	11098
911.604	11022
911.718	10987
911.833	10942
911.947	10824
912.062	10782
912.176	10824
912.291	10881
912.405	10987
912.519	11064
912.633	11124
912.748	10972
912.862	10911
912.976	10714
913.09	10736
913.204	10790
913.318	10824
913.431	10965
913.545	10828
913.659	10908
913.772	10820
913.886	10778
914	10618
914.113	10782
914.226	10793
914.34	10759
914.453	10599
914.566	10801
914.68	10706
914.793	10611
914.906	10443
915.019	10421
915.132	10363
915.245	10531
915.358	10417
915.47	10405
915.583	10386
915.696	10451
915.809	10542
915.921	10546
916.034	10402
916.146	10310
916.259	10413
916.371	10455
916.483	10523
916.595	10375
916.708	10421
916.82	10371
916.932	10371
917.044	10310
917.156	10276
917.268	10227
917.38	10276
917.491	10295
917.603	10303
917.715	10337
917.826	10261
917.938	10261
918.049	10238
918.161	10253
918.272	10481
918.384	10424
918.495	10325
918.606	10150
918.717	10048
918.828	10063
918.939	10112
919.05	10093
919.161	10124
919.272	9949
919.383	10029
919.494	10150
919.604	10352
919.715	10101
919.826	10010
919.936	10112
920.047	10207
920.157	10147
920.267	10348
920.378	10200
920.488	10181
920.598	10306
920.708	10573
920.818	10375
920.928	10428
921.038	10516
921.148	10546
921.258	10219
921.368	10112
921.477	10059
921.587	9987
921.697	9949
921.806	10101
921.916	9945
922.025	9747
922.134	9728
922.244	9724
922.353	9720
922.462	9561
922.571	9584
922.68	9416
922.789	9370
922.898	9462
923.007	9348
923.116	9469
923.224	9466
923.333	9416
923.442	9325
923.55	9329
923.659	9306
923.767	9317
923.876	9253
923.984	9359
924.092	9203
924.201	9207
924.309	9275
924.417	9287
924.525	9233
924.633	9287
924.741	10181
924.849	9062
924.956	9272
925.064	8994
925.172	8998
925.279	9051
925.387	9176
925.494	9135
925.602	9233
925.709	9119
925.816	9043
925.924	9135
926.031	9142
926.138	9047
926.245	9176
926.352	8994
926.459	9119
926.566	9127
926.673	8963
926.779	8960
926.886	8933
926.993	8800
927.099	8773
927.206	8693
927.312	8785
927.419	8819
927.525	8880
927.631	8906
927.737	8708
927.843	8651
927.95	8552
928.056	8617
928.162	8682
928.267	8663
928.373	9332
928.479	8659
928.585	8636
928.69	8670
928.796	8670
928.901	8533
929.007	8461
929.112	8632
929.218	8571
929.323	8556
929.428	8461
929.533	8632
929.638	8434
929.743	8488
929.848	8507
929.953	8480
930.058	8454
930.163	8282
930.267	8271
930.372	8400
930.477	8282
930.581	8499
930.685	8366
930.79	8294
930.894	8279
930.998	8191
931.103	8381
931.207	8024
931.311	7989
931.415	7917
931.519	7750
931.623	7757
