Data from test_V78500241_3538.txt Node
Date: Fri Mar 25 14:58:21 CST 2022
User: usil
Spectrometer: V785-0024
Trigger mode: 0
Integration Time (sec): 4.000000E-1
Scans to average: 1
Nonlinearity correction enabled: false
Boxcar width: 0
Storing dark spectrum: false
XAxis mode: Wavelengths
Number of Pixels in Spectrum: 1024
>>>>>Begin Spectral Data<<<<<
801.071	21926
801.214	21770
801.356	21481
801.499	21507
801.641	21298
801.783	21374
801.926	21294
802.068	21237
802.211	21051
802.353	21032
802.496	20872
802.638	20883
802.78	20708
802.923	20621
803.065	20629
803.208	20587
803.35	20613
803.492	20644
803.635	20701
803.777	20613
803.919	20663
804.061	21013
804.204	20716
804.346	20507
804.488	20511
804.63	20514
804.773	20480
804.915	20385
805.057	20518
805.199	20507
805.341	20556
805.483	20651
805.626	20518
805.768	20415
805.91	20476
806.052	20621
806.194	20351
806.336	20579
806.478	20522
806.62	20526
806.762	20514
806.904	20705
807.046	20914
807.188	20815
807.33	20826
807.472	20971
807.614	20735
807.756	20777
807.898	20541
808.04	20473
808.182	20655
808.324	20480
808.465	20545
808.607	20697
808.749	20868
808.891	20861
809.033	20986
809.174	20891
809.316	20800
809.458	20895
809.6	20781
809.741	20880
809.883	20929
810.025	20914
810.166	20956
810.308	20944
810.45	20933
810.591	20819
810.733	20785
810.875	20697
811.016	20598
811.158	20499
811.299	20663
811.441	20708
811.582	20667
811.724	20678
811.865	20644
812.007	20621
812.148	20511
812.29	20598
812.431	20689
812.573	20845
812.714	21112
812.855	21085
812.997	21058
813.138	21317
813.279	21203
813.421	21089
813.562	20929
813.703	20842
813.845	20705
813.986	20492
814.127	20393
814.268	20332
814.41	20298
814.551	20168
814.692	20282
814.833	20077
814.974	20054
815.115	20145
815.256	20024
815.397	20088
815.539	19883
815.68	19852
815.821	19890
815.962	19970
816.103	19879
816.244	19742
816.385	19658
816.526	19605
816.666	19400
816.807	19308
816.948	19327
817.089	19449
817.23	19411
817.371	19320
817.512	19244
817.653	19312
817.793	19213
817.934	19221
818.075	19225
818.216	19331
818.356	19297
818.497	19171
818.638	18913
818.778	18916
818.919	18939
819.06	18932
819.2	19065
819.341	19228
819.481	19194
819.622	19240
819.762	19419
819.903	19285
820.043	19301
820.184	19244
820.324	19289
820.465	19407
820.605	19247
820.746	19168
820.886	19103
821.026	19301
821.167	19236
821.307	19324
821.447	19209
821.588	19141
821.728	18894
821.868	18848
822.008	18627
822.149	18787
822.289	18684
822.429	18418
822.569	18296
822.709	18323
822.849	18254
822.99	18228
823.13	18079
823.27	18251
823.41	18038
823.55	17916
823.69	18019
823.83	18019
823.97	17878
824.11	17722
824.25	17756
824.389	17805
824.529	17760
824.669	17783
824.809	17821
824.949	17794
825.089	17805
825.228	17794
825.368	17505
825.508	17596
825.648	17608
825.787	17570
825.927	17554
826.067	17387
826.206	17490
826.346	17486
826.485	17554
826.625	17524
826.765	17623
826.904	17528
827.044	17387
827.183	17372
827.323	17208
827.462	17330
827.601	17212
827.741	17155
827.88	17269
828.02	17261
828.159	17197
828.298	17414
828.437	17208
828.577	17181
828.716	17250
828.855	17223
828.994	17079
829.134	16999
829.273	17064
829.412	16957
829.551	16911
829.69	17022
829.829	17010
829.968	17064
830.107	17052
830.246	16987
830.385	16965
830.524	16934
830.663	16653
830.802	16736
830.941	16592
831.08	16611
831.219	16668
831.357	16645
831.496	16820
831.635	16630
831.774	16554
831.913	16481
832.051	16523
832.19	16390
832.329	16443
832.467	16341
832.606	16169
832.744	16295
832.883	16249
833.022	16143
833.16	16318
833.299	16284
833.437	16223
833.576	16386
833.714	16299
833.852	16360
833.991	16295
834.129	16474
834.267	16375
834.406	16363
834.544	16421
834.682	16371
834.821	16398
834.959	16489
835.097	16360
835.235	16519
835.373	16356
835.511	16508
835.65	16360
835.788	16265
835.926	16215
836.064	16093
836.202	16211
836.34	16223
836.478	16371
836.615	16226
836.753	16344
836.891	16352
837.029	16356
837.167	16268
837.305	16234
837.443	16131
837.58	16124
837.718	16329
837.856	16219
837.993	16074
838.131	16207
838.269	16021
838.406	16169
838.544	16059
838.681	15899
838.819	15880
838.956	15770
839.094	15698
839.231	15778
839.369	15865
839.506	16082
839.643	16063
839.781	15747
839.918	15823
840.055	15690
840.193	15625
840.33	15652
840.467	15785
840.604	15770
840.742	16002
840.879	15500
841.016	15637
841.153	15656
841.29	15907
841.427	15778
841.564	15762
841.701	15751
841.838	15663
841.975	15549
842.112	15633
842.249	15458
842.385	15561
842.522	15701
842.659	15564
842.796	15511
842.933	15580
843.069	15435
843.206	15519
843.343	15587
843.479	15542
843.616	15526
843.752	15393
843.889	15386
844.025	15561
844.162	15412
844.298	15310
844.435	15237
844.571	15249
844.708	15344
844.844	15496
844.98	15572
845.117	15454
845.253	15256
845.389	15237
845.525	15252
845.661	15150
845.798	15074
845.934	15131
846.07	15104
846.206	15195
846.342	15264
846.478	15085
846.614	14914
846.75	14864
846.886	14815
847.022	14960
847.158	14925
847.294	14941
847.429	14960
847.565	14769
847.701	15108
847.837	14575
847.972	14530
848.108	14735
848.244	14670
848.379	14564
848.515	14434
848.65	14442
848.786	14480
848.921	14454
849.057	14507
849.192	14587
849.328	14549
849.463	14446
849.598	14461
849.734	14370
849.869	14282
850.004	14183
850.14	14339
850.275	14221
850.41	14180
850.545	14206
850.68	14252
850.815	14259
850.95	14191
851.085	14488
851.22	14362
851.355	14313
851.49	14275
851.625	14149
851.76	14244
851.895	14119
852.03	14084
852.165	14115
852.299	14290
852.434	14343
852.569	14320
852.703	14252
852.838	14248
852.973	14358
853.107	14358
853.242	14183
853.376	14134
853.511	13986
853.645	14039
853.78	14317
853.914	14145
854.048	14096
854.183	14024
854.317	14157
854.451	14339
854.585	14115
854.72	14088
854.854	14206
854.988	14024
855.122	14077
855.256	13974
855.39	14168
855.524	14130
855.658	14221
855.792	14157
855.926	14180
856.06	14119
856.194	14229
856.327	14142
856.461	14084
856.595	14035
856.729	14130
856.862	14168
856.996	14172
857.13	14237
857.263	14164
857.397	14191
857.53	14111
857.664	14081
857.797	14225
857.931	14115
858.064	14115
858.197	14176
858.331	14187
858.464	14134
858.597	14027
858.731	14107
858.864	14134
858.997	14115
859.13	14035
859.263	14206
859.396	14126
859.529	14145
859.662	14077
859.795	14024
859.928	14084
860.061	14358
860.194	14343
860.327	14145
860.46	14130
860.592	14187
860.725	14282
860.858	14313
860.99	14035
861.123	14005
861.256	14073
861.388	14176
861.521	14918
861.653	14008
861.786	13940
861.918	14050
862.05	14016
862.183	14020
862.315	14195
862.447	14065
862.58	14069
862.712	13936
862.844	13894
862.976	13944
863.108	14062
863.24	14252
863.372	13902
863.504	13803
863.636	13887
863.768	13970
863.9	13883
864.032	13898
864.164	13940
864.296	13974
864.428	13989
864.559	14005
864.691	13932
864.823	13913
864.954	13947
865.086	13925
865.217	13913
865.349	13795
865.48	13944
865.612	13833
865.743	14024
865.875	13856
866.006	13909
866.137	13940
866.269	13959
866.4	13909
866.531	13822
866.662	13841
866.793	13830
866.924	13826
867.055	13833
867.186	13875
867.317	13837
867.448	13712
867.579	13890
867.71	13856
867.841	13807
867.972	13826
868.103	13917
868.233	13856
868.364	13883
868.495	13883
868.625	14111
868.756	14233
868.886	14035
869.017	13986
869.147	14358
869.278	14202
869.408	14103
869.539	14172
869.669	14244
869.799	14164
869.929	14225
870.06	14305
870.19	14552
870.32	14415
870.45	14431
870.58	14590
870.71	14617
870.84	14670
870.97	14533
871.1	14499
871.23	14708
871.36	14750
871.489	14590
871.619	14705
871.749	14712
871.879	14792
872.008	14811
872.138	14834
872.267	14727
872.397	14587
872.526	14579
872.656	14590
872.785	14587
872.915	14705
873.044	14845
873.173	14804
873.303	14883
873.432	14739
873.561	14857
873.69	14697
873.819	14838
873.948	14868
874.077	14796
874.206	14796
874.335	14773
874.464	14914
874.593	15097
874.722	14982
874.851	15180
874.979	15097
875.108	15211
875.237	15138
875.365	15039
875.494	15104
875.623	15165
875.751	15062
875.88	15203
876.008	15344
876.136	15389
876.265	15561
876.393	15591
876.521	15698
876.65	15629
876.778	15481
876.906	15545
877.034	15473
877.162	15485
877.29	15386
877.418	15469
877.546	15591
877.674	15572
877.802	15492
877.93	15633
878.058	15534
878.185	15389
878.313	15515
878.441	15504
878.568	15374
878.696	15511
878.824	15568
878.951	15603
879.079	15686
879.206	15842
879.333	15774
879.461	15545
879.588	15671
879.715	15641
879.842	15857
879.97	15564
880.097	15450
880.224	15298
880.351	15382
880.478	15405
880.605	15431
880.732	15355
880.859	15614
880.986	15329
881.112	15469
881.239	15336
881.366	15195
881.493	15024
881.619	15020
881.746	14967
881.872	14960
881.999	15009
882.125	15036
882.252	15116
882.378	15058
882.505	15279
882.631	14979
882.757	14880
882.883	14982
883.01	14864
883.136	14781
883.262	14743
883.388	14796
883.514	14910
883.64	14899
883.766	14678
883.892	14678
884.018	14659
884.143	14921
884.269	14933
884.395	14613
884.52	14533
884.646	14549
884.772	14530
884.897	14419
885.023	14568
885.148	14617
885.274	14743
885.399	14625
885.524	14571
885.65	14613
885.775	14564
885.9	14514
886.025	14735
886.15	14598
886.275	14503
886.4	14507
886.525	14499
886.65	14560
886.775	14571
886.9	14686
887.025	14731
887.149	14556
887.274	14415
887.399	14355
887.523	14385
887.648	14309
887.773	14374
887.897	14381
888.021	14400
888.146	14404
888.27	14488
888.395	14473
888.519	14408
888.643	14488
888.767	14476
888.891	14366
889.015	14309
889.139	14362
889.263	14176
889.387	14374
889.511	14396
889.635	14362
889.759	14218
889.883	14259
890.006	14275
890.13	14320
890.254	14172
890.377	14221
890.501	13959
890.624	13967
890.748	14107
890.871	13982
890.995	13871
891.118	13841
891.241	13947
891.364	13974
891.488	14111
891.611	13970
891.734	13932
891.857	13997
891.98	14031
892.103	14016
892.226	13947
892.349	14027
892.471	13795
892.594	13944
892.717	14027
892.839	13982
892.962	14073
893.085	14027
893.207	14001
893.33	13845
893.452	13951
893.575	14062
893.697	13951
893.819	14123
893.941	14126
894.064	14153
894.186	13875
894.308	13986
894.43	14157
894.552	14180
894.674	14119
894.796	14005
894.918	14054
895.04	14050
895.161	14111
895.283	14058
895.405	14039
895.526	14115
895.648	14062
895.769	14130
895.891	14221
896.012	14138
896.134	14187
896.255	14164
896.376	14039
896.498	14062
896.619	14100
896.74	14123
896.861	14298
896.982	14370
897.103	14598
897.224	14511
897.345	14415
897.466	14313
897.587	14362
897.708	14507
897.828	14522
897.949	14324
898.07	14347
898.19	14362
898.311	14526
898.431	14328
898.552	14457
898.672	14526
898.792	14568
898.913	14465
899.033	14511
899.153	14355
899.273	14240
899.393	14301
899.513	14339
899.633	14374
899.753	14347
899.873	14248
899.993	14286
900.113	14305
900.232	14374
900.352	14210
900.472	14240
900.591	14237
900.711	14168
900.83	14221
900.95	14294
901.069	14225
901.189	14016
901.308	13909
901.427	13860
901.546	13883
901.665	13955
901.784	13963
901.904	13742
902.023	13639
902.141	13544
902.26	13510
902.379	13571
902.498	13422
902.617	13316
902.735	13411
902.854	13468
902.973	13381
903.091	13293
903.21	13236
903.328	13255
903.446	13069
903.565	13072
903.683	12996
903.801	13019
903.919	13084
904.038	13099
904.156	12856
904.274	12943
904.392	12878
904.51	12897
904.627	12802
904.745	12916
904.863	12894
904.981	12707
905.098	12601
905.216	12540
905.334	12608
905.451	12498
905.569	12448
905.686	12650
905.803	12563
905.921	12369
906.038	12502
906.155	12410
906.272	12380
906.389	12327
906.506	12232
906.623	12285
906.74	12095
906.857	12034
906.974	12136
907.091	12266
907.208	12209
907.324	12194
907.441	11996
907.557	11950
907.674	11901
907.79	11851
907.907	11885
908.023	11958
908.139	11931
908.256	11798
908.372	11817
908.488	11840
908.604	11710
908.72	11619
908.836	11695
908.952	11596
909.068	11722
909.184	11790
909.3	11756
909.415	11718
909.531	11634
909.647	11482
909.762	11391
909.878	11471
909.993	11448
910.108	11478
910.224	11387
910.339	11554
910.454	11406
910.57	11372
910.685	11204
910.8	11516
910.915	11501
911.03	11379
911.145	11109
911.259	11181
911.374	11162
911.489	11079
911.604	11033
911.718	10927
911.833	10984
911.947	10820
912.062	10748
912.176	10847
912.291	10953
912.405	10915
912.519	11060
912.633	11136
912.748	10984
912.862	10987
912.976	10790
913.09	10622
913.204	10763
913.318	10843
913.431	10965
913.545	10866
913.659	10881
913.772	10801
913.886	10691
914	10649
914.113	10744
914.226	10839
914.34	10687
914.453	10577
914.566	10752
914.68	10611
914.793	10626
914.906	10443
915.019	10310
915.132	10299
915.245	10447
915.358	10470
915.47	10493
915.583	10481
915.696	10466
915.809	10615
915.921	10607
916.034	10371
916.146	10363
916.259	10360
916.371	10428
916.483	10398
916.595	10322
916.708	10344
916.82	10333
916.932	10375
917.044	10421
917.156	10325
917.268	10200
917.38	10291
917.491	10246
917.603	10272
917.715	10329
917.826	10440
917.938	10162
918.049	10150
918.161	10196
918.272	10485
918.384	10447
918.495	10276
918.606	10173
918.717	10063
918.828	10105
918.939	10150
919.05	10032
919.161	10147
919.272	10002
919.383	9960
919.494	10169
919.604	10322
919.715	10109
919.826	10074
919.936	10131
920.047	10215
920.157	10150
920.267	10363
920.378	10185
920.488	10116
920.598	10367
920.708	10500
920.818	10352
920.928	10291
921.038	10580
921.148	10512
921.258	10215
921.368	10124
921.477	10051
921.587	10059
921.697	9968
921.806	10044
921.916	9945
922.025	9740
922.134	9682
922.244	9637
922.353	9694
922.462	9572
922.571	9564
922.68	9500
922.789	9401
922.898	9412
923.007	9374
923.116	9412
923.224	9389
923.333	9435
923.442	9317
923.55	9313
923.659	9332
923.767	9370
923.876	9256
923.984	9393
924.092	9173
924.201	9317
924.309	9302
924.417	9260
924.525	9253
924.633	9253
924.741	10063
924.849	9017
924.956	9195
925.064	8998
925.172	8967
925.279	8982
925.387	9062
925.494	9028
925.602	9142
925.709	9047
925.816	9032
925.924	9077
926.031	9157
926.138	9051
926.245	9104
926.352	9013
926.459	9100
926.566	9150
926.673	9047
926.779	8990
926.886	8902
926.993	8796
927.099	8804
927.206	8716
927.312	8735
927.419	8807
927.525	8796
927.631	8834
927.737	8731
927.843	8667
927.95	8537
928.056	8667
928.162	8636
928.267	8727
928.373	9336
928.479	8842
928.585	8533
928.69	8708
928.796	8743
928.901	8587
929.007	8457
929.112	8571
929.218	8594
929.323	8457
929.428	8507
929.533	8587
929.638	8480
929.743	8495
929.848	8533
929.953	8514
930.058	8385
930.163	8282
930.267	8240
930.372	8423
930.477	8221
930.581	8484
930.685	8339
930.79	8214
930.894	8206
930.998	8256
931.103	8343
931.207	7955
931.311	7974
931.415	7963
931.519	7723
931.623	7765
