Data from test_V78500241_3505.txt Node
Date: Fri Mar 25 14:58:07 CST 2022
User: usil
Spectrometer: V785-0024
Trigger mode: 0
Integration Time (sec): 4.000000E-1
Scans to average: 1
Nonlinearity correction enabled: false
Boxcar width: 0
Storing dark spectrum: false
XAxis mode: Wavelengths
Number of Pixels in Spectrum: 1024
>>>>>Begin Spectral Data<<<<<
801.071	22006
801.214	21869
801.356	21747
801.499	21526
801.641	21370
801.783	21344
801.926	21450
802.068	21252
802.211	21233
802.353	21074
802.496	20750
802.638	20861
802.78	20800
802.923	20632
803.065	20587
803.208	20564
803.35	20682
803.492	20785
803.635	20762
803.777	20552
803.919	20609
804.061	21039
804.204	20663
804.346	20499
804.488	20518
804.63	20556
804.773	20549
804.915	20431
805.057	20533
805.199	20587
805.341	20507
805.483	20678
805.626	20655
805.768	20571
805.91	20423
806.052	20488
806.194	20328
806.336	20625
806.478	20492
806.62	20408
806.762	20575
806.904	20708
807.046	20785
807.188	20777
807.33	20838
807.472	20902
807.614	20857
807.756	20667
807.898	20625
808.04	20514
808.182	20560
808.324	20644
808.465	20545
808.607	20857
808.749	20963
808.891	21039
809.033	21074
809.174	20872
809.316	20804
809.458	20910
809.6	20815
809.741	20921
809.883	20773
810.025	21024
810.166	21108
810.308	21001
810.45	21036
810.591	20788
810.733	20834
810.875	20750
811.016	20621
811.158	20457
811.299	20765
811.441	20800
811.582	20800
811.724	20701
811.865	20564
812.007	20731
812.148	20663
812.29	20716
812.431	20895
812.573	20902
812.714	20975
812.855	21081
812.997	21283
813.138	21351
813.279	21245
813.421	21096
813.562	21074
813.703	20788
813.845	20686
813.986	20640
814.127	20298
814.268	20107
814.41	20149
814.551	20111
814.692	20225
814.833	20050
814.974	20187
815.115	20161
815.256	19947
815.397	19986
815.539	19921
815.68	19871
815.821	19864
815.962	19944
816.103	19852
816.244	19689
816.385	19658
816.526	19533
816.666	19552
816.807	19301
816.948	19388
817.089	19464
817.23	19362
817.371	19316
817.512	19392
817.653	19259
817.793	19285
817.934	19362
818.075	19324
818.216	19320
818.356	19137
818.497	19072
818.638	18897
818.778	19000
818.919	18989
819.06	19103
819.2	19126
819.341	19145
819.481	19251
819.622	19362
819.762	19487
819.903	19400
820.043	19331
820.184	19213
820.324	19255
820.465	19362
820.605	19407
820.746	19194
820.886	19206
821.026	19274
821.167	19187
821.307	19297
821.447	19244
821.588	19095
821.728	18989
821.868	18829
822.008	18753
822.149	18631
822.289	18604
822.429	18384
822.569	18300
822.709	18426
822.849	18133
822.99	18072
823.13	18201
823.27	18144
823.41	17980
823.55	17927
823.69	17935
823.83	18003
823.97	17988
824.11	17767
824.25	17805
824.389	17817
824.529	17798
824.669	17794
824.809	17847
824.949	17889
825.089	17832
825.228	17745
825.368	17573
825.508	17703
825.648	17680
825.787	17627
825.927	17638
826.067	17512
826.206	17490
826.346	17463
826.485	17554
826.625	17600
826.765	17733
826.904	17657
827.044	17318
827.183	17322
827.323	17155
827.462	17299
827.601	17242
827.741	17231
827.88	17277
828.02	17212
828.159	17170
828.298	17395
828.437	17368
828.577	17189
828.716	17353
828.855	17330
828.994	17098
829.134	17041
829.273	17060
829.412	17037
829.551	16927
829.69	17052
829.829	17071
829.968	17045
830.107	17052
830.246	17064
830.385	17025
830.524	16892
830.663	16908
830.802	16812
830.941	16694
831.08	16580
831.219	16702
831.357	16786
831.496	17006
831.635	16672
831.774	16611
831.913	16565
832.051	16500
832.19	16459
832.329	16489
832.467	16394
832.606	16234
832.744	16318
832.883	16318
833.022	16379
833.16	16341
833.299	16322
833.437	16344
833.576	16409
833.714	16432
833.852	16413
833.991	16398
834.129	16523
834.267	16558
834.406	16409
834.544	16485
834.682	16424
834.821	16405
834.959	16577
835.097	16371
835.235	16531
835.373	16504
835.511	16436
835.65	16394
835.788	16310
835.926	16249
836.064	16154
836.202	16226
836.34	16405
836.478	16360
836.615	16223
836.753	16360
836.891	16360
837.029	16459
837.167	16265
837.305	16223
837.443	16249
837.58	16169
837.718	16310
837.856	16295
837.993	16211
838.131	16226
838.269	16124
838.406	16166
838.544	16246
838.681	15972
838.819	15918
838.956	15675
839.094	15831
839.231	15827
839.369	15857
839.506	16109
839.643	16010
839.781	15793
839.918	15835
840.055	15816
840.193	15797
840.33	15698
840.467	15667
840.604	15781
840.742	15975
840.879	15629
841.016	15686
841.153	15800
841.29	15789
841.427	15831
841.564	15728
841.701	15667
841.838	15732
841.975	15587
842.112	15637
842.249	15485
842.385	15538
842.522	15679
842.659	15599
842.796	15454
842.933	15568
843.069	15431
843.206	15504
843.343	15599
843.479	15618
843.616	15572
843.752	15260
843.889	15329
844.025	15500
844.162	15336
844.298	15405
844.435	15313
844.571	15237
844.708	15348
844.844	15443
844.98	15447
845.117	15412
845.253	15298
845.389	15135
845.525	15291
845.661	15268
845.798	15058
845.934	15154
846.07	15161
846.206	15199
846.342	15302
846.478	15135
846.614	14918
846.75	14838
846.886	15013
847.022	14941
847.158	14921
847.294	14914
847.429	14960
847.565	14963
847.701	15062
847.837	14674
847.972	14545
848.108	14765
848.244	14670
848.379	14457
848.515	14461
848.65	14469
848.786	14499
848.921	14526
849.057	14613
849.192	14583
849.328	14571
849.463	14514
849.598	14461
849.734	14408
849.869	14374
850.004	14271
850.14	14256
850.275	14263
850.41	14145
850.545	14324
850.68	14290
850.815	14244
850.95	14298
851.085	14537
851.22	14351
851.355	14309
851.49	14252
851.625	14172
851.76	14275
851.895	14187
852.03	14153
852.165	14248
852.299	14259
852.434	14355
852.569	14374
852.703	14313
852.838	14305
852.973	14495
853.107	14358
853.242	14199
853.376	14271
853.511	14027
853.645	14084
853.78	14301
853.914	14229
854.048	14157
854.183	14157
854.317	14240
854.451	14385
854.585	14008
854.72	14020
854.854	14259
854.988	14058
855.122	14172
855.256	13917
855.39	14046
855.524	14294
855.658	14229
855.792	14035
855.926	14187
856.06	14244
856.194	14214
856.327	14191
856.461	14088
856.595	14088
856.729	14210
856.862	14199
856.996	14271
857.13	14161
857.263	14248
857.397	14210
857.53	14161
857.664	14176
857.797	14195
857.931	14210
858.064	14153
858.197	14290
858.331	14134
858.464	14069
858.597	14031
858.731	14107
858.864	14210
858.997	14206
859.13	14195
859.263	14183
859.396	14259
859.529	14180
859.662	14145
859.795	14115
859.928	14126
860.061	14358
860.194	14278
860.327	14180
860.46	14115
860.592	14237
860.725	14210
860.858	14263
860.99	14073
861.123	14138
861.256	14031
861.388	14058
861.521	14906
861.653	14039
861.786	14001
861.918	14024
862.05	14069
862.183	14016
862.315	14153
862.447	14294
862.58	14130
862.712	13868
862.844	13875
862.976	13955
863.108	13925
863.24	14278
863.372	13894
863.504	13963
863.636	13974
863.768	13978
863.9	13928
864.032	13925
864.164	13799
864.296	13997
864.428	14035
864.559	14130
864.691	14084
864.823	13986
864.954	13959
865.086	13986
865.217	13906
865.349	13856
865.48	13993
865.612	13921
865.743	14092
865.875	13807
866.006	13898
866.137	13830
866.269	13822
866.4	13902
866.531	13841
866.662	13811
866.793	13932
866.924	13928
867.055	13947
867.186	13879
867.317	13906
867.448	13803
867.579	13803
867.71	13822
867.841	13841
867.972	13970
868.103	13974
868.233	13959
868.364	13887
868.495	13986
868.625	14081
868.756	14320
868.886	14043
869.017	14092
869.147	14294
869.278	14294
869.408	14107
869.539	14126
869.669	14221
869.799	14149
869.929	14267
870.06	14229
870.19	14423
870.32	14568
870.45	14423
870.58	14564
870.71	14712
870.84	14648
870.97	14575
871.1	14507
871.23	14678
871.36	14800
871.489	14689
871.619	14800
871.749	14686
871.879	14853
872.008	14807
872.138	14849
872.267	14724
872.397	14640
872.526	14636
872.656	14632
872.785	14629
872.915	14765
873.044	14937
873.173	14849
873.303	14754
873.432	14910
873.561	14925
873.69	14880
873.819	14773
873.948	14979
874.077	14868
874.206	14769
874.335	14899
874.464	14975
874.593	15150
874.722	15036
874.851	15195
874.979	15173
875.108	15100
875.237	15097
875.365	15161
875.494	15138
875.623	15097
875.751	15157
875.88	15146
876.008	15313
876.136	15336
876.265	15492
876.393	15736
876.521	15629
876.65	15656
876.778	15538
876.906	15534
877.034	15534
877.162	15500
877.29	15408
877.418	15492
877.546	15549
877.674	15637
877.802	15633
877.93	15477
878.058	15545
878.185	15473
878.313	15595
878.441	15622
878.568	15435
878.696	15587
878.824	15595
878.951	15671
879.079	15759
879.206	15869
879.333	15724
879.461	15576
879.588	15576
879.715	15603
879.842	15800
879.97	15671
880.097	15382
880.224	15447
880.351	15466
880.478	15435
880.605	15420
880.732	15401
880.859	15739
880.986	15485
881.112	15428
881.239	15313
881.366	15241
881.493	15104
881.619	15001
881.746	15116
881.872	15108
881.999	15043
882.125	14979
882.252	15058
882.378	15070
882.505	15180
882.631	15013
882.757	14853
882.883	15043
883.01	14792
883.136	14724
883.262	14785
883.388	14716
883.514	14864
883.64	14956
883.766	14853
883.892	14667
884.018	14659
884.143	14842
884.269	14883
884.395	14693
884.52	14564
884.646	14621
884.772	14541
884.897	14530
885.023	14541
885.148	14625
885.274	14682
885.399	14769
885.524	14659
885.65	14495
885.775	14625
885.9	14632
886.025	14712
886.15	14712
886.275	14629
886.4	14476
886.525	14514
886.65	14518
886.775	14457
886.9	14693
887.025	14861
887.149	14541
887.274	14415
887.399	14351
887.523	14282
887.648	14355
887.773	14309
887.897	14568
888.021	14446
888.146	14495
888.27	14571
888.395	14530
888.519	14423
888.643	14484
888.767	14389
888.891	14419
889.015	14218
889.139	14267
889.263	14339
889.387	14313
889.511	14480
889.635	14480
889.759	14267
889.883	14320
890.006	14431
890.13	14400
890.254	14134
890.377	14183
890.501	14119
890.624	14092
890.748	14142
890.871	13986
890.995	13890
891.118	13822
891.241	13993
891.364	14005
891.488	14092
891.611	14062
891.734	14001
891.857	14103
891.98	13959
892.103	14016
892.226	13944
892.349	14008
892.471	13921
892.594	13974
892.717	13947
892.839	13894
892.962	14031
893.085	14111
893.207	13967
893.33	13902
893.452	13883
893.575	14027
893.697	14001
893.819	14096
893.941	14145
894.064	14221
894.186	14039
894.308	13974
894.43	14130
894.552	14206
894.674	14073
894.796	14027
894.918	14046
895.04	13970
895.161	14157
895.283	14126
895.405	13928
895.526	14073
895.648	14107
895.769	14138
895.891	14187
896.012	14202
896.134	14195
896.255	14210
896.376	14081
896.498	14142
896.619	14187
896.74	14161
896.861	14271
896.982	14495
897.103	14705
897.224	14469
897.345	14476
897.466	14358
897.587	14366
897.708	14461
897.828	14446
897.949	14336
898.07	14313
898.19	14339
898.311	14617
898.431	14480
898.552	14552
898.672	14594
898.792	14560
898.913	14526
899.033	14495
899.153	14298
899.273	14244
899.393	14419
899.513	14473
899.633	14400
899.753	14370
899.873	14294
899.993	14480
900.113	14393
900.232	14393
900.352	14412
900.472	14248
900.591	14092
900.711	14191
900.83	14157
900.95	14351
901.069	14202
901.189	14138
901.308	13902
901.427	13871
901.546	13932
901.665	13947
901.784	13879
901.904	13845
902.023	13689
902.141	13571
902.26	13434
902.379	13571
902.498	13480
902.617	13434
902.735	13552
902.854	13544
902.973	13422
903.091	13247
903.21	13206
903.328	13209
903.446	13053
903.565	13050
903.683	13091
903.801	12848
903.919	13004
904.038	13012
904.156	12817
904.274	12810
904.392	12897
904.51	12817
904.627	12798
904.745	12932
904.863	12939
904.981	12715
905.098	12540
905.216	12566
905.334	12559
905.451	12612
905.569	12498
905.686	12589
905.803	12521
905.921	12376
906.038	12494
906.155	12346
906.272	12342
906.389	12277
906.506	12205
906.623	12197
906.74	12190
906.857	12114
906.974	12022
907.091	12315
907.208	12285
907.324	12121
907.441	12129
907.557	11912
907.674	11912
907.79	11923
907.907	11885
908.023	11882
908.139	11878
908.256	11828
908.372	11786
908.488	11813
908.604	11718
908.72	11668
908.836	11634
908.952	11627
909.068	11707
909.184	11790
909.3	11638
909.415	11657
909.531	11619
909.647	11497
909.762	11448
909.878	11429
909.993	11509
910.108	11368
910.224	11398
910.339	11490
910.454	11315
910.57	11273
910.685	11193
910.8	11482
910.915	11410
911.03	11261
911.145	11113
911.259	11140
911.374	11075
911.489	11048
911.604	11010
911.718	10896
911.833	10873
911.947	10847
912.062	10763
912.176	10900
912.291	10866
912.405	10904
912.519	11060
912.633	11147
912.748	10957
912.862	10885
912.976	10778
913.09	10664
913.204	10725
913.318	10729
913.431	10877
913.545	10881
913.659	10949
913.772	10801
913.886	10744
914	10645
914.113	10694
914.226	10706
914.34	10683
914.453	10622
914.566	10767
914.68	10653
914.793	10603
914.906	10459
915.019	10360
915.132	10318
915.245	10428
915.358	10462
915.47	10379
915.583	10497
915.696	10436
915.809	10592
915.921	10474
916.034	10417
916.146	10379
916.259	10356
916.371	10417
916.483	10413
916.595	10348
916.708	10314
916.82	10325
916.932	10344
917.044	10314
917.156	10261
917.268	10196
917.38	10242
917.491	10215
917.603	10215
917.715	10303
917.826	10325
917.938	10230
918.049	10177
918.161	10238
918.272	10333
918.384	10367
918.495	10230
918.606	10135
918.717	10013
918.828	10166
918.939	10166
919.05	10055
919.161	10109
919.272	9892
919.383	9949
919.494	10120
919.604	10303
919.715	10192
919.826	10059
919.936	10048
920.047	10215
920.157	10120
920.267	10325
920.378	10211
920.488	10112
920.598	10314
920.708	10424
920.818	10356
920.928	10249
921.038	10382
921.148	10402
921.258	10124
921.368	10067
921.477	10025
921.587	9960
921.697	9831
921.806	10029
921.916	9880
922.025	9793
922.134	9698
922.244	9622
922.353	9652
922.462	9614
922.571	9580
922.68	9431
922.789	9420
922.898	9363
923.007	9348
923.116	9424
923.224	9416
923.333	9367
923.442	9336
923.55	9199
923.659	9241
923.767	9310
923.876	9310
923.984	9344
924.092	9218
924.201	9249
924.309	9268
924.417	9294
924.525	9184
924.633	9279
924.741	9956
924.849	8960
924.956	9222
925.064	9058
925.172	8929
925.279	8956
925.387	9047
925.494	9005
925.602	9100
925.709	9100
925.816	8979
925.924	9085
926.031	9131
926.138	9032
926.245	9100
926.352	8994
926.459	9150
926.566	9131
926.673	9024
926.779	8906
926.886	8937
926.993	8826
927.099	8804
927.206	8670
927.312	8693
927.419	8807
927.525	8769
927.631	8845
927.737	8670
927.843	8678
927.95	8552
928.056	8655
928.162	8682
928.267	8720
928.373	9298
928.479	8697
928.585	8564
928.69	8712
928.796	8659
928.901	8560
929.007	8507
929.112	8659
929.218	8541
929.323	8511
929.428	8469
929.533	8625
929.638	8427
929.743	8503
929.848	8511
929.953	8476
930.058	8351
930.163	8161
930.267	8244
930.372	8370
930.477	8172
930.581	8503
930.685	8256
930.79	8138
930.894	8206
930.998	8259
931.103	8282
931.207	7982
931.311	7947
931.415	7936
931.519	7700
931.623	7723
