Data from test_V78500241_2897.txt Node
Date: Fri Mar 25 14:53:53 CST 2022
User: usil
Spectrometer: V785-0024
Trigger mode: 0
Integration Time (sec): 4.000000E-1
Scans to average: 1
Nonlinearity correction enabled: false
Boxcar width: 0
Storing dark spectrum: false
XAxis mode: Wavelengths
Number of Pixels in Spectrum: 1024
>>>>>Begin Spectral Data<<<<<
801.071	22070
801.214	21983
801.356	21698
801.499	21553
801.641	21431
801.783	21462
801.926	21340
802.068	21310
802.211	21294
802.353	21165
802.496	20910
802.638	21024
802.78	20838
802.923	20762
803.065	20701
803.208	20659
803.35	20785
803.492	20819
803.635	20910
803.777	20739
803.919	20792
804.061	21112
804.204	20781
804.346	20720
804.488	20636
804.63	20769
804.773	20648
804.915	20720
805.057	20864
805.199	20640
805.341	20785
805.483	20819
805.626	20861
805.768	20686
805.91	20708
806.052	20674
806.194	20598
806.336	20834
806.478	20731
806.62	20560
806.762	20644
806.904	20807
807.046	21013
807.188	20986
807.33	20921
807.472	21245
807.614	21005
807.756	21005
807.898	20735
808.04	20701
808.182	20785
808.324	20743
808.465	20731
808.607	20948
808.749	21131
808.891	21218
809.033	21222
809.174	21135
809.316	20994
809.458	21081
809.6	21135
809.741	21157
809.883	21188
810.025	21252
810.166	21116
810.308	21211
810.45	21123
810.591	21024
810.733	21062
810.875	20849
811.016	20727
811.158	20663
811.299	20849
811.441	20861
811.582	20933
811.724	20864
811.865	20720
812.007	20807
812.148	20811
812.29	20743
812.431	20979
812.573	21116
812.714	21355
812.855	21321
812.997	21374
813.138	21538
813.279	21359
813.421	21412
813.562	21325
813.703	20933
813.845	20914
813.986	20648
814.127	20571
814.268	20659
814.41	20434
814.551	20278
814.692	20488
814.833	20294
814.974	20225
815.115	20476
815.256	20161
815.397	20172
815.539	20229
815.68	20073
815.821	20039
815.962	20069
816.103	20065
816.244	20001
816.385	19727
816.526	19917
816.666	19609
816.807	19635
816.948	19556
817.089	19658
817.23	19559
817.371	19495
817.512	19582
817.653	19495
817.793	19441
817.934	19537
818.075	19434
818.216	19457
818.356	19601
818.497	19331
818.638	19080
818.778	19190
818.919	19126
819.06	19251
819.2	19263
819.341	19346
819.481	19388
819.622	19476
819.762	19784
819.903	19582
820.043	19510
820.184	19438
820.324	19422
820.465	19620
820.605	19518
820.746	19369
820.886	19316
821.026	19365
821.167	19422
821.307	19518
821.447	19415
821.588	19354
821.728	19175
821.868	19080
822.008	18962
822.149	18897
822.289	18947
822.429	18650
822.569	18536
822.709	18612
822.849	18483
822.99	18395
823.13	18486
823.27	18391
823.41	18239
823.55	18152
823.69	18152
823.83	18121
823.97	18205
824.11	17885
824.25	17954
824.389	17863
824.529	18091
824.669	17828
824.809	18011
824.949	17965
825.089	18003
825.228	17885
825.368	17847
825.508	17748
825.648	17729
825.787	17798
825.927	17813
826.067	17684
826.206	17726
826.346	17676
826.485	17767
826.625	17745
826.765	17847
826.904	17707
827.044	17406
827.183	17448
827.323	17402
827.462	17611
827.601	17372
827.741	17341
827.88	17368
828.02	17376
828.159	17433
828.298	17547
828.437	17509
828.577	17311
828.716	17547
828.855	17368
828.994	17239
829.134	17311
829.273	17151
829.412	17159
829.551	17098
829.69	17151
829.829	17109
829.968	17395
830.107	17334
830.246	17246
830.385	17018
830.524	17113
830.663	17037
830.802	16938
830.941	16786
831.08	16854
831.219	16873
831.357	16999
831.496	16984
831.635	16793
831.774	16717
831.913	16691
832.051	16645
832.19	16710
832.329	16569
832.467	16504
832.606	16402
832.744	16402
832.883	16546
833.022	16489
833.16	16546
833.299	16607
833.437	16599
833.576	16485
833.714	16489
833.852	16527
833.991	16565
834.129	16664
834.267	16542
834.406	16641
834.544	16649
834.682	16565
834.821	16626
834.959	16675
835.097	16565
835.235	16637
835.373	16558
835.511	16596
835.65	16527
835.788	16436
835.926	16367
836.064	16261
836.202	16341
836.34	16382
836.478	16538
836.615	16443
836.753	16455
836.891	16546
837.029	16447
837.167	16409
837.305	16390
837.443	16348
837.58	16287
837.718	16344
837.856	16333
837.993	16284
838.131	16299
838.269	16242
838.406	16246
838.544	16215
838.681	15998
838.819	15979
838.956	15960
839.094	15823
839.231	15922
839.369	15907
839.506	16200
839.643	16109
839.781	15869
839.918	15819
840.055	15907
840.193	15884
840.33	15857
840.467	15861
840.604	15953
840.742	16226
840.879	15778
841.016	15785
841.153	15709
841.29	15945
841.427	15823
841.564	16025
841.701	15846
841.838	15800
841.975	15713
842.112	15732
842.249	15675
842.385	15667
842.522	15846
842.659	15671
842.796	15584
842.933	15667
843.069	15606
843.206	15625
843.343	15705
843.479	15660
843.616	15743
843.752	15507
843.889	15431
844.025	15629
844.162	15416
844.298	15561
844.435	15344
844.571	15412
844.708	15477
844.844	15576
844.98	15591
845.117	15576
845.253	15325
845.389	15363
845.525	15260
845.661	15272
845.798	15222
845.934	15416
846.07	15154
846.206	15287
846.342	15447
846.478	15173
846.614	15024
846.75	14906
846.886	14967
847.022	15043
847.158	15013
847.294	14979
847.429	14979
847.565	14990
847.701	15249
847.837	14686
847.972	14727
848.108	14861
848.244	14777
848.379	14689
848.515	14568
848.65	14499
848.786	14575
848.921	14583
849.057	14720
849.192	14693
849.328	14575
849.463	14663
849.598	14663
849.734	14564
849.869	14495
850.004	14412
850.14	14438
850.275	14431
850.41	14347
850.545	14374
850.68	14309
850.815	14351
850.95	14374
851.085	14545
851.22	14514
851.355	14408
851.49	14351
851.625	14370
851.76	14275
851.895	14290
852.03	14206
852.165	14343
852.299	14434
852.434	14484
852.569	14377
852.703	14461
852.838	14450
852.973	14469
853.107	14575
853.242	14180
853.376	14237
853.511	14206
853.645	14225
853.78	14332
853.914	14180
854.048	14199
854.183	14153
854.317	14180
854.451	14358
854.585	14309
854.72	14153
854.854	14252
854.988	14005
855.122	14172
855.256	14164
855.39	14164
855.524	14309
855.658	14290
855.792	14263
855.926	14187
856.06	14290
856.194	14339
856.327	14195
856.461	14202
856.595	14210
856.729	14214
856.862	14370
856.996	14271
857.13	14286
857.263	14412
857.397	14343
857.53	14195
857.664	14267
857.797	14362
857.931	14366
858.064	14244
858.197	14256
858.331	14202
858.464	14214
858.597	14164
858.731	14275
858.864	14256
858.997	14259
859.13	14244
859.263	14259
859.396	14389
859.529	14259
859.662	14183
859.795	14157
859.928	14233
860.061	14408
860.194	14400
860.327	14313
860.46	14328
860.592	14427
860.725	14351
860.858	14355
860.99	14267
861.123	14092
861.256	14126
861.388	14298
861.521	14826
861.653	14153
861.786	14065
861.918	14123
862.05	14149
862.183	14218
862.315	14206
862.447	14381
862.58	14218
862.712	13982
862.844	13997
862.976	14031
863.108	14016
863.24	14374
863.372	13928
863.504	14062
863.636	13951
863.768	14077
863.9	14073
864.032	14024
864.164	13989
864.296	14084
864.428	14031
864.559	14088
864.691	14164
864.823	14081
864.954	14054
865.086	14046
865.217	14107
865.349	13967
865.48	13989
865.612	14005
865.743	14164
865.875	13955
866.006	14012
866.137	13993
866.269	13932
866.4	13947
866.531	14046
866.662	13967
866.793	13921
866.924	13909
867.055	13993
867.186	13997
867.317	13864
867.448	13883
867.579	13944
867.71	13890
867.841	13940
867.972	14050
868.103	13989
868.233	14020
868.364	13982
868.495	14069
868.625	14191
868.756	14393
868.886	14199
869.017	14248
869.147	14328
869.278	14355
869.408	14248
869.539	14199
869.669	14347
869.799	14393
869.929	14339
870.06	14259
870.19	14507
870.32	14579
870.45	14518
870.58	14602
870.71	14678
870.84	14769
870.97	14705
871.1	14712
871.23	14842
871.36	14792
871.489	14674
871.619	14853
871.749	14811
871.879	14960
872.008	14902
872.138	14895
872.267	14902
872.397	14613
872.526	14632
872.656	14670
872.785	14743
872.915	14868
873.044	14963
873.173	14849
873.303	14883
873.432	14933
873.561	15005
873.69	14853
873.819	14864
873.948	14998
874.077	14952
874.206	14842
874.335	14891
874.464	14941
874.593	15233
874.722	15116
874.851	15123
874.979	15252
875.108	15268
875.237	15085
875.365	15093
875.494	15203
875.623	15374
875.751	15249
875.88	15237
876.008	15336
876.136	15382
876.265	15629
876.393	15831
876.521	15629
876.65	15717
876.778	15705
876.906	15637
877.034	15679
877.162	15564
877.29	15545
877.418	15663
877.546	15660
877.674	15652
877.802	15618
877.93	15549
878.058	15584
878.185	15488
878.313	15648
878.441	15682
878.568	15439
878.696	15545
878.824	15599
878.951	15648
879.079	15774
879.206	15819
879.333	15854
879.461	15701
879.588	15686
879.715	15739
879.842	15991
879.97	15720
880.097	15458
880.224	15515
880.351	15526
880.478	15515
880.605	15378
880.732	15473
880.859	15679
880.986	15454
881.112	15481
881.239	15397
881.366	15264
881.493	15298
881.619	15089
881.746	15089
881.872	15112
881.999	15043
882.125	15001
882.252	15249
882.378	15108
882.505	15336
882.631	15028
882.757	14952
882.883	15039
883.01	14887
883.136	15097
883.262	14834
883.388	14735
883.514	14861
883.64	15020
883.766	14899
883.892	14750
884.018	14788
884.143	14948
884.269	15001
884.395	14773
884.52	14610
884.646	14640
884.772	14697
884.897	14571
885.023	14667
885.148	14849
885.274	14785
885.399	14762
885.524	14621
885.65	14636
885.775	14674
885.9	14587
886.025	14708
886.15	14731
886.275	14590
886.4	14606
886.525	14549
886.65	14606
886.775	14522
886.9	14735
887.025	14861
887.149	14632
887.274	14446
887.399	14492
887.523	14480
887.648	14404
887.773	14431
887.897	14488
888.021	14655
888.146	14396
888.27	14522
888.395	14727
888.519	14556
888.643	14533
888.767	14568
888.891	14347
889.015	14339
889.139	14358
889.263	14294
889.387	14351
889.511	14507
889.635	14465
889.759	14286
889.883	14347
890.006	14332
890.13	14552
890.254	14263
890.377	14301
890.501	14221
890.624	14069
890.748	14206
890.871	14161
890.995	13982
891.118	13993
891.241	14027
891.364	13940
891.488	14130
891.611	14111
891.734	14088
891.857	14100
891.98	14111
892.103	14058
892.226	14123
892.349	13963
892.471	13849
892.594	13951
892.717	14084
892.839	14035
892.962	14126
893.085	14199
893.207	14054
893.33	13967
893.452	13894
893.575	14130
893.697	13970
893.819	14153
893.941	14176
894.064	14119
894.186	14088
894.308	14008
894.43	14149
894.552	14221
894.674	14263
894.796	13947
894.918	14111
895.04	14077
895.161	14164
895.283	14191
895.405	14046
895.526	14100
895.648	14126
895.769	14172
895.891	14275
896.012	14313
896.134	14256
896.255	14183
896.376	14077
896.498	14168
896.619	14351
896.74	14202
896.861	14286
896.982	14564
897.103	14629
897.224	14514
897.345	14374
897.466	14488
897.587	14442
897.708	14644
897.828	14583
897.949	14507
898.07	14313
898.19	14530
898.311	14617
898.431	14503
898.552	14484
898.672	14579
898.792	14552
898.913	14564
899.033	14579
899.153	14415
899.273	14332
899.393	14423
899.513	14514
899.633	14476
899.753	14514
899.873	14381
899.993	14469
900.113	14442
900.232	14374
900.352	14450
900.472	14389
900.591	14317
900.711	14377
900.83	14229
900.95	14362
901.069	14332
901.189	14282
901.308	14046
901.427	13989
901.546	14035
901.665	13940
901.784	13967
901.904	13883
902.023	13890
902.141	13582
902.26	13544
902.379	13563
902.498	13457
902.617	13487
902.735	13483
902.854	13525
902.973	13514
903.091	13255
903.21	13278
903.328	13346
903.446	13194
903.565	13057
903.683	13209
903.801	13031
903.919	13065
904.038	13103
904.156	12901
904.274	12996
904.392	12954
904.51	12920
904.627	12894
904.745	12943
904.863	12970
904.981	12741
905.098	12486
905.216	12631
905.334	12665
905.451	12555
905.569	12547
905.686	12703
905.803	12547
905.921	12448
906.038	12559
906.155	12506
906.272	12338
906.389	12384
906.506	12273
906.623	12171
906.74	12167
906.857	12114
906.974	12133
907.091	12220
907.208	12323
907.324	12254
907.441	12106
907.557	11882
907.674	11965
907.79	11916
907.907	11912
908.023	12068
908.139	11916
908.256	11840
908.372	11859
908.488	11824
908.604	11783
908.72	11737
908.836	11756
908.952	11676
909.068	11695
909.184	11805
909.3	11737
909.415	11726
909.531	11821
909.647	11497
909.762	11505
909.878	11474
909.993	11547
910.108	11528
910.224	11410
910.339	11509
910.454	11288
910.57	11193
910.685	11227
910.8	11547
910.915	11535
911.03	11356
911.145	11166
911.259	11109
911.374	11143
911.489	11033
911.604	11003
911.718	11003
911.833	10919
911.947	10831
912.062	10759
912.176	10972
912.291	10976
912.405	10946
912.519	11094
912.633	11121
912.748	11064
912.862	10847
912.976	10717
913.09	10748
913.204	10748
913.318	10771
913.431	10995
913.545	10949
913.659	10938
913.772	10850
913.886	10725
914	10672
914.113	10771
914.226	10782
914.34	10809
914.453	10641
914.566	10786
914.68	10592
914.793	10630
914.906	10432
915.019	10413
915.132	10398
915.245	10485
915.358	10497
915.47	10485
915.583	10462
915.696	10512
915.809	10546
915.921	10626
916.034	10447
916.146	10386
916.259	10405
916.371	10459
916.483	10478
916.595	10386
916.708	10379
916.82	10371
916.932	10310
917.044	10344
917.156	10352
917.268	10253
917.38	10325
917.491	10192
917.603	10219
917.715	10409
917.826	10409
917.938	10303
918.049	10223
918.161	10348
918.272	10348
918.384	10455
918.495	10329
918.606	10105
918.717	10078
918.828	10169
918.939	10162
919.05	10101
919.161	10120
919.272	9941
919.383	9915
919.494	10158
919.604	10356
919.715	10143
919.826	10078
919.936	10116
920.047	10306
920.157	10177
920.267	10402
920.378	10211
920.488	10120
920.598	10371
920.708	10478
920.818	10417
920.928	10371
921.038	10561
921.148	10527
921.258	10223
921.368	10147
921.477	10044
921.587	9998
921.697	9979
921.806	10025
921.916	9953
922.025	9747
922.134	9740
922.244	9682
922.353	9751
922.462	9603
922.571	9713
922.68	9439
922.789	9462
922.898	9435
923.007	9401
923.116	9416
923.224	9405
923.333	9382
923.442	9382
923.55	9279
923.659	9386
923.767	9420
923.876	9321
923.984	9310
924.092	9203
924.201	9336
924.309	9294
924.417	9298
924.525	9218
924.633	9313
924.741	10158
924.849	9055
924.956	9226
925.064	9093
925.172	9032
925.279	9066
925.387	9051
925.494	9043
925.602	9211
925.709	9165
925.816	8990
925.924	9100
926.031	9081
926.138	9127
926.245	9112
926.352	9020
926.459	9131
926.566	9127
926.673	9062
926.779	8990
926.886	8899
926.993	8872
927.099	8712
927.206	8716
927.312	8762
927.419	8785
927.525	8754
927.631	8845
927.737	8788
927.843	8701
927.95	8659
928.056	8746
928.162	8651
928.267	8800
928.373	9367
928.479	8750
928.585	8594
928.69	8613
928.796	8655
928.901	8617
929.007	8438
929.112	8617
929.218	8606
929.323	8617
929.428	8495
929.533	8682
929.638	8476
929.743	8450
929.848	8579
929.953	8522
930.058	8431
930.163	8267
930.267	8339
930.372	8495
930.477	8332
930.581	8484
930.685	8389
930.79	8214
930.894	8263
930.998	8195
931.103	8442
931.207	8054
931.311	7974
931.415	7925
931.519	7693
931.623	7757
