Data from test_V78500241_388.txt Node
Date: Fri Mar 25 14:36:25 CST 2022
User: usil
Spectrometer: V785-0024
Trigger mode: 0
Integration Time (sec): 4.000000E-1
Scans to average: 1
Nonlinearity correction enabled: false
Boxcar width: 0
Storing dark spectrum: false
XAxis mode: Wavelengths
Number of Pixels in Spectrum: 1024
>>>>>Begin Spectral Data<<<<<
801.071	26765
801.214	26579
801.356	26381
801.499	26328
801.641	26183
801.783	26153
801.926	26092
802.068	26161
802.211	25963
802.353	26088
802.496	25814
802.638	25753
802.78	25772
802.923	25830
803.065	25586
803.208	25605
803.35	25643
803.492	25731
803.635	25864
803.777	25571
803.919	25864
804.061	26122
804.204	25890
804.346	25578
804.488	25559
804.63	25670
804.773	25533
804.915	25696
805.057	25852
805.199	25643
805.341	25715
805.483	25734
805.626	25761
805.768	25670
805.91	25750
806.052	25753
806.194	25628
806.336	25799
806.478	25666
806.62	25590
806.762	25788
806.904	25906
807.046	26229
807.188	26084
807.33	26176
807.472	26282
807.614	25963
807.756	26111
807.898	25894
808.04	25936
808.182	25822
808.324	25875
808.465	25860
808.607	26016
808.749	26237
808.891	26313
809.033	26347
809.174	26225
809.316	26298
809.458	26191
809.6	26218
809.741	26168
809.883	26282
810.025	26484
810.166	26461
810.308	26442
810.45	26301
810.591	26457
810.733	26096
810.875	26221
811.016	25989
811.158	25932
811.299	26218
811.441	26298
811.582	26161
811.724	25959
811.865	26062
812.007	26107
812.148	26058
812.29	26237
812.431	26081
812.573	26351
812.714	26465
812.855	26457
812.997	26575
813.138	26689
813.279	26579
813.421	26552
813.562	26613
813.703	26328
813.845	26309
813.986	25917
814.127	25765
814.268	25693
814.41	25590
814.551	25700
814.692	25605
814.833	25651
814.974	25521
815.115	25529
815.256	25518
815.397	25514
815.539	25445
815.68	25259
815.821	25377
815.962	25411
816.103	25339
816.244	25179
816.385	25015
816.526	25072
816.666	24856
816.807	24745
816.948	24856
817.089	24825
817.23	24886
817.371	24722
817.512	24798
817.653	24779
817.793	24681
817.934	24688
818.075	24730
818.216	24673
818.356	24601
818.497	24536
818.638	24502
818.778	24365
818.919	24350
819.06	24365
819.2	24448
819.341	24585
819.481	24635
819.622	24707
819.762	24939
819.903	24791
820.043	24837
820.184	24719
820.324	24700
820.465	24897
820.605	24661
820.746	24646
820.886	24574
821.026	24741
821.167	24631
821.307	24684
821.447	24722
821.588	24513
821.728	24308
821.868	24251
822.008	24121
822.149	24159
822.289	23996
822.429	23832
822.569	23680
822.709	23783
822.849	23554
822.99	23577
823.13	23471
823.27	23490
823.41	23337
823.55	23311
823.69	23296
823.83	23296
823.97	23216
824.11	23033
824.25	23113
824.389	23064
824.529	23071
824.669	23022
824.809	23170
824.949	23200
825.089	23075
825.228	23090
825.368	23010
825.508	22961
825.648	22774
825.787	22889
825.927	22862
826.067	22911
826.206	22824
826.346	22862
826.485	22824
826.625	22771
826.765	23018
826.904	22892
827.044	22607
827.183	22660
827.323	22440
827.462	22580
827.601	22603
827.741	22402
827.88	22565
828.02	22462
828.159	22493
828.298	22474
828.437	22588
828.577	22382
828.716	22542
828.855	22489
828.994	22356
829.134	22173
829.273	22325
829.412	22185
829.551	22181
829.69	22226
829.829	22226
829.968	22261
830.107	22272
830.246	22150
830.385	22150
830.524	22200
830.663	22105
830.802	21937
830.941	21762
831.08	21823
831.219	21800
831.357	21835
831.496	21915
831.635	21835
831.774	21671
831.913	21743
832.051	21599
832.19	21492
832.329	21622
832.467	21450
832.606	21458
832.744	21416
832.883	21488
833.022	21412
833.16	21492
833.299	21370
833.437	21382
833.576	21557
833.714	21526
833.852	21397
833.991	21591
834.129	21568
834.267	21511
834.406	21454
834.544	21401
834.682	21340
834.821	21355
834.959	21637
835.097	21507
835.235	21496
835.373	21515
835.511	21504
835.65	21268
835.788	21401
835.926	21192
836.064	21096
836.202	21116
836.34	21378
836.478	21450
836.615	21336
836.753	21302
836.891	21355
837.029	21310
837.167	21302
837.305	21260
837.443	21218
837.58	21089
837.718	21233
837.856	21093
837.993	21199
838.131	21123
838.269	21077
838.406	21081
838.544	21043
838.681	20765
838.819	20705
838.956	20682
839.094	20655
839.231	20785
839.369	20689
839.506	20899
839.643	20758
839.781	20511
839.918	20492
840.055	20678
840.193	20461
840.33	20457
840.467	20526
840.604	20625
840.742	20899
840.879	20415
841.016	20366
841.153	20469
841.29	20640
841.427	20518
841.564	20579
841.701	20537
841.838	20434
841.975	20259
842.112	20355
842.249	20282
842.385	20347
842.522	20374
842.659	20320
842.796	20259
842.933	20233
843.069	20157
843.206	20183
843.343	20244
843.479	20218
843.616	20103
843.752	19932
843.889	20126
844.025	20195
844.162	19921
844.298	20126
844.435	20043
844.571	19932
844.708	20008
844.844	20103
844.98	20240
845.117	20027
845.253	19959
845.389	19856
845.525	19997
845.661	19921
845.798	19708
845.934	19780
846.07	19704
846.206	19807
846.342	19959
846.478	19670
846.614	19632
846.75	19464
846.886	19495
847.022	19559
847.158	19384
847.294	19396
847.429	19582
847.565	19441
847.701	19693
847.837	19263
847.972	19148
848.108	19301
848.244	19217
848.379	19046
848.515	19046
848.65	19076
848.786	19038
848.921	19137
849.057	19099
849.192	19118
849.328	19015
849.463	19031
849.598	18859
849.734	18871
849.869	18977
850.004	18859
850.14	18882
850.275	18875
850.41	18753
850.545	18696
850.68	18692
850.815	18802
850.95	18776
851.085	18897
851.22	18825
851.355	18654
851.49	18878
851.625	18661
851.76	18703
851.895	18612
852.03	18639
852.165	18787
852.299	18707
852.434	18863
852.569	18707
852.703	18677
852.838	18650
852.973	18890
853.107	18772
853.242	18730
853.376	18654
853.511	18452
853.645	18608
853.78	18772
853.914	18452
854.048	18506
854.183	18494
854.317	18563
854.451	18760
854.585	18627
854.72	18528
854.854	18650
854.988	18460
855.122	18604
855.256	18437
855.39	18456
855.524	18578
855.658	18646
855.792	18445
855.926	18620
856.06	18612
856.194	18509
856.327	18483
856.461	18532
856.595	18544
856.729	18506
856.862	18604
856.996	18741
857.13	18551
857.263	18570
857.397	18642
857.53	18639
857.664	18589
857.797	18707
857.931	18669
858.064	18688
858.197	18745
858.331	18486
858.464	18452
858.597	18395
858.731	18486
858.864	18448
858.997	18540
859.13	18467
859.263	18623
859.396	18521
859.529	18578
859.662	18483
859.795	18464
859.928	18521
860.061	18745
860.194	18707
860.327	18517
860.46	18467
860.592	18589
860.725	18494
860.858	18661
860.99	18452
861.123	18498
861.256	18433
861.388	18426
861.521	19255
861.653	18289
861.786	18365
861.918	18327
862.05	18483
862.183	18517
862.315	18521
862.447	18631
862.58	18479
862.712	18353
862.844	18300
862.976	18357
863.108	18258
863.24	18593
863.372	18186
863.504	18296
863.636	18296
863.768	18266
863.9	18186
864.032	18247
864.164	18148
864.296	18144
864.428	18254
864.559	18429
864.691	18315
864.823	18194
864.954	18209
865.086	18171
865.217	18068
865.349	18049
865.48	18152
865.612	18159
865.743	18213
865.875	18159
866.006	18136
866.137	18083
866.269	18079
866.4	18110
866.531	18060
866.662	18068
866.793	18125
866.924	18102
867.055	18129
867.186	18163
867.317	18022
867.448	18068
867.579	18087
867.71	18034
867.841	18015
867.972	18144
868.103	18019
868.233	18087
868.364	18144
868.495	18239
868.625	18213
868.756	18338
868.886	18235
869.017	18319
869.147	18399
869.278	18407
869.408	18369
869.539	18254
869.669	18395
869.799	18357
869.929	18483
870.06	18464
870.19	18722
870.32	18722
870.45	18711
870.58	18692
870.71	18749
870.84	18760
870.97	18817
871.1	18726
871.23	18913
871.36	18886
871.489	18779
871.619	18985
871.749	18909
871.879	19015
872.008	18848
872.138	19027
872.267	18947
872.397	18878
872.526	18753
872.656	18875
872.785	18821
872.915	18932
873.044	18970
873.173	18966
873.303	18848
873.432	18913
873.561	19027
873.69	18954
873.819	18810
873.948	19091
874.077	18886
874.206	18943
874.335	18901
874.464	19034
874.593	19312
874.722	19122
874.851	19194
874.979	19320
875.108	19221
875.237	19164
875.365	19236
875.494	19213
875.623	19266
875.751	19129
875.88	19263
876.008	19411
876.136	19434
876.265	19499
876.393	19700
876.521	19559
876.65	19708
876.778	19700
876.906	19556
877.034	19575
877.162	19632
877.29	19468
877.418	19518
877.546	19605
877.674	19628
877.802	19632
877.93	19693
878.058	19632
878.185	19590
878.313	19575
878.441	19613
878.568	19434
878.696	19518
878.824	19632
878.951	19704
879.079	19925
879.206	19913
879.333	19769
879.461	19620
879.588	19658
879.715	19734
879.842	19932
879.97	19712
880.097	19449
880.224	19373
880.351	19529
880.478	19400
880.605	19483
880.732	19521
880.859	19715
880.986	19483
881.112	19499
881.239	19320
881.366	19164
881.493	19236
881.619	19065
881.746	19152
881.872	19027
881.999	19148
882.125	18977
882.252	19126
882.378	19004
882.505	19084
882.631	18928
882.757	18916
882.883	18882
883.01	18817
883.136	18833
883.262	18776
883.388	18593
883.514	18954
883.64	18825
883.766	18779
883.892	18544
884.018	18639
884.143	18802
884.269	18947
884.395	18494
884.52	18559
884.646	18570
884.772	18467
884.897	18433
885.023	18616
885.148	18540
885.274	18692
885.399	18722
885.524	18464
885.65	18509
885.775	18517
885.9	18509
886.025	18574
886.15	18528
886.275	18445
886.4	18388
886.525	18388
886.65	18319
886.775	18433
886.9	18601
887.025	18639
887.149	18391
887.274	18209
887.399	18258
887.523	18330
887.648	18133
887.773	18121
887.897	18319
888.021	18327
888.146	18213
888.27	18323
888.395	18414
888.519	18239
888.643	18350
888.767	18403
888.891	18194
889.015	18019
889.139	18155
889.263	18102
889.387	18125
889.511	18353
889.635	18194
889.759	17942
889.883	17923
890.006	18083
890.13	18072
890.254	17950
890.377	17973
890.501	17745
890.624	17920
890.748	17863
890.871	17760
890.995	17668
891.118	17558
891.241	17642
891.364	17752
891.488	17767
891.611	17737
891.734	17699
891.857	17684
891.98	17661
892.103	17748
892.226	17752
892.349	17600
892.471	17512
892.594	17627
892.717	17691
892.839	17657
892.962	17684
893.085	17741
893.207	17657
893.33	17535
893.452	17558
893.575	17741
893.697	17680
893.819	17752
893.941	17824
894.064	17752
894.186	17486
894.308	17497
894.43	17783
894.552	17767
894.674	17745
894.796	17638
894.918	17623
895.04	17634
895.161	17745
895.283	17729
895.405	17493
895.526	17577
895.648	17684
895.769	17729
895.891	17695
896.012	17802
896.134	17779
896.255	17767
896.376	17729
896.498	17756
896.619	17821
896.74	17760
896.861	17809
896.982	18022
897.103	18197
897.224	18068
897.345	17965
897.466	17927
897.587	17965
897.708	18102
897.828	18045
897.949	17828
898.07	17813
898.19	17931
898.311	18015
898.431	17786
898.552	17935
898.672	18064
898.792	18095
898.913	17908
899.033	17840
899.153	17874
899.273	17623
899.393	17687
899.513	17882
899.633	17882
899.753	17684
899.873	17558
899.993	17741
900.113	17714
900.232	17737
900.352	17623
900.472	17551
900.591	17482
900.711	17596
900.83	17554
900.95	17695
901.069	17630
901.189	17535
901.308	17269
901.427	17048
901.546	17227
901.665	17250
901.784	17147
901.904	17067
902.023	16999
902.141	16698
902.26	16771
902.379	16809
902.498	16694
902.617	16577
902.735	16782
902.854	16535
902.973	16645
903.091	16306
903.21	16360
903.328	16348
903.446	16162
903.565	16204
903.683	16272
903.801	16181
903.919	16295
904.038	16204
904.156	16029
904.274	16006
904.392	15983
904.51	15922
904.627	16002
904.745	15998
904.863	16021
904.981	15778
905.098	15629
905.216	15717
905.334	15660
905.451	15606
905.569	15595
905.686	15728
905.803	15648
905.921	15534
906.038	15534
906.155	15519
906.272	15317
906.389	15351
906.506	15195
906.623	15165
906.74	15154
906.857	15097
906.974	15119
907.091	15184
907.208	15329
907.324	15150
907.441	15188
907.557	15074
907.674	14952
907.79	14777
907.907	14918
908.023	14925
908.139	14960
908.256	14819
908.372	14796
908.488	14861
908.604	14689
908.72	14640
908.836	14621
908.952	14575
909.068	14655
909.184	14815
909.3	14648
909.415	14602
909.531	14606
909.647	14275
909.762	14320
909.878	14343
909.993	14358
910.108	14377
910.224	14320
910.339	14374
910.454	14229
910.57	14161
910.685	14119
910.8	14358
910.915	14278
911.03	14233
911.145	13993
911.259	13917
911.374	13936
911.489	13879
911.604	13875
911.718	13693
911.833	13791
911.947	13594
912.062	13544
912.176	13590
912.291	13719
912.405	13643
912.519	13788
912.633	13890
912.748	13715
912.862	13693
912.976	13681
913.09	13445
913.204	13540
913.318	13533
913.431	13552
913.545	13708
913.659	13597
913.772	13472
913.886	13464
914	13339
914.113	13438
914.226	13460
914.34	13495
914.453	13282
914.566	13441
914.68	13289
914.793	13346
914.906	13103
915.019	13145
915.132	13027
915.245	13031
915.358	13183
915.47	13088
915.583	13088
915.696	13152
915.809	13194
915.921	13118
916.034	13050
916.146	12981
916.259	12977
916.371	13031
916.483	13076
916.595	12894
916.708	12905
916.82	12932
916.932	12905
917.044	12859
917.156	12871
917.268	12867
917.38	12901
917.491	12764
917.603	12772
917.715	12894
917.826	12954
917.938	12639
918.049	12513
918.161	12703
918.272	12951
918.384	12810
918.495	12703
918.606	12589
918.717	12525
918.828	12597
918.939	12627
919.05	12513
919.161	12509
919.272	12441
919.383	12372
919.494	12654
919.604	12745
919.715	12559
919.826	12452
919.936	12521
920.047	12635
920.157	12521
920.267	12677
920.378	12563
920.488	12486
920.598	12726
920.708	12939
920.818	12665
920.928	12745
921.038	12825
921.148	12897
921.258	12593
921.368	12445
921.477	12350
921.587	12350
921.697	12224
921.806	12300
921.916	12194
922.025	12003
922.134	11996
922.244	12003
922.353	11973
922.462	11855
922.571	11809
922.68	11649
922.789	11745
922.898	11611
923.007	11577
923.116	11615
923.224	11646
923.333	11547
923.442	11585
923.55	11490
923.659	11440
923.767	11539
923.876	11501
923.984	11524
924.092	11383
924.201	11501
924.309	11482
924.417	11482
924.525	11353
924.633	11414
924.741	12391
924.849	11208
924.956	11288
925.064	11178
925.172	11060
925.279	11170
925.387	11204
925.494	11181
925.602	11208
925.709	11254
925.816	11147
925.924	11140
926.031	11311
926.138	11117
926.245	11201
926.352	11060
926.459	11204
926.566	11159
926.673	11090
926.779	10949
926.886	10889
926.993	10778
927.099	10774
927.206	10858
927.312	10733
927.419	10790
927.525	10767
927.631	10801
927.737	10664
927.843	10622
927.95	10512
928.056	10630
928.162	10668
928.267	10755
928.373	11277
928.479	10675
928.585	10500
928.69	10630
928.796	10668
928.901	10489
929.007	10443
929.112	10481
929.218	10421
929.323	10409
929.428	10337
929.533	10558
929.638	10398
929.743	10466
929.848	10413
929.953	10375
930.058	10284
930.163	10090
930.267	10177
930.372	10272
930.477	10082
930.581	10303
930.685	10105
930.79	10032
930.894	10051
930.998	10051
931.103	10166
931.207	9759
931.311	9667
931.415	9644
931.519	9443
931.623	9428
