Data from test_V78500241_2288.txt Node
Date: Fri Mar 25 14:49:38 CST 2022
User: usil
Spectrometer: V785-0024
Trigger mode: 0
Integration Time (sec): 4.000000E-1
Scans to average: 1
Nonlinearity correction enabled: false
Boxcar width: 0
Storing dark spectrum: false
XAxis mode: Wavelengths
Number of Pixels in Spectrum: 1024
>>>>>Begin Spectral Data<<<<<
801.071	22196
801.214	22074
801.356	21694
801.499	21679
801.641	21644
801.783	21466
801.926	21603
802.068	21488
802.211	21412
802.353	21412
802.496	21135
802.638	21024
802.78	20925
802.923	20914
803.065	20914
803.208	20735
803.35	20880
803.492	20994
803.635	21119
803.777	20967
803.919	21001
804.061	21146
804.204	20937
804.346	20849
804.488	20750
804.63	20857
804.773	20765
804.915	20781
805.057	20914
805.199	20773
805.341	20823
805.483	20842
805.626	20944
805.768	20663
805.91	20830
806.052	20819
806.194	20792
806.336	20975
806.478	20701
806.62	20762
806.762	20807
806.904	20986
807.046	21184
807.188	21093
807.33	21146
807.472	21203
807.614	21005
807.756	21055
807.898	20952
808.04	20941
808.182	20720
808.324	20845
808.465	20880
808.607	21112
808.749	21275
808.891	21393
809.033	21363
809.174	21169
809.316	21150
809.458	21062
809.6	21184
809.741	21283
809.883	21218
810.025	21431
810.166	21233
810.308	21332
810.45	21241
810.591	21245
810.733	21169
810.875	21028
811.016	20929
811.158	20872
811.299	21001
811.441	21024
811.582	20933
811.724	20937
811.865	20914
812.007	21020
812.148	20823
812.29	21009
812.431	21116
812.573	21317
812.714	21332
812.855	21515
812.997	21538
813.138	21686
813.279	21656
813.421	21408
813.562	21469
813.703	21222
813.845	21043
813.986	20895
814.127	20754
814.268	20492
814.41	20655
814.551	20530
814.692	20648
814.833	20385
814.974	20446
815.115	20507
815.256	20278
815.397	20393
815.539	20374
815.68	20305
815.821	20180
815.962	20267
816.103	20301
816.244	20077
816.385	19932
816.526	19864
816.666	19757
816.807	19658
816.948	19734
817.089	19731
817.23	19689
817.371	19723
817.512	19628
817.653	19635
817.793	19609
817.934	19567
818.075	19719
818.216	19590
818.356	19635
818.497	19548
818.638	19202
818.778	19362
818.919	19396
819.06	19343
819.2	19514
819.341	19453
819.481	19578
819.622	19567
819.762	19818
819.903	19757
820.043	19655
820.184	19559
820.324	19613
820.465	19674
820.605	19685
820.746	19643
820.886	19552
821.026	19491
821.167	19670
821.307	19529
821.447	19567
821.588	19441
821.728	19373
821.868	19164
822.008	18993
822.149	18981
822.289	18973
822.429	18741
822.569	18639
822.709	18688
822.849	18471
822.99	18563
823.13	18467
823.27	18490
823.41	18319
823.55	18300
823.69	18220
823.83	18342
823.97	18125
824.11	18133
824.25	17931
824.389	18011
824.529	18167
824.669	18098
824.809	18254
824.949	18167
825.089	18106
825.228	18144
825.368	17851
825.508	18019
825.648	17866
825.787	17939
825.927	17958
826.067	17809
826.206	17707
826.346	17809
826.485	17874
826.625	17748
826.765	17942
826.904	17908
827.044	17733
827.183	17611
827.323	17509
827.462	17627
827.601	17474
827.741	17395
827.88	17668
828.02	17421
828.159	17577
828.298	17570
828.437	17649
828.577	17486
828.716	17642
828.855	17436
828.994	17246
829.134	17265
829.273	17315
829.412	17258
829.551	17273
829.69	17254
829.829	17288
829.968	17436
830.107	17326
830.246	17261
830.385	17258
830.524	17132
830.663	17124
830.802	16938
830.941	16934
831.08	16828
831.219	17003
831.357	16999
831.496	17102
831.635	16873
831.774	16915
831.913	16812
832.051	16698
832.19	16626
832.329	16702
832.467	16561
832.606	16417
832.744	16554
832.883	16531
833.022	16466
833.16	16584
833.299	16637
833.437	16565
833.576	16451
833.714	16622
833.852	16611
833.991	16649
834.129	16694
834.267	16653
834.406	16637
834.544	16584
834.682	16607
834.821	16565
834.959	16687
835.097	16550
835.235	16664
835.373	16630
835.511	16713
835.65	16481
835.788	16558
835.926	16432
836.064	16280
836.202	16386
836.34	16493
836.478	16573
836.615	16512
836.753	16554
836.891	16626
837.029	16535
837.167	16417
837.305	16466
837.443	16417
837.58	16363
837.718	16550
837.856	16276
837.993	16379
838.131	16462
838.269	16310
838.406	16276
838.544	16215
838.681	16131
838.819	16196
838.956	15865
839.094	15956
839.231	15930
839.369	16002
839.506	16413
839.643	16150
839.781	16006
839.918	15835
840.055	15918
840.193	15949
840.33	15895
840.467	15998
840.604	15994
840.742	16223
840.879	15755
841.016	15781
841.153	15819
841.29	15987
841.427	15880
841.564	16124
841.701	15941
841.838	15766
841.975	15774
842.112	15823
842.249	15736
842.385	15606
842.522	15835
842.659	15682
842.796	15709
842.933	15667
843.069	15751
843.206	15728
843.343	15728
843.479	15675
843.616	15770
843.752	15439
843.889	15500
844.025	15599
844.162	15454
844.298	15618
844.435	15450
844.571	15435
844.708	15500
844.844	15629
844.98	15667
845.117	15561
845.253	15511
845.389	15393
845.525	15389
845.661	15386
845.798	15252
845.934	15348
846.07	15180
846.206	15272
846.342	15382
846.478	15279
846.614	15119
846.75	15097
846.886	15074
847.022	15108
847.158	15062
847.294	15085
847.429	15028
847.565	14998
847.701	15245
847.837	14727
847.972	14785
848.108	14944
848.244	14853
848.379	14636
848.515	14655
848.65	14686
848.786	14777
848.921	14727
849.057	14781
849.192	14781
849.328	14762
849.463	14678
849.598	14545
849.734	14575
849.869	14431
850.004	14438
850.14	14541
850.275	14427
850.41	14256
850.545	14298
850.68	14427
850.815	14457
850.95	14362
851.085	14568
851.22	14427
851.355	14385
851.49	14362
851.625	14457
851.76	14339
851.895	14324
852.03	14366
852.165	14419
852.299	14396
852.434	14503
852.569	14507
852.703	14438
852.838	14549
852.973	14556
853.107	14598
853.242	14290
853.376	14419
853.511	14115
853.645	14313
853.78	14396
853.914	14328
854.048	14210
854.183	14256
854.317	14252
854.451	14431
854.585	14278
854.72	14248
854.854	14328
854.988	14206
855.122	14225
855.256	14157
855.39	14252
855.524	14385
855.658	14309
855.792	14290
855.926	14286
856.06	14320
856.194	14419
856.327	14358
856.461	14157
856.595	14267
856.729	14164
856.862	14446
856.996	14259
857.13	14358
857.263	14412
857.397	14431
857.53	14282
857.664	14362
857.797	14385
857.931	14427
858.064	14393
858.197	14271
858.331	14351
858.464	14240
858.597	14191
858.731	14229
858.864	14294
858.997	14210
859.13	14328
859.263	14214
859.396	14332
859.529	14244
859.662	14339
859.795	14305
859.928	14252
860.061	14381
860.194	14396
860.327	14267
860.46	14278
860.592	14400
860.725	14355
860.858	14389
860.99	14320
861.123	14218
861.256	14218
861.388	14252
861.521	14834
861.653	14088
861.786	14138
861.918	14199
862.05	14263
862.183	14233
862.315	14237
862.447	14313
862.58	14206
862.712	14084
862.844	13940
862.976	14107
863.108	14100
863.24	14434
863.372	14020
863.504	14027
863.636	14046
863.768	14084
863.9	14065
864.032	14062
864.164	14024
864.296	14054
864.428	14134
864.559	14252
864.691	14145
864.823	14153
864.954	14039
865.086	14043
865.217	13974
865.349	13986
865.48	14027
865.612	13947
865.743	14161
865.875	14065
866.006	14024
866.137	13989
866.269	14039
866.4	14073
866.531	13913
866.662	14001
866.793	13982
866.924	13963
867.055	14161
867.186	14039
867.317	13951
867.448	13902
867.579	14012
867.71	13883
867.841	14024
867.972	13955
868.103	13970
868.233	14046
868.364	14001
868.495	14126
868.625	14229
868.756	14362
868.886	14157
869.017	14206
869.147	14343
869.278	14351
869.408	14278
869.539	14164
869.669	14374
869.799	14385
869.929	14377
870.06	14377
870.19	14594
870.32	14499
870.45	14621
870.58	14689
870.71	14762
870.84	14826
870.97	14716
871.1	14606
871.23	14929
871.36	14887
871.489	14724
871.619	14880
871.749	14838
871.879	14956
872.008	15024
872.138	14914
872.267	14834
872.397	14754
872.526	14708
872.656	14750
872.785	14636
872.915	14838
873.044	14933
873.173	14982
873.303	15028
873.432	14986
873.561	15039
873.69	15062
873.819	14929
873.948	15013
874.077	14929
874.206	14937
874.335	14853
874.464	15108
874.593	15249
874.722	15226
874.851	15241
874.979	15146
875.108	15192
875.237	15188
875.365	15036
875.494	15306
875.623	15287
875.751	15283
875.88	15382
876.008	15431
876.136	15424
876.265	15713
876.393	15751
876.521	15728
876.65	15755
876.778	15614
876.906	15633
877.034	15599
877.162	15637
877.29	15629
877.418	15591
877.546	15732
877.674	15663
877.802	15690
877.93	15675
878.058	15614
878.185	15462
878.313	15614
878.441	15717
878.568	15428
878.696	15637
878.824	15705
878.951	15770
879.079	15857
879.206	16025
879.333	15926
879.461	15694
879.588	15789
879.715	15895
879.842	15876
879.97	15686
880.097	15519
880.224	15538
880.351	15515
880.478	15504
880.605	15477
880.732	15420
880.859	15660
880.986	15496
881.112	15576
881.239	15492
881.366	15291
881.493	15237
881.619	15119
881.746	15173
881.872	15180
881.999	15161
882.125	15176
882.252	15287
882.378	15138
882.505	15264
882.631	15146
882.757	14971
882.883	15081
883.01	14925
883.136	14906
883.262	14910
883.388	14800
883.514	14971
883.64	14986
883.766	14952
883.892	14823
884.018	14834
884.143	15024
884.269	15051
884.395	14765
884.52	14705
884.646	14724
884.772	14640
884.897	14533
885.023	14712
885.148	14823
885.274	14788
885.399	14754
885.524	14727
885.65	14724
885.775	14697
885.9	14773
886.025	14785
886.15	14724
886.275	14667
886.4	14530
886.525	14678
886.65	14632
886.775	14590
886.9	14735
887.025	14781
887.149	14724
887.274	14518
887.399	14511
887.523	14499
887.648	14484
887.773	14473
887.897	14621
888.021	14648
888.146	14450
888.27	14568
888.395	14705
888.519	14492
888.643	14579
888.767	14564
888.891	14507
889.015	14473
889.139	14454
889.263	14366
889.387	14552
889.511	14545
889.635	14488
889.759	14278
889.883	14377
890.006	14454
890.13	14568
890.254	14385
890.377	14290
890.501	14199
890.624	14142
890.748	14259
890.871	14138
890.995	14145
891.118	13970
891.241	14031
891.364	14157
891.488	14214
891.611	13921
891.734	14142
891.857	14103
891.98	14077
892.103	14195
892.226	14263
892.349	14039
892.471	13963
892.594	14183
892.717	14100
892.839	14096
892.962	14081
893.085	14088
893.207	14073
893.33	13970
893.452	13993
893.575	14100
893.697	14088
893.819	14240
893.941	14237
894.064	14263
894.186	14050
894.308	14024
894.43	14271
894.552	14355
894.674	14282
894.796	14050
894.918	14096
895.04	14123
895.161	14267
895.283	14199
895.405	14115
895.526	14233
895.648	14248
895.769	14362
895.891	14183
896.012	14286
896.134	14374
896.255	14237
896.376	14191
896.498	14290
896.619	14286
896.74	14233
896.861	14370
896.982	14610
897.103	14765
897.224	14625
897.345	14396
897.466	14514
897.587	14568
897.708	14708
897.828	14701
897.949	14507
898.07	14393
898.19	14492
898.311	14716
898.431	14613
898.552	14552
898.672	14762
898.792	14686
898.913	14762
899.033	14606
899.153	14469
899.273	14366
899.393	14446
899.513	14507
899.633	14465
899.753	14541
899.873	14450
899.993	14514
900.113	14457
900.232	14526
900.352	14408
900.472	14404
900.591	14347
900.711	14320
900.83	14393
900.95	14332
901.069	14484
901.189	14294
901.308	13951
901.427	13970
901.546	14020
901.665	14107
901.784	14100
901.904	13875
902.023	13849
902.141	13636
902.26	13571
902.379	13689
902.498	13605
902.617	13510
902.735	13636
902.854	13632
902.973	13582
903.091	13377
903.21	13312
903.328	13422
903.446	13183
903.565	13240
903.683	13114
903.801	13133
903.919	13183
904.038	13099
904.156	13012
904.274	13023
904.392	12924
904.51	12905
904.627	13012
904.745	13069
904.863	13057
904.981	12734
905.098	12753
905.216	12623
905.334	12639
905.451	12639
905.569	12635
905.686	12692
905.803	12646
905.921	12490
906.038	12563
906.155	12475
906.272	12490
906.389	12422
906.506	12266
906.623	12209
906.74	12201
906.857	12034
906.974	12213
907.091	12262
907.208	12357
907.324	12315
907.441	12155
907.557	11988
907.674	11954
907.79	11882
907.907	11916
908.023	12079
908.139	11977
908.256	11866
908.372	11874
908.488	11946
908.604	11752
908.72	11703
908.836	11821
908.952	11695
909.068	11809
909.184	11863
909.3	11703
909.415	11771
909.531	11756
909.647	11532
909.762	11562
909.878	11573
909.993	11543
910.108	11501
910.224	11474
910.339	11566
910.454	11315
910.57	11318
910.685	11261
910.8	11592
910.915	11547
911.03	11387
911.145	11273
911.259	11223
911.374	11170
911.489	11132
911.604	11052
911.718	10968
911.833	11045
911.947	10923
912.062	10679
912.176	10965
912.291	10968
912.405	10999
912.519	11185
912.633	11166
912.748	11048
912.862	10961
912.976	10820
913.09	10786
913.204	10869
913.318	10869
913.431	10965
913.545	10869
913.659	11033
913.772	10889
913.886	10767
914	10679
914.113	10793
914.226	10892
914.34	10771
914.453	10656
914.566	10801
914.68	10645
914.793	10691
914.906	10565
915.019	10466
915.132	10424
915.245	10500
915.358	10485
915.47	10474
915.583	10550
915.696	10535
915.809	10634
915.921	10584
916.034	10443
916.146	10470
916.259	10485
916.371	10508
916.483	10443
916.595	10428
916.708	10428
916.82	10447
916.932	10459
917.044	10367
917.156	10344
917.268	10352
917.38	10306
917.491	10284
917.603	10322
917.715	10352
917.826	10474
917.938	10375
918.049	10173
918.161	10329
918.272	10440
918.384	10432
918.495	10325
918.606	10238
918.717	10135
918.828	10192
918.939	10185
919.05	10124
919.161	10215
919.272	9991
919.383	10055
919.494	10280
919.604	10485
919.715	10204
919.826	10116
919.936	10230
920.047	10268
920.157	10246
920.267	10443
920.378	10253
920.488	10143
920.598	10489
920.708	10516
920.818	10421
920.928	10363
921.038	10603
921.148	10577
921.258	10276
921.368	10150
921.477	10105
921.587	10048
921.697	9991
921.806	10029
921.916	10006
922.025	9793
922.134	9724
922.244	9785
922.353	9846
922.462	9637
922.571	9599
922.68	9477
922.789	9485
922.898	9481
923.007	9355
923.116	9496
923.224	9496
923.333	9496
923.442	9329
923.55	9279
923.659	9359
923.767	9424
923.876	9245
923.984	9317
924.092	9294
924.201	9275
924.309	9332
924.417	9389
924.525	9275
924.633	9344
924.741	10211
924.849	9085
924.956	9279
925.064	9119
925.172	9001
925.279	9100
925.387	9135
925.494	9131
925.602	9226
925.709	9222
925.816	9062
925.924	9127
926.031	9176
926.138	9116
926.245	9249
926.352	9097
926.459	9146
926.566	9222
926.673	9085
926.779	9062
926.886	8967
926.993	8857
927.099	8807
927.206	8796
927.312	8830
927.419	8880
927.525	8807
927.631	8883
927.737	8750
927.843	8727
927.95	8613
928.056	8758
928.162	8758
928.267	8800
928.373	9393
928.479	8815
928.585	8579
928.69	8762
928.796	8792
928.901	8667
929.007	8484
929.112	8670
929.218	8636
929.323	8522
929.428	8507
929.533	8724
929.638	8522
929.743	8514
929.848	8556
929.953	8552
930.058	8454
930.163	8298
930.267	8336
930.372	8488
930.477	8298
930.581	8537
930.685	8454
930.79	8275
930.894	8282
930.998	8195
931.103	8408
931.207	8081
931.311	8043
931.415	7997
931.519	7738
931.623	7788
