Data from test_V78500241_226.txt Node
Date: Fri Mar 25 14:35:17 CST 2022
User: usil
Spectrometer: V785-0024
Trigger mode: 0
Integration Time (sec): 4.000000E-1
Scans to average: 1
Nonlinearity correction enabled: false
Boxcar width: 0
Storing dark spectrum: false
XAxis mode: Wavelengths
Number of Pixels in Spectrum: 1024
>>>>>Begin Spectral Data<<<<<
801.071	27675
801.214	27663
801.356	27424
801.499	27389
801.641	27112
801.783	27157
801.926	27096
802.068	27161
802.211	27013
802.353	27062
802.496	26815
802.638	26819
802.78	26750
802.923	26590
803.065	26476
803.208	26636
803.35	26727
803.492	26727
803.635	26895
803.777	26743
803.919	26777
804.061	27028
804.204	26880
804.346	26674
804.488	26579
804.63	26674
804.773	26526
804.915	26636
805.057	26674
805.199	26556
805.341	26804
805.483	26796
805.626	26788
805.768	26598
805.91	26796
806.052	26716
806.194	26686
806.336	26830
806.478	26765
806.62	26651
806.762	26929
806.904	27081
807.046	27135
807.188	27085
807.33	27116
807.472	27123
807.614	27207
807.756	27138
807.898	26982
808.04	26944
808.182	27085
808.324	27256
808.465	27195
808.607	27287
808.749	27633
808.891	27675
809.033	27854
809.174	27473
809.316	27435
809.458	27496
809.6	27370
809.741	27473
809.883	27363
810.025	27568
810.166	27435
810.308	27583
810.45	27382
810.591	27218
810.733	27112
810.875	27051
811.016	27157
811.158	27036
811.299	27104
811.441	27184
811.582	27188
811.724	27009
811.865	27096
812.007	26963
812.148	26975
812.29	27176
812.431	27226
812.573	27397
812.714	27462
812.855	27469
812.997	27618
813.138	27766
813.279	27606
813.421	27614
813.562	27427
813.703	27272
813.845	27389
813.986	26963
814.127	26842
814.268	26743
814.41	26644
814.551	26556
814.692	26579
814.833	26632
814.974	26594
815.115	26629
815.256	26442
815.397	26438
815.539	26511
815.68	26381
815.821	26377
815.962	26419
816.103	26320
816.244	26221
816.385	26103
816.526	26062
816.666	25906
816.807	25727
816.948	25811
817.089	25879
817.23	25788
817.371	25681
817.512	25791
817.653	25738
817.793	25700
817.934	25776
818.075	25890
818.216	25624
818.356	25704
818.497	25601
818.638	25464
818.778	25434
818.919	25464
819.06	25468
819.2	25620
819.341	25704
819.481	25746
819.622	25723
819.762	25925
819.903	26016
820.043	25727
820.184	25674
820.324	25582
820.465	25887
820.605	25670
820.746	25727
820.886	25510
821.026	25609
821.167	25655
821.307	25712
821.447	25514
821.588	25704
821.728	25476
821.868	25160
822.008	25122
822.149	25050
822.289	25065
822.429	24768
822.569	24745
822.709	24639
822.849	24532
822.99	24525
823.13	24502
823.27	24441
823.41	24433
823.55	24296
823.69	24254
823.83	24190
823.97	24350
824.11	24106
824.25	24197
824.389	24098
824.529	24201
824.669	24152
824.809	24140
824.949	24232
825.089	24121
825.228	24213
825.368	23920
825.508	23980
825.648	23939
825.787	23912
825.927	23973
826.067	23817
826.206	23859
826.346	23813
826.485	23946
826.625	23798
826.765	23973
826.904	23893
827.044	23600
827.183	23703
827.323	23455
827.462	23615
827.601	23490
827.741	23531
827.88	23531
828.02	23425
828.159	23543
828.298	23535
828.437	23535
828.577	23425
828.716	23581
828.855	23429
828.994	23334
829.134	23349
829.273	23280
829.412	23315
829.551	23128
829.69	23155
829.829	23204
829.968	23178
830.107	23296
830.246	23155
830.385	23041
830.524	23121
830.663	22972
830.802	22923
830.941	22782
831.08	22812
831.219	22930
831.357	23018
831.496	23113
831.635	22854
831.774	22733
831.913	22645
832.051	22527
832.19	22462
832.329	22588
832.467	22512
832.606	22417
832.744	22474
832.883	22360
833.022	22447
833.16	22413
833.299	22443
833.437	22402
833.576	22512
833.714	22417
833.852	22398
833.991	22527
834.129	22584
834.267	22531
834.406	22398
834.544	22504
834.682	22421
834.821	22405
834.959	22554
835.097	22432
835.235	22318
835.373	22379
835.511	22363
835.65	22234
835.788	22306
835.926	22185
836.064	22029
836.202	22093
836.34	22322
836.478	22344
836.615	22329
836.753	22249
836.891	22402
837.029	22280
837.167	22223
837.305	22196
837.443	22135
837.58	21979
837.718	22086
837.856	22173
837.993	22139
838.131	21956
838.269	21949
838.406	21899
838.544	21857
838.681	21747
838.819	21667
838.956	21637
839.094	21492
839.231	21603
839.369	21606
839.506	21991
839.643	21751
839.781	21530
839.918	21492
840.055	21492
840.193	21416
840.33	21488
840.467	21477
840.604	21416
840.742	21667
840.879	21389
841.016	21359
841.153	21386
841.29	21466
841.427	21507
841.564	21443
841.701	21408
841.838	21340
841.975	21306
842.112	21313
842.249	21161
842.385	21169
842.522	21370
842.659	21074
842.796	21123
842.933	21176
843.069	21074
843.206	21077
843.343	21161
843.479	21093
843.616	21161
843.752	20902
843.889	20956
844.025	21051
844.162	20823
844.298	20979
844.435	20765
844.571	20868
844.708	20979
844.844	21074
844.98	20941
845.117	21058
845.253	20933
845.389	20800
845.525	20887
845.661	20971
845.798	21039
845.934	21135
846.07	21093
846.206	21138
846.342	21180
846.478	20819
846.614	20571
846.75	20446
846.886	20533
847.022	20423
847.158	20385
847.294	20336
847.429	20355
847.565	20351
847.701	20480
847.837	20122
847.972	20062
848.108	20065
848.244	20145
848.379	19989
848.515	19925
848.65	19883
848.786	19860
848.921	19944
849.057	19906
849.192	20027
849.328	19997
849.463	19936
849.598	19795
849.734	19795
849.869	19761
850.004	19556
850.14	19704
850.275	19662
850.41	19434
850.545	19476
850.68	19597
850.815	19605
850.95	19552
851.085	19830
851.22	19769
851.355	19605
851.49	19457
851.625	19525
851.76	19556
851.895	19449
852.03	19601
852.165	19651
852.299	19639
852.434	19616
852.569	19624
852.703	19655
852.838	19601
852.973	19727
853.107	19613
853.242	19411
853.376	19468
853.511	19312
853.645	19343
853.78	19567
853.914	19457
854.048	19434
854.183	19441
854.317	19312
854.451	19548
854.585	19411
854.72	19369
854.854	19377
854.988	19381
855.122	19381
855.256	19354
855.39	19434
855.524	19422
855.658	19381
855.792	19392
855.926	19510
856.06	19445
856.194	19502
856.327	19419
856.461	19384
856.595	19343
856.729	19411
856.862	19518
856.996	19312
857.13	19415
857.263	19430
857.397	19556
857.53	19457
857.664	19438
857.797	19445
857.931	19457
858.064	19460
858.197	19544
858.331	19350
858.464	19297
858.597	19293
858.731	19381
858.864	19335
858.997	19377
859.13	19392
859.263	19297
859.396	19422
859.529	19320
859.662	19331
859.795	19335
859.928	19362
860.061	19449
860.194	19616
860.327	19381
860.46	19392
860.592	19403
860.725	19411
860.858	19430
860.99	19419
861.123	19228
861.256	19263
861.388	19365
861.521	20020
861.653	19251
861.786	19179
861.918	19289
862.05	19263
862.183	19400
862.315	19449
862.447	19422
862.58	19247
862.712	19133
862.844	19084
862.976	19137
863.108	19236
863.24	19605
863.372	19114
863.504	19164
863.636	19046
863.768	19107
863.9	19152
864.032	18935
864.164	18958
864.296	19053
864.428	19282
864.559	19065
864.691	19206
864.823	19008
864.954	19031
865.086	19069
865.217	19095
865.349	19053
865.48	18989
865.612	18977
865.743	19126
865.875	19072
866.006	18958
866.137	18935
866.269	18989
866.4	18935
866.531	19000
866.662	18985
866.793	18897
866.924	18890
867.055	18901
867.186	18932
867.317	18833
867.448	18867
867.579	18924
867.71	18772
867.841	18814
867.972	18970
868.103	18939
868.233	19027
868.364	18970
868.495	18954
868.625	19069
868.756	19198
868.886	19152
869.017	19202
869.147	19327
869.278	19285
869.408	19221
869.539	19175
869.669	19308
869.799	19129
869.929	19259
870.06	19266
870.19	19441
870.32	19449
870.45	19407
870.58	19567
870.71	19685
870.84	19715
870.97	19514
871.1	19620
871.23	19677
871.36	19769
871.489	19590
871.619	19791
871.749	19738
871.879	19693
872.008	19955
872.138	19826
872.267	19769
872.397	19620
872.526	19510
872.656	19491
872.785	19666
872.915	19761
873.044	19803
873.173	19761
873.303	19852
873.432	19826
873.561	19780
873.69	19909
873.819	19811
873.948	19887
874.077	19841
874.206	19742
874.335	19723
874.464	19909
874.593	20035
874.722	20054
874.851	20130
874.979	20111
875.108	20069
875.237	20035
875.365	19997
875.494	19944
875.623	20020
875.751	20005
875.88	20100
876.008	20107
876.136	20305
876.265	20408
876.393	20629
876.521	20526
876.65	20480
876.778	20476
876.906	20469
877.034	20400
877.162	20419
877.29	20374
877.418	20351
877.546	20408
877.674	20389
877.802	20218
877.93	20324
878.058	20347
878.185	20259
878.313	20549
878.441	20408
878.568	20324
878.696	20332
878.824	20537
878.951	20621
879.079	20678
879.206	20853
879.333	20823
879.461	20484
879.588	20845
879.715	20807
879.842	20963
879.97	20606
880.097	20343
880.224	20362
880.351	20431
880.478	20275
880.605	20282
880.732	20317
880.859	20503
880.986	20275
881.112	20404
881.239	20229
881.366	20069
881.493	20149
881.619	19986
881.746	19951
881.872	19974
881.999	19909
882.125	19864
882.252	19993
882.378	19852
882.505	19951
882.631	19799
882.757	19628
882.883	19746
883.01	19666
883.136	19685
883.262	19552
883.388	19548
883.514	19677
883.64	19750
883.766	19685
883.892	19529
884.018	19422
884.143	19693
884.269	19727
884.395	19453
884.52	19312
884.646	19331
884.772	19282
884.897	19346
885.023	19407
885.148	19358
885.274	19422
885.399	19430
885.524	19407
885.65	19320
885.775	19384
885.9	19301
886.025	19400
886.15	19343
886.275	19320
886.4	19168
886.525	19217
886.65	19110
886.775	19198
886.9	19468
887.025	19556
887.149	19236
887.274	19000
887.399	19046
887.523	19057
887.648	19061
887.773	18897
887.897	19141
888.021	19072
888.146	19038
888.27	19088
888.395	19133
888.519	19114
888.643	19038
888.767	19084
888.891	18962
889.015	18779
889.139	18901
889.263	18791
889.387	18993
889.511	18962
889.635	18905
889.759	18856
889.883	18848
890.006	18890
890.13	18852
890.254	18768
890.377	18738
890.501	18627
890.624	18547
890.748	18604
890.871	18414
890.995	18475
891.118	18418
891.241	18391
891.364	18464
891.488	18555
891.611	18441
891.734	18414
891.857	18582
891.98	18498
892.103	18483
892.226	18467
892.349	18338
892.471	18315
892.594	18369
892.717	18418
892.839	18319
892.962	18395
893.085	18525
893.207	18403
893.33	18239
893.452	18270
893.575	18361
893.697	18365
893.819	18471
893.941	18551
894.064	18475
894.186	18346
894.308	18338
894.43	18429
894.552	18604
894.674	18388
894.796	18376
894.918	18323
895.04	18266
895.161	18483
895.283	18452
895.405	18350
895.526	18357
895.648	18323
895.769	18422
895.891	18479
896.012	18528
896.134	18483
896.255	18327
896.376	18350
896.498	18376
896.619	18486
896.74	18498
896.861	18494
896.982	18798
897.103	18901
897.224	18753
897.345	18669
897.466	18635
897.587	18673
897.708	18768
897.828	18715
897.949	18669
898.07	18532
898.19	18654
898.311	18798
898.431	18654
898.552	18722
898.672	18692
898.792	18642
898.913	18650
899.033	18536
899.153	18426
899.273	18376
899.393	18441
899.513	18437
899.633	18445
899.753	18410
899.873	18441
899.993	18437
900.113	18391
900.232	18506
900.352	18376
900.472	18232
900.591	18228
900.711	18270
900.83	18163
900.95	18391
901.069	18365
901.189	18163
901.308	17923
901.427	17790
901.546	17912
901.665	17817
901.784	17843
901.904	17741
902.023	17771
902.141	17497
902.26	17311
902.379	17524
902.498	17337
902.617	17345
902.735	17364
902.854	17341
902.973	17227
903.091	17025
903.21	17071
903.328	16957
903.446	16961
903.565	16850
903.683	17033
903.801	16744
903.919	16873
904.038	16782
904.156	16694
904.274	16645
904.392	16672
904.51	16596
904.627	16615
904.745	16660
904.863	16611
904.981	16432
905.098	16322
905.216	16344
905.334	16322
905.451	16253
905.569	16325
905.686	16268
905.803	16306
905.921	16036
906.038	16120
906.155	16181
906.272	15956
906.389	15937
906.506	15854
906.623	15751
906.74	15876
906.857	15698
906.974	15675
907.091	15922
907.208	15880
907.324	15895
907.441	15694
907.557	15591
907.674	15477
907.79	15344
907.907	15462
908.023	15435
908.139	15526
908.256	15412
908.372	15435
908.488	15310
908.604	15222
908.72	15192
908.836	15230
908.952	15207
909.068	15214
909.184	15256
909.3	15180
909.415	15195
909.531	15195
909.647	14902
909.762	14918
909.878	14975
909.993	14857
910.108	14823
910.224	14883
910.339	14982
910.454	14701
910.57	14705
910.685	14731
910.8	15017
910.915	14960
911.03	14644
911.145	14564
911.259	14511
911.374	14537
911.489	14511
911.604	14473
911.718	14237
911.833	14210
911.947	14202
912.062	14016
912.176	14176
912.291	14256
912.405	14244
912.519	14518
912.633	14366
912.748	14267
912.862	14225
912.976	14077
913.09	14050
913.204	14031
913.318	14149
913.431	14172
913.545	14176
913.659	14161
913.772	14084
913.886	13909
914	13982
914.113	13993
914.226	14012
914.34	14008
914.453	13868
914.566	13959
914.68	13936
914.793	13761
914.906	13674
915.019	13636
915.132	13407
915.245	13597
915.358	13525
915.47	13540
915.583	13655
915.696	13567
915.809	13643
915.921	13666
916.034	13518
916.146	13518
916.259	13548
916.371	13609
916.483	13575
916.595	13403
916.708	13495
916.82	13403
916.932	13369
917.044	13369
917.156	13377
917.268	13289
917.38	13240
917.491	13217
917.603	13308
917.715	13358
917.826	13396
917.938	13217
918.049	13194
918.161	13179
918.272	13373
918.384	13278
918.495	13160
918.606	13080
918.717	12958
918.828	13149
918.939	13118
919.05	13008
919.161	12935
919.272	12829
919.383	12844
919.494	13137
919.604	13221
919.715	12996
919.826	12943
919.936	12909
920.047	13080
920.157	13050
920.267	13282
920.378	13118
920.488	12981
920.598	13122
920.708	13316
920.818	13179
920.928	13137
921.038	13362
921.148	13129
921.258	13008
921.368	12840
921.477	12764
921.587	12726
921.697	12650
921.806	12757
921.916	12681
922.025	12471
922.134	12418
922.244	12395
922.353	12422
922.462	12266
922.571	12285
922.68	12178
922.789	12152
922.898	12076
923.007	12121
923.116	12292
923.224	12045
923.333	12072
923.442	11874
923.55	11961
923.659	11927
923.767	12015
923.876	11836
923.984	11935
924.092	11805
924.201	11885
924.309	11912
924.417	11809
924.525	11726
924.633	11893
924.741	12696
924.849	11566
924.956	11802
925.064	11608
925.172	11528
925.279	11562
925.387	11566
925.494	11608
925.602	11771
925.709	11737
925.816	11463
925.924	11611
926.031	11566
926.138	11558
926.245	11589
926.352	11417
926.459	11642
926.566	11649
926.673	11478
926.779	11467
926.886	11353
926.993	11246
927.099	11201
927.206	11242
927.312	11201
927.419	11299
927.525	11231
927.631	11189
927.737	11155
927.843	11136
927.95	11033
928.056	11105
928.162	11128
928.267	11250
928.373	11581
928.479	11124
928.585	10927
928.69	11071
928.796	11075
928.901	10976
929.007	10824
929.112	10877
929.218	10881
929.323	10915
929.428	10782
929.533	10881
929.638	10733
929.743	10790
929.848	10805
929.953	10805
930.058	10622
930.163	10531
930.267	10558
930.372	10672
930.477	10565
930.581	10755
930.685	10615
930.79	10459
930.894	10508
930.998	10409
931.103	10535
931.207	10272
931.311	10128
931.415	10051
931.519	9880
931.623	9835
