Data from test_V78500241_3386.txt Node
Date: Fri Mar 25 14:57:17 CST 2022
User: usil
Spectrometer: V785-0024
Trigger mode: 0
Integration Time (sec): 4.000000E-1
Scans to average: 1
Nonlinearity correction enabled: false
Boxcar width: 0
Storing dark spectrum: false
XAxis mode: Wavelengths
Number of Pixels in Spectrum: 1024
>>>>>Begin Spectral Data<<<<<
801.071	21918
801.214	21922
801.356	21641
801.499	21610
801.641	21393
801.783	21397
801.926	21268
802.068	21260
802.211	21283
802.353	21104
802.496	20963
802.638	20838
802.78	20670
802.923	20807
803.065	20598
803.208	20617
803.35	20655
803.492	20887
803.635	20804
803.777	20594
803.919	20849
804.061	21089
804.204	20651
804.346	20537
804.488	20549
804.63	20667
804.773	20530
804.915	20583
805.057	20678
805.199	20564
805.341	20518
805.483	20659
805.626	20568
805.768	20476
805.91	20514
806.052	20598
806.194	20476
806.336	20708
806.478	20549
806.62	20522
806.762	20693
806.904	20815
807.046	20960
807.188	20864
807.33	20838
807.472	20921
807.614	20765
807.756	20876
807.898	20511
808.04	20632
808.182	20564
808.324	20636
808.465	20724
808.607	20842
808.749	20960
808.891	21028
809.033	20971
809.174	21066
809.316	20918
809.458	20899
809.6	20906
809.741	20933
809.883	20986
810.025	20994
810.166	20990
810.308	21077
810.45	21036
810.591	20853
810.733	20785
810.875	20750
811.016	20556
811.158	20617
811.299	20697
811.441	20750
811.582	20838
811.724	20651
811.865	20587
812.007	20549
812.148	20648
812.29	20571
812.431	20781
812.573	20982
812.714	21043
812.855	20998
812.997	21306
813.138	21386
813.279	21249
813.421	21150
813.562	21135
813.703	20937
813.845	20705
813.986	20434
814.127	20396
814.268	20305
814.41	20202
814.551	20183
814.692	20286
814.833	20237
814.974	20138
815.115	20256
815.256	20149
815.397	20180
815.539	20058
815.68	19993
815.821	19871
815.962	19906
816.103	20031
816.244	19765
816.385	19727
816.526	19681
816.666	19502
816.807	19369
816.948	19476
817.089	19563
817.23	19464
817.371	19346
817.512	19373
817.653	19396
817.793	19324
817.934	19350
818.075	19312
818.216	19301
818.356	19297
818.497	19148
818.638	19046
818.778	19061
818.919	18977
819.06	19012
819.2	19141
819.341	19194
819.481	19175
819.622	19381
819.762	19552
819.903	19521
820.043	19324
820.184	19320
820.324	19270
820.465	19495
820.605	19251
820.746	19274
820.886	19103
821.026	19362
821.167	19171
821.307	19320
821.447	19209
821.588	19240
821.728	19004
821.868	18878
822.008	18658
822.149	18806
822.289	18715
822.429	18422
822.569	18350
822.709	18353
822.849	18209
822.99	18190
823.13	18308
823.27	18254
823.41	18087
823.55	17870
823.69	18034
823.83	18087
823.97	17939
824.11	17714
824.25	17722
824.389	17843
824.529	17878
824.669	17813
824.809	17878
824.949	17889
825.089	17878
825.228	17840
825.368	17634
825.508	17532
825.648	17630
825.787	17665
825.927	17505
826.067	17539
826.206	17577
826.346	17642
826.485	17665
826.625	17547
826.765	17718
826.904	17539
827.044	17398
827.183	17341
827.323	17216
827.462	17368
827.601	17299
827.741	17299
827.88	17223
828.02	17109
828.159	17220
828.298	17277
828.437	17364
828.577	17296
828.716	17368
828.855	17200
828.994	17014
829.134	17071
829.273	17060
829.412	16949
829.551	16908
829.69	16949
829.829	17022
829.968	17155
830.107	17147
830.246	16987
830.385	17079
830.524	16980
830.663	16858
830.802	16744
830.941	16615
831.08	16584
831.219	16793
831.357	16660
831.496	16984
831.635	16717
831.774	16550
831.913	16603
832.051	16459
832.19	16386
832.329	16443
832.467	16455
832.606	16306
832.744	16382
832.883	16382
833.022	16375
833.16	16386
833.299	16356
833.437	16303
833.576	16493
833.714	16421
833.852	16470
833.991	16470
834.129	16478
834.267	16409
834.406	16440
834.544	16497
834.682	16466
834.821	16417
834.959	16603
835.097	16363
835.235	16459
835.373	16512
835.511	16489
835.65	16405
835.788	16314
835.926	16211
836.064	16093
836.202	16150
836.34	16325
836.478	16371
836.615	16306
836.753	16344
836.891	16421
837.029	16352
837.167	16253
837.305	16223
837.443	16234
837.58	16074
837.718	16124
837.856	16242
837.993	16120
838.131	16242
838.269	16147
838.406	16120
838.544	16021
838.681	15987
838.819	15941
838.956	15682
839.094	15713
839.231	15842
839.369	15945
839.506	16154
839.643	15987
839.781	15861
839.918	15625
840.055	15804
840.193	15751
840.33	15724
840.467	15701
840.604	15705
840.742	16040
840.879	15595
841.016	15606
841.153	15618
841.29	15854
841.427	15888
841.564	15812
841.701	15804
841.838	15652
841.975	15660
842.112	15603
842.249	15576
842.385	15538
842.522	15743
842.659	15641
842.796	15561
842.933	15622
843.069	15542
843.206	15477
843.343	15633
843.479	15587
843.616	15519
843.752	15344
843.889	15382
844.025	15462
844.162	15370
844.298	15458
844.435	15264
844.571	15264
844.708	15386
844.844	15507
844.98	15526
845.117	15405
845.253	15245
845.389	15203
845.525	15252
845.661	15252
845.798	15173
845.934	15291
846.07	15142
846.206	15199
846.342	15180
846.478	15081
846.614	14952
846.75	14906
846.886	14925
847.022	14998
847.158	14914
847.294	14792
847.429	14906
847.565	14944
847.701	15036
847.837	14663
847.972	14670
848.108	14724
848.244	14708
848.379	14556
848.515	14549
848.65	14492
848.786	14545
848.921	14465
849.057	14552
849.192	14587
849.328	14492
849.463	14503
849.598	14492
849.734	14358
849.869	14343
850.004	14248
850.14	14339
850.275	14294
850.41	14180
850.545	14290
850.68	14210
850.815	14168
850.95	14256
851.085	14431
851.22	14362
851.355	14484
851.49	14218
851.625	14278
851.76	14244
851.895	14218
852.03	14107
852.165	14294
852.299	14377
852.434	14324
852.569	14366
852.703	14294
852.838	14328
852.973	14518
853.107	14518
853.242	14267
853.376	14206
853.511	14046
853.645	14183
853.78	14218
853.914	14187
854.048	14168
854.183	14134
854.317	14164
854.451	14309
854.585	14229
854.72	14183
854.854	14164
854.988	14096
855.122	14138
855.256	14008
855.39	14176
855.524	14248
855.658	14237
855.792	14218
855.926	14180
856.06	14286
856.194	14317
856.327	14191
856.461	14168
856.595	14153
856.729	14153
856.862	14294
856.996	14176
857.13	14225
857.263	14294
857.397	14343
857.53	14237
857.664	14157
857.797	14339
857.931	14381
858.064	14278
858.197	14320
858.331	14214
858.464	14168
858.597	14088
858.731	14138
858.864	14172
858.997	14218
859.13	14229
859.263	14244
859.396	14237
859.529	14115
859.662	14115
859.795	14088
859.928	14107
860.061	14305
860.194	14400
860.327	14180
860.46	14092
860.592	14317
860.725	14469
860.858	14225
860.99	14164
861.123	13928
861.256	14115
861.388	14199
861.521	14941
861.653	14069
861.786	14024
861.918	14016
862.05	14084
862.183	14100
862.315	14130
862.447	14229
862.58	14043
862.712	14020
862.844	13894
862.976	14012
863.108	14077
863.24	14381
863.372	13947
863.504	13993
863.636	14008
863.768	14005
863.9	13982
864.032	13944
864.164	13917
864.296	14050
864.428	14050
864.559	14054
864.691	14077
864.823	14073
864.954	13947
865.086	14016
865.217	13936
865.349	13830
865.48	13944
865.612	13902
865.743	14100
865.875	14016
866.006	13947
866.137	13917
866.269	13963
866.4	13944
866.531	13814
866.662	13909
866.793	13894
866.924	13875
867.055	13982
867.186	13970
867.317	13883
867.448	13814
867.579	13822
867.71	13852
867.841	13864
867.972	13902
868.103	13936
868.233	13947
868.364	13864
868.495	14020
868.625	14214
868.756	14244
868.886	14142
869.017	14202
869.147	14336
869.278	14248
869.408	14180
869.539	14168
869.669	14237
869.799	14225
869.929	14298
870.06	14332
870.19	14571
870.32	14438
870.45	14488
870.58	14693
870.71	14792
870.84	14716
870.97	14583
871.1	14686
871.23	14727
871.36	14845
871.489	14678
871.619	14670
871.749	14750
871.879	14815
872.008	14963
872.138	14750
872.267	14739
872.397	14514
872.526	14617
872.656	14560
872.785	14564
872.915	14864
873.044	14902
873.173	14804
873.303	14815
873.432	14975
873.561	14921
873.69	14956
873.819	14800
873.948	14815
874.077	14872
874.206	14807
874.335	14876
874.464	14933
874.593	15264
874.722	15051
874.851	15199
874.979	15055
875.108	15233
875.237	15123
875.365	15043
875.494	15085
875.623	15154
875.751	15161
875.88	15192
876.008	15412
876.136	15424
876.265	15576
876.393	15603
876.521	15709
876.65	15637
876.778	15656
876.906	15542
877.034	15561
877.162	15496
877.29	15405
877.418	15507
877.546	15545
877.674	15629
877.802	15557
877.93	15633
878.058	15416
878.185	15416
878.313	15545
878.441	15549
878.568	15363
878.696	15428
878.824	15557
878.951	15576
879.079	15766
879.206	15953
879.333	15797
879.461	15698
879.588	15599
879.715	15762
879.842	15892
879.97	15641
880.097	15386
880.224	15382
880.351	15431
880.478	15466
880.605	15336
880.732	15469
880.859	15743
880.986	15420
881.112	15492
881.239	15378
881.366	15287
881.493	15077
881.619	15127
881.746	15138
881.872	15001
881.999	15074
882.125	15047
882.252	15093
882.378	15150
882.505	15245
882.631	15028
882.757	14902
882.883	14933
883.01	14876
883.136	14743
883.262	14804
883.388	14830
883.514	14918
883.64	14891
883.766	14902
883.892	14838
884.018	14758
884.143	14891
884.269	15032
884.395	14750
884.52	14556
884.646	14568
884.772	14499
884.897	14533
885.023	14492
885.148	14727
885.274	14720
885.399	14777
885.524	14632
885.65	14602
885.775	14689
885.9	14602
886.025	14678
886.15	14670
886.275	14678
886.4	14446
886.525	14594
886.65	14480
886.775	14549
886.9	14701
887.025	14906
887.149	14636
887.274	14461
887.399	14385
887.523	14317
887.648	14332
887.773	14343
887.897	14480
888.021	14530
888.146	14404
888.27	14499
888.395	14701
888.519	14560
888.643	14514
888.767	14476
888.891	14294
889.015	14347
889.139	14377
889.263	14290
889.387	14393
889.511	14476
889.635	14355
889.759	14225
889.883	14256
890.006	14389
890.13	14305
890.254	14229
890.377	14305
890.501	14153
890.624	14130
890.748	14229
890.871	14065
890.995	14016
891.118	13928
891.241	13921
891.364	14027
891.488	14149
891.611	14024
891.734	13970
891.857	14046
891.98	13989
892.103	14073
892.226	14069
892.349	13963
892.471	13871
892.594	13921
892.717	13993
892.839	13928
892.962	14058
893.085	14084
893.207	13974
893.33	13864
893.452	13883
893.575	14111
893.697	14024
893.819	14180
893.941	14126
894.064	14191
894.186	13955
894.308	14016
894.43	14054
894.552	14221
894.674	14176
894.796	14062
894.918	14065
895.04	14058
895.161	14138
895.283	14138
895.405	14050
895.526	14084
895.648	14229
895.769	14267
895.891	14138
896.012	14221
896.134	14164
896.255	14142
896.376	14119
896.498	14084
896.619	14214
896.74	14252
896.861	14244
896.982	14522
897.103	14701
897.224	14545
897.345	14431
897.466	14328
897.587	14423
897.708	14541
897.828	14454
897.949	14450
898.07	14313
898.19	14488
898.311	14663
898.431	14499
898.552	14590
898.672	14636
898.792	14640
898.913	14488
899.033	14442
899.153	14336
899.273	14358
899.393	14415
899.513	14370
899.633	14355
899.753	14400
899.873	14499
899.993	14492
900.113	14324
900.232	14396
900.352	14362
900.472	14320
900.591	14123
900.711	14317
900.83	14145
900.95	14431
901.069	14385
901.189	14145
901.308	14065
901.427	13830
901.546	13887
901.665	14046
901.784	13928
901.904	13803
902.023	13757
902.141	13552
902.26	13495
902.379	13670
902.498	13537
902.617	13419
902.735	13495
902.854	13445
902.973	13472
903.091	13194
903.21	13152
903.328	13183
903.446	13206
903.565	13019
903.683	13129
903.801	12966
903.919	13149
904.038	13008
904.156	12825
904.274	13012
904.392	12821
904.51	12798
904.627	12852
904.745	12932
904.863	12905
904.981	12681
905.098	12582
905.216	12570
905.334	12585
905.451	12574
905.569	12490
905.686	12684
905.803	12570
905.921	12407
906.038	12540
906.155	12437
906.272	12311
906.389	12311
906.506	12186
906.623	12148
906.74	12171
906.857	12015
906.974	12110
907.091	12148
907.208	12258
907.324	12136
907.441	12076
907.557	11958
907.674	11931
907.79	11851
907.907	11847
908.023	11901
908.139	11969
908.256	11889
908.372	11863
908.488	11817
908.604	11729
908.72	11638
908.836	11691
908.952	11653
909.068	11649
909.184	11695
909.3	11627
909.415	11779
909.531	11638
909.647	11417
909.762	11493
909.878	11455
909.993	11471
910.108	11471
910.224	11372
910.339	11467
910.454	11330
910.57	11258
910.685	11277
910.8	11520
910.915	11429
911.03	11345
911.145	11151
911.259	11212
911.374	11086
911.489	11098
911.604	10976
911.718	10900
911.833	10900
911.947	10850
912.062	10786
912.176	10801
912.291	10869
912.405	10850
912.519	11143
912.633	11140
912.748	10961
912.862	10934
912.976	10824
913.09	10717
913.204	10820
913.318	10782
913.431	10900
913.545	10839
913.659	10938
913.772	10778
913.886	10626
914	10584
914.113	10805
914.226	10759
914.34	10767
914.453	10653
914.566	10694
914.68	10653
914.793	10656
914.906	10481
915.019	10409
915.132	10413
915.245	10424
915.358	10409
915.47	10485
915.583	10363
915.696	10443
915.809	10565
915.921	10561
916.034	10398
916.146	10352
916.259	10360
916.371	10455
916.483	10440
916.595	10246
916.708	10322
916.82	10390
916.932	10303
917.044	10287
917.156	10253
917.268	10249
917.38	10230
917.491	10268
917.603	10276
917.715	10367
917.826	10440
917.938	10211
918.049	10093
918.161	10249
918.272	10356
918.384	10432
918.495	10314
918.606	10139
918.717	10029
918.828	10116
918.939	10207
919.05	10032
919.161	10162
919.272	9907
919.383	9975
919.494	10177
919.604	10398
919.715	10112
919.826	10055
919.936	10112
920.047	10188
920.157	10196
920.267	10303
920.378	10215
920.488	10154
920.598	10310
920.708	10481
920.818	10421
920.928	10322
921.038	10500
921.148	10489
921.258	10173
921.368	10128
921.477	10044
921.587	10002
921.697	9926
921.806	9987
921.916	9918
922.025	9793
922.134	9728
922.244	9622
922.353	9724
922.462	9572
922.571	9545
922.68	9370
922.789	9428
922.898	9420
923.007	9431
923.116	9458
923.224	9450
923.333	9424
923.442	9340
923.55	9268
923.659	9386
923.767	9393
923.876	9279
923.984	9310
924.092	9218
924.201	9294
924.309	9340
924.417	9253
924.525	9131
924.633	9249
924.741	10131
924.849	9062
924.956	9176
925.064	9024
925.172	8971
925.279	8990
925.387	9081
925.494	9093
925.602	9226
925.709	9097
925.816	8994
925.924	9058
926.031	9123
926.138	9051
926.245	9142
926.352	9089
926.459	9203
926.566	9131
926.673	9032
926.779	8918
926.886	8956
926.993	8800
927.099	8754
927.206	8758
927.312	8735
927.419	8746
927.525	8872
927.631	8857
927.737	8621
927.843	8674
927.95	8583
928.056	8716
928.162	8659
928.267	8712
928.373	9351
928.479	8842
928.585	8560
928.69	8724
928.796	8705
928.901	8564
929.007	8404
929.112	8568
929.218	8579
929.323	8473
929.428	8507
929.533	8663
929.638	8434
929.743	8423
929.848	8560
929.953	8480
930.058	8446
930.163	8286
930.267	8244
930.372	8377
930.477	8244
930.581	8454
930.685	8408
930.79	8210
930.894	8290
930.998	8195
931.103	8275
931.207	8001
931.311	7944
931.415	7902
931.519	7658
931.623	7700
