Data from test_V78500241_3612.txt Node
Date: Fri Mar 25 14:58:52 CST 2022
User: usil
Spectrometer: V785-0024
Trigger mode: 0
Integration Time (sec): 4.000000E-1
Scans to average: 1
Nonlinearity correction enabled: false
Boxcar width: 0
Storing dark spectrum: false
XAxis mode: Wavelengths
Number of Pixels in Spectrum: 1024
>>>>>Begin Spectral Data<<<<<
801.071	21998
801.214	21709
801.356	21591
801.499	21466
801.641	21367
801.783	21291
801.926	21313
802.068	21245
802.211	21104
802.353	21207
802.496	20864
802.638	20849
802.78	20777
802.923	20590
803.065	20492
803.208	20488
803.35	20514
803.492	20686
803.635	20716
803.777	20636
803.919	20716
804.061	20948
804.204	20587
804.346	20492
804.488	20495
804.63	20575
804.773	20549
804.915	20495
805.057	20518
805.199	20518
805.341	20522
805.483	20571
805.626	20609
805.768	20522
805.91	20541
806.052	20522
806.194	20450
806.336	20568
806.478	20457
806.62	20362
806.762	20503
806.904	20705
807.046	20804
807.188	20781
807.33	20834
807.472	20887
807.614	20762
807.756	20750
807.898	20613
808.04	20682
808.182	20522
808.324	20465
808.465	20564
808.607	20800
808.749	20853
808.891	20929
809.033	20948
809.174	20986
809.316	20823
809.458	20899
809.6	20819
809.741	20872
809.883	20906
810.025	20933
810.166	20963
810.308	20967
810.45	20868
810.591	20929
810.733	20765
810.875	20689
811.016	20492
811.158	20541
811.299	20689
811.441	20606
811.582	20792
811.724	20526
811.865	20518
812.007	20537
812.148	20514
812.29	20678
812.431	20826
812.573	20941
812.714	21055
812.855	21116
812.997	21142
813.138	21256
813.279	21302
813.421	21138
813.562	21070
813.703	21020
813.845	20705
813.986	20454
814.127	20294
814.268	20195
814.41	20153
814.551	20134
814.692	20153
814.833	20202
814.974	19993
815.115	20122
815.256	19875
815.397	20077
815.539	19978
815.68	19868
815.821	19727
815.962	19871
816.103	19967
816.244	19795
816.385	19552
816.526	19594
816.666	19339
816.807	19209
816.948	19304
817.089	19426
817.23	19377
817.371	19247
817.512	19251
817.653	19228
817.793	19232
817.934	19244
818.075	19369
818.216	19244
818.356	19266
818.497	19118
818.638	18943
818.778	18958
818.919	19019
819.06	19061
819.2	19187
819.341	19209
819.481	19221
819.622	19316
819.762	19521
819.903	19331
820.043	19358
820.184	19266
820.324	19217
820.465	19308
820.605	19244
820.746	19232
820.886	19088
821.026	19266
821.167	19206
821.307	19274
821.447	19247
821.588	19091
821.728	19000
821.868	18954
822.008	18684
822.149	18730
822.289	18745
822.429	18361
822.569	18437
822.709	18232
822.849	18167
822.99	18034
823.13	18140
823.27	18034
823.41	17863
823.55	17893
823.69	18026
823.83	17965
823.97	17965
824.11	17798
824.25	17638
824.389	17737
824.529	17855
824.669	17733
824.809	17824
824.949	17878
825.089	17756
825.228	17737
825.368	17547
825.508	17585
825.648	17516
825.787	17516
825.927	17611
826.067	17543
826.206	17524
826.346	17467
826.485	17611
826.625	17577
826.765	17596
826.904	17539
827.044	17261
827.183	17273
827.323	17212
827.462	17181
827.601	17200
827.741	17212
827.88	17258
828.02	17117
828.159	17162
828.298	17212
828.437	17216
828.577	17231
828.716	17280
828.855	17132
828.994	17006
829.134	16972
829.273	16919
829.412	17010
829.551	16908
829.69	16938
829.829	16972
829.968	17037
830.107	16968
830.246	17025
830.385	16904
830.524	17025
830.663	16934
830.802	16805
830.941	16531
831.08	16660
831.219	16649
831.357	16656
831.496	16786
831.635	16664
831.774	16478
831.913	16554
832.051	16470
832.19	16493
832.329	16413
832.467	16177
832.606	16287
832.744	16398
832.883	16238
833.022	16402
833.16	16265
833.299	16337
833.437	16303
833.576	16337
833.714	16306
833.852	16382
833.991	16363
834.129	16402
834.267	16360
834.406	16310
834.544	16428
834.682	16287
834.821	16284
834.959	16538
835.097	16360
835.235	16322
835.373	16352
835.511	16432
835.65	16226
835.788	16223
835.926	16135
836.064	16040
836.202	16116
836.34	16303
836.478	16325
836.615	16207
836.753	16306
836.891	16363
837.029	16310
837.167	16249
837.305	16268
837.443	16181
837.58	16029
837.718	16242
837.856	16109
837.993	16154
838.131	16090
838.269	16097
838.406	16071
838.544	15922
838.681	15888
838.819	15922
838.956	15648
839.094	15660
839.231	15724
839.369	15892
839.506	16059
839.643	15998
839.781	15770
839.918	15606
840.055	15789
840.193	15656
840.33	15648
840.467	15747
840.604	15694
840.742	15960
840.879	15568
841.016	15580
841.153	15530
841.29	15785
841.427	15759
841.564	15732
841.701	15720
841.838	15675
841.975	15724
842.112	15694
842.249	15580
842.385	15488
842.522	15637
842.659	15519
842.796	15511
842.933	15515
843.069	15424
843.206	15526
843.343	15568
843.479	15504
843.616	15519
843.752	15313
843.889	15245
844.025	15443
844.162	15275
844.298	15348
844.435	15275
844.571	15272
844.708	15378
844.844	15367
844.98	15359
845.117	15317
845.253	15260
845.389	15093
845.525	15119
845.661	15138
845.798	15039
845.934	15150
846.07	15104
846.206	15142
846.342	15256
846.478	14956
846.614	14872
846.75	14853
846.886	14807
847.022	14910
847.158	14807
847.294	14902
847.429	14906
847.565	14876
847.701	15131
847.837	14636
847.972	14518
848.108	14640
848.244	14644
848.379	14518
848.515	14404
848.65	14396
848.786	14408
848.921	14400
849.057	14610
849.192	14514
849.328	14450
849.463	14545
849.598	14400
849.734	14396
849.869	14336
850.004	14294
850.14	14248
850.275	14267
850.41	14050
850.545	14191
850.68	14176
850.815	14286
850.95	14286
851.085	14347
851.22	14271
851.355	14271
851.49	14218
851.625	14187
851.76	14248
851.895	14199
852.03	14043
852.165	14263
852.299	14172
852.434	14309
852.569	14332
852.703	14229
852.838	14286
852.973	14347
853.107	14366
853.242	14221
853.376	14176
853.511	14012
853.645	14077
853.78	14214
853.914	14107
854.048	14035
854.183	14054
854.317	14157
854.451	14252
854.585	14115
854.72	14123
854.854	14043
854.988	13967
855.122	14069
855.256	13967
855.39	14092
855.524	14100
855.658	14096
855.792	14164
855.926	14100
856.06	14145
856.194	14275
856.327	14199
856.461	14107
856.595	14035
856.729	14065
856.862	14126
856.996	14111
857.13	14176
857.263	14286
857.397	14240
857.53	14084
857.664	14202
857.797	14214
857.931	14244
858.064	14161
858.197	14286
858.331	14077
858.464	14103
858.597	13940
858.731	14100
858.864	14126
858.997	14084
859.13	14180
859.263	14164
859.396	14164
859.529	14084
859.662	14103
859.795	14039
859.928	14126
860.061	14248
860.194	14275
860.327	14092
860.46	14153
860.592	14259
860.725	14183
860.858	14149
860.99	14039
861.123	14111
861.256	13947
861.388	14073
861.521	14937
861.653	14065
861.786	13837
861.918	13940
862.05	13917
862.183	14043
862.315	14088
862.447	14176
862.58	14062
862.712	13947
862.844	13849
862.976	13947
863.108	13868
863.24	14218
863.372	13795
863.504	13864
863.636	13944
863.768	13925
863.9	13894
864.032	13833
864.164	13799
864.296	13913
864.428	14035
864.559	13978
864.691	13906
864.823	13951
864.954	13947
865.086	13936
865.217	13963
865.349	13826
865.48	13860
865.612	13833
865.743	14027
865.875	13849
866.006	13879
866.137	13894
866.269	13845
866.4	13928
866.531	13833
866.662	13875
866.793	13845
866.924	13795
867.055	13879
867.186	13856
867.317	13803
867.448	13822
867.579	13784
867.71	13864
867.841	13784
867.972	13833
868.103	13830
868.233	13833
868.364	13795
868.495	13906
868.625	14149
868.756	14138
868.886	13986
869.017	14164
869.147	14221
869.278	14187
869.408	14172
869.539	14199
869.669	14130
869.799	14115
869.929	14225
870.06	14290
870.19	14533
870.32	14385
870.45	14533
870.58	14495
870.71	14712
870.84	14621
870.97	14454
871.1	14499
871.23	14792
871.36	14746
871.489	14613
871.619	14743
871.749	14716
871.879	14765
872.008	14773
872.138	14712
872.267	14762
872.397	14518
872.526	14610
872.656	14568
872.785	14511
872.915	14765
873.044	14853
873.173	14750
873.303	14826
873.432	14792
873.561	14823
873.69	14834
873.819	14838
873.948	14815
874.077	14800
874.206	14716
874.335	14716
874.464	14971
874.593	15047
874.722	15051
874.851	15104
874.979	15108
875.108	15112
875.237	15108
875.365	15051
875.494	15138
875.623	15135
875.751	15032
875.88	15135
876.008	15214
876.136	15268
876.265	15504
876.393	15587
876.521	15648
876.65	15545
876.778	15542
876.906	15450
877.034	15553
877.162	15466
877.29	15511
877.418	15606
877.546	15458
877.674	15523
877.802	15523
877.93	15454
878.058	15431
878.185	15488
878.313	15519
878.441	15507
878.568	15359
878.696	15367
878.824	15507
878.951	15557
879.079	15584
879.206	15861
879.333	15576
879.461	15572
879.588	15622
879.715	15804
879.842	15861
879.97	15542
880.097	15393
880.224	15317
880.351	15416
880.478	15382
880.605	15374
880.732	15367
880.859	15595
880.986	15367
881.112	15447
881.239	15294
881.366	15195
881.493	15013
881.619	15055
881.746	14979
881.872	14979
881.999	14956
882.125	14910
882.252	15028
882.378	14979
882.505	15176
882.631	14990
882.757	14804
882.883	14910
883.01	14868
883.136	14762
883.262	14644
883.388	14568
883.514	14777
883.64	14933
883.766	14861
883.892	14667
884.018	14689
884.143	14773
884.269	14918
884.395	14621
884.52	14549
884.646	14632
884.772	14442
884.897	14336
885.023	14640
885.148	14693
885.274	14705
885.399	14682
885.524	14670
885.65	14602
885.775	14587
885.9	14450
886.025	14712
886.15	14533
886.275	14514
886.4	14526
886.525	14579
886.65	14450
886.775	14488
886.9	14674
887.025	14811
887.149	14503
887.274	14465
887.399	14332
887.523	14415
887.648	14248
887.773	14309
887.897	14431
888.021	14446
888.146	14301
888.27	14499
888.395	14469
888.519	14374
888.643	14488
888.767	14415
888.891	14298
889.015	14256
889.139	14320
889.263	14252
889.387	14324
889.511	14412
889.635	14377
889.759	14210
889.883	14240
890.006	14294
890.13	14355
890.254	14149
890.377	14183
890.501	14115
890.624	14062
890.748	14119
890.871	14012
890.995	13913
891.118	13883
891.241	13959
891.364	13898
891.488	14058
891.611	13883
891.734	14043
891.857	14039
891.98	14054
892.103	14035
892.226	13989
892.349	13997
892.471	13719
892.594	13909
892.717	13932
892.839	13894
892.962	13898
893.085	14039
893.207	13955
893.33	13902
893.452	13841
893.575	13978
893.697	13967
893.819	14119
893.941	14153
894.064	14195
894.186	13940
894.308	13909
894.43	14145
894.552	14138
894.674	14176
894.796	13894
894.918	14027
895.04	13890
895.161	14039
895.283	13993
895.405	14024
895.526	14081
895.648	14077
895.769	14039
895.891	14161
896.012	14221
896.134	14096
896.255	14149
896.376	14062
896.498	14126
896.619	14210
896.74	14157
896.861	14138
896.982	14495
897.103	14583
897.224	14343
897.345	14400
897.466	14282
897.587	14385
897.708	14336
897.828	14473
897.949	14317
898.07	14339
898.19	14385
898.311	14484
898.431	14339
898.552	14461
898.672	14507
898.792	14537
898.913	14583
899.033	14396
899.153	14408
899.273	14263
899.393	14244
899.513	14374
899.633	14419
899.753	14278
899.873	14248
899.993	14423
900.113	14393
900.232	14317
900.352	14282
900.472	14259
900.591	14081
900.711	14240
900.83	14157
900.95	14301
901.069	14358
901.189	14176
901.308	13909
901.427	13852
901.546	13887
901.665	13947
901.784	13875
901.904	13719
902.023	13605
902.141	13499
902.26	13457
902.379	13502
902.498	13396
902.617	13373
902.735	13426
902.854	13312
902.973	13388
903.091	13091
903.21	13122
903.328	13183
903.446	13103
903.565	13038
903.683	13004
903.801	12890
903.919	12882
904.038	13008
904.156	12886
904.274	12802
904.392	12810
904.51	12802
904.627	12806
904.745	12844
904.863	12962
904.981	12658
905.098	12601
905.216	12623
905.334	12471
905.451	12475
905.569	12547
905.686	12528
905.803	12486
905.921	12315
906.038	12353
906.155	12311
906.272	12270
906.389	12357
906.506	12079
906.623	12121
906.74	12083
906.857	12011
906.974	12007
907.091	12243
907.208	12270
907.324	12209
907.441	12049
907.557	11863
907.674	11935
907.79	11798
907.907	11916
908.023	11859
908.139	11920
908.256	11870
908.372	11764
908.488	11695
908.604	11623
908.72	11528
908.836	11684
908.952	11596
909.068	11684
909.184	11668
909.3	11661
909.415	11710
909.531	11600
909.647	11425
909.762	11376
909.878	11368
909.993	11490
910.108	11376
910.224	11368
910.339	11360
910.454	11288
910.57	11174
910.685	11220
910.8	11471
910.915	11360
911.03	11254
911.145	11178
911.259	11037
911.374	11166
911.489	11086
911.604	10953
911.718	10847
911.833	10927
911.947	10801
912.062	10626
912.176	10900
912.291	10850
912.405	10824
912.519	11025
912.633	11083
912.748	10995
912.862	10919
912.976	10763
913.09	10561
913.204	10641
913.318	10755
913.431	10801
913.545	10843
913.659	10790
913.772	10717
913.886	10615
914	10584
914.113	10698
914.226	10812
914.34	10752
914.453	10554
914.566	10733
914.68	10615
914.793	10523
914.906	10424
915.019	10287
915.132	10200
915.245	10447
915.358	10462
915.47	10398
915.583	10333
915.696	10436
915.809	10527
915.921	10584
916.034	10424
916.146	10295
916.259	10356
916.371	10440
916.483	10382
916.595	10322
916.708	10295
916.82	10249
916.932	10314
917.044	10284
917.156	10310
917.268	10185
917.38	10246
917.491	10261
917.603	10249
917.715	10219
917.826	10322
917.938	10230
918.049	10086
918.161	10181
918.272	10280
918.384	10268
918.495	10188
918.606	10071
918.717	9911
918.828	10169
918.939	10116
919.05	10029
919.161	10120
919.272	9884
919.383	10002
919.494	10158
919.604	10303
919.715	10128
919.826	9987
919.936	10067
920.047	10257
920.157	10150
920.267	10371
920.378	10166
920.488	10032
920.598	10329
920.708	10516
920.818	10253
920.928	10287
921.038	10451
921.148	10443
921.258	10128
921.368	10055
921.477	9956
921.587	9998
921.697	9842
921.806	9956
921.916	9838
922.025	9648
922.134	9610
922.244	9603
922.353	9705
922.462	9591
922.571	9435
922.68	9401
922.789	9351
922.898	9428
923.007	9310
923.116	9424
923.224	9370
923.333	9363
923.442	9211
923.55	9192
923.659	9283
923.767	9344
923.876	9199
923.984	9313
924.092	9146
924.201	9233
924.309	9260
924.417	9260
924.525	9249
924.633	9207
924.741	10013
924.849	8937
924.956	9108
925.064	8994
925.172	9001
925.279	8979
925.387	9074
925.494	9009
925.602	9150
925.709	9055
925.816	8960
925.924	9020
926.031	9112
926.138	9036
926.245	9127
926.352	8960
926.459	9150
926.566	9104
926.673	9020
926.779	8883
926.886	8853
926.993	8746
927.099	8796
927.206	8667
927.312	8739
927.419	8800
927.525	8720
927.631	8830
927.737	8686
927.843	8625
927.95	8552
928.056	8617
928.162	8659
928.267	8674
928.373	9180
928.479	8781
928.585	8499
928.69	8606
928.796	8724
928.901	8545
929.007	8461
929.112	8587
929.218	8549
929.323	8438
929.428	8469
929.533	8617
929.638	8385
929.743	8446
929.848	8446
929.953	8400
930.058	8393
930.163	8199
930.267	8195
930.372	8358
930.477	8225
930.581	8438
930.685	8343
930.79	8172
930.894	8221
930.998	8180
931.103	8332
931.207	7978
931.311	7928
931.415	7936
931.519	7708
931.623	7639
