Data from test_V78500241_1364.txt Node
Date: Fri Mar 25 14:43:12 CST 2022
User: usil
Spectrometer: V785-0024
Trigger mode: 0
Integration Time (sec): 4.000000E-1
Scans to average: 1
Nonlinearity correction enabled: false
Boxcar width: 0
Storing dark spectrum: false
XAxis mode: Wavelengths
Number of Pixels in Spectrum: 1024
>>>>>Begin Spectral Data<<<<<
801.071	22485
801.214	22405
801.356	22082
801.499	22006
801.641	21682
801.783	21819
801.926	21846
802.068	21918
802.211	21591
802.353	21561
802.496	21408
802.638	21207
802.78	21233
802.923	21294
803.065	21055
803.208	21100
803.35	21203
803.492	21192
803.635	21233
803.777	21195
803.919	21249
804.061	21454
804.204	21203
804.346	21165
804.488	21020
804.63	21096
804.773	20948
804.915	21036
805.057	21264
805.199	21077
805.341	21165
805.483	21252
805.626	21252
805.768	21005
805.91	21043
806.052	21100
806.194	21112
806.336	21199
806.478	21233
806.62	21142
806.762	21230
806.904	21306
807.046	21534
807.188	21462
807.33	21492
807.472	21477
807.614	21443
807.756	21523
807.898	21481
808.04	21329
808.182	21412
808.324	21313
808.465	21447
808.607	21633
808.749	21709
808.891	21797
809.033	21975
809.174	21774
809.316	21641
809.458	21667
809.6	21637
809.741	21587
809.883	21591
810.025	21827
810.166	21641
810.308	21637
810.45	21717
810.591	21622
810.733	21420
810.875	21298
811.016	21165
811.158	21116
811.299	21241
811.441	21397
811.582	21443
811.724	21207
811.865	21195
812.007	21272
812.148	21214
812.29	21363
812.431	21504
812.573	21587
812.714	21759
812.855	21663
812.997	21884
813.138	21983
813.279	21861
813.421	21762
813.562	21804
813.703	21500
813.845	21466
813.986	21138
814.127	21051
814.268	20864
814.41	20880
814.551	20944
814.692	20944
814.833	20845
814.974	20986
815.115	20674
815.256	20663
815.397	20686
815.539	20678
815.68	20678
815.821	20461
815.962	20648
816.103	20571
816.244	20336
816.385	20286
816.526	20320
816.666	20256
816.807	20005
816.948	20039
817.089	20054
817.23	20058
817.371	19947
817.512	19955
817.653	19887
817.793	19879
817.934	20016
818.075	19906
818.216	19947
818.356	19932
818.497	19746
818.638	19605
818.778	19632
818.919	19639
819.06	19693
819.2	19643
819.341	19814
819.481	19833
819.622	20005
819.762	20218
819.903	20088
820.043	19864
820.184	19868
820.324	19906
820.465	20020
820.605	19947
820.746	19906
820.886	19849
821.026	19811
821.167	19887
821.307	20096
821.447	19970
821.588	19765
821.728	19757
821.868	19521
822.008	19339
822.149	19320
822.289	19251
822.429	19088
822.569	19129
822.709	19031
822.849	18863
822.99	18875
823.13	18863
823.27	18768
823.41	18658
823.55	18456
823.69	18601
823.83	18650
823.97	18536
824.11	18475
824.25	18452
824.389	18540
824.529	18471
824.669	18407
824.809	18574
824.949	18585
825.089	18483
825.228	18384
825.368	18228
825.508	18273
825.648	18277
825.787	18216
825.927	18285
826.067	18125
826.206	18083
826.346	18220
826.485	18285
826.625	18186
826.765	18270
826.904	18372
827.044	17931
827.183	17965
827.323	17942
827.462	17958
827.601	17901
827.741	17824
827.88	17969
828.02	17745
828.159	17859
828.298	17889
828.437	17889
828.577	17840
828.716	18045
828.855	17847
828.994	17760
829.134	17646
829.273	17718
829.412	17695
829.551	17539
829.69	17623
829.829	17554
829.968	17710
830.107	17760
830.246	17608
830.385	17535
830.524	17611
830.663	17482
830.802	17322
830.941	17250
831.08	17223
831.219	17379
831.357	17299
831.496	17463
831.635	17250
831.774	17166
831.913	17174
832.051	17003
832.19	17064
832.329	17075
832.467	17079
832.606	16892
832.744	16828
832.883	16908
833.022	16930
833.16	16984
833.299	17010
833.437	17033
833.576	17025
833.714	17090
833.852	17056
833.991	17052
834.129	16987
834.267	17098
834.406	17113
834.544	17113
834.682	16991
834.821	17064
834.959	17200
835.097	16965
835.235	17003
835.373	17033
835.511	16965
835.65	17029
835.788	16934
835.926	16698
836.064	16733
836.202	16755
836.34	16889
836.478	16938
836.615	16923
836.753	16839
836.891	17022
837.029	16946
837.167	16915
837.305	16862
837.443	16831
837.58	16675
837.718	16873
837.856	16752
837.993	16786
838.131	16725
838.269	16675
838.406	16599
838.544	16637
838.681	16474
838.819	16421
838.956	16341
839.094	16318
839.231	16314
839.369	16402
839.506	16706
839.643	16538
839.781	16280
839.918	16306
840.055	16268
840.193	16257
840.33	16287
840.467	16344
840.604	16363
840.742	16603
840.879	16219
841.016	16204
841.153	16150
841.29	16462
841.427	16284
841.564	16417
841.701	16310
841.838	16261
841.975	16257
842.112	16223
842.249	16032
842.385	16112
842.522	16249
842.659	16124
842.796	16093
842.933	16116
843.069	16112
843.206	15937
843.343	16158
843.479	16097
843.616	16158
843.752	15899
843.889	15835
844.025	15994
844.162	15846
844.298	16006
844.435	15823
844.571	15713
844.708	15918
844.844	16017
844.98	16105
845.117	16048
845.253	15918
845.389	15816
845.525	15899
845.661	15987
845.798	15838
845.934	16013
846.07	15918
846.206	16021
846.342	16071
846.478	15838
846.614	15595
846.75	15397
846.886	15450
847.022	15496
847.158	15496
847.294	15462
847.429	15408
847.565	15447
847.701	15690
847.837	15058
847.972	15184
848.108	15344
848.244	15203
848.379	15066
848.515	15039
848.65	14982
848.786	15070
848.921	14986
849.057	15146
849.192	15024
849.328	15058
849.463	15119
849.598	15005
849.734	14910
849.869	14967
850.004	14823
850.14	14838
850.275	14758
850.41	14765
850.545	14762
850.68	14849
850.815	14716
850.95	14735
851.085	14902
851.22	14868
851.355	14845
851.49	14804
851.625	14686
851.76	14868
851.895	14754
852.03	14697
852.165	14701
852.299	14899
852.434	14853
852.569	14777
852.703	14819
852.838	14880
852.973	14975
853.107	15051
853.242	14788
853.376	14636
853.511	14511
853.645	14549
853.78	14762
853.914	14686
854.048	14701
854.183	14632
854.317	14716
854.451	14826
854.585	14701
854.72	14625
854.854	14769
854.988	14659
855.122	14659
855.256	14590
855.39	14632
855.524	14773
855.658	14651
855.792	14693
855.926	14708
856.06	14781
856.194	14758
856.327	14659
856.461	14560
856.595	14613
856.729	14659
856.862	14727
856.996	14648
857.13	14800
857.263	14788
857.397	14762
857.53	14712
857.664	14701
857.797	14819
857.931	14750
858.064	14659
858.197	14773
858.331	14670
858.464	14632
858.597	14598
858.731	14689
858.864	14659
858.997	14659
859.13	14659
859.263	14724
859.396	14807
859.529	14629
859.662	14579
859.795	14629
859.928	14674
860.061	14712
860.194	14937
860.327	14765
860.46	14705
860.592	14788
860.725	14762
860.858	14712
860.99	14613
861.123	14613
861.256	14552
861.388	14716
861.521	15412
861.653	14503
861.786	14446
861.918	14545
862.05	14655
862.183	14568
862.315	14739
862.447	14648
862.58	14514
862.712	14362
862.844	14438
862.976	14404
863.108	14575
863.24	14777
863.372	14347
863.504	14476
863.636	14366
863.768	14377
863.9	14530
864.032	14415
864.164	14431
864.296	14457
864.428	14590
864.559	14492
864.691	14545
864.823	14454
864.954	14484
865.086	14545
865.217	14358
865.349	14427
865.48	14343
865.612	14381
865.743	14484
865.875	14454
866.006	14457
866.137	14438
866.269	14408
866.4	14332
866.531	14336
866.662	14336
866.793	14366
866.924	14473
867.055	14389
867.186	14347
867.317	14374
867.448	14374
867.579	14431
867.71	14347
867.841	14351
867.972	14446
868.103	14377
868.233	14457
868.364	14488
868.495	14575
868.625	14583
868.756	14720
868.886	14564
869.017	14708
869.147	14727
869.278	14750
869.408	14705
869.539	14621
869.669	14720
869.799	14708
869.929	14792
870.06	14899
870.19	14998
870.32	15020
870.45	15039
870.58	15112
870.71	15138
870.84	15252
870.97	15077
871.1	14994
871.23	15226
871.36	15287
871.489	15176
871.619	15268
871.749	15218
871.879	15203
872.008	15351
872.138	15241
872.267	15264
872.397	15188
872.526	15032
872.656	15165
872.785	15074
872.915	15302
873.044	15344
873.173	15332
873.303	15447
873.432	15348
873.561	15435
873.69	15393
873.819	15272
873.948	15367
874.077	15275
874.206	15195
874.335	15291
874.464	15473
874.593	15557
874.722	15488
874.851	15682
874.979	15595
875.108	15648
875.237	15485
875.365	15496
875.494	15599
875.623	15660
875.751	15504
875.88	15656
876.008	15713
876.136	15781
876.265	15968
876.393	16143
876.521	16086
876.65	16109
876.778	16109
876.906	15983
877.034	15964
877.162	15911
877.29	16017
877.418	16078
877.546	16013
877.674	16048
877.802	15964
877.93	16013
878.058	15922
878.185	15884
878.313	16040
878.441	16086
878.568	15884
878.696	15998
878.824	16200
878.951	16211
879.079	16200
879.206	16440
879.333	16371
879.461	16177
879.588	16268
879.715	16287
879.842	16489
879.97	16158
880.097	15953
880.224	15827
880.351	15926
880.478	15903
880.605	15903
880.732	15960
880.859	16124
880.986	15960
881.112	15987
881.239	15888
881.366	15682
881.493	15603
881.619	15545
881.746	15530
881.872	15614
881.999	15603
882.125	15591
882.252	15587
882.378	15751
882.505	15770
882.631	15519
882.757	15378
882.883	15519
883.01	15408
883.136	15367
883.262	15173
883.388	15272
883.514	15401
883.64	15538
883.766	15382
883.892	15241
884.018	15272
884.143	15378
884.269	15408
884.395	15233
884.52	15055
884.646	15127
884.772	15062
884.897	15165
885.023	15100
885.148	15226
885.274	15218
885.399	15264
885.524	15070
885.65	15081
885.775	15097
885.9	15081
886.025	15226
886.15	15104
886.275	15036
886.4	14845
886.525	15074
886.65	14960
886.775	15013
886.9	15146
887.025	15302
887.149	15009
887.274	14998
887.399	14724
887.523	14845
887.648	14773
887.773	14693
887.897	14918
888.021	14921
888.146	14762
888.27	15020
888.395	15047
888.519	14887
888.643	14956
888.767	14861
888.891	14731
889.015	14640
889.139	14815
889.263	14712
889.387	14861
889.511	14918
889.635	14785
889.759	14754
889.883	14636
890.006	14785
890.13	14819
890.254	14682
890.377	14670
890.501	14533
890.624	14518
890.748	14568
890.871	14457
890.995	14419
891.118	14301
891.241	14480
891.364	14381
891.488	14492
891.611	14465
891.734	14488
891.857	14446
891.98	14377
892.103	14533
892.226	14446
892.349	14393
892.471	14271
892.594	14313
892.717	14434
892.839	14366
892.962	14370
893.085	14495
893.207	14393
893.33	14385
893.452	14355
893.575	14446
893.697	14450
893.819	14590
893.941	14617
894.064	14575
894.186	14385
894.308	14431
894.43	14511
894.552	14545
894.674	14564
894.796	14351
894.918	14404
895.04	14377
895.161	14606
895.283	14549
895.405	14374
895.526	14450
895.648	14522
895.769	14473
895.891	14495
896.012	14606
896.134	14571
896.255	14594
896.376	14507
896.498	14564
896.619	14606
896.74	14602
896.861	14697
896.982	14986
897.103	15097
897.224	14960
897.345	14830
897.466	14716
897.587	14800
897.708	14975
897.828	14895
897.949	14792
898.07	14648
898.19	14724
898.311	14902
898.431	14937
898.552	14880
898.672	14986
898.792	15051
898.913	15001
899.033	14788
899.153	14724
899.273	14644
899.393	14727
899.513	14815
899.633	14887
899.753	14834
899.873	14716
899.993	14785
900.113	14739
900.232	14800
900.352	14708
900.472	14708
900.591	14610
900.711	14674
900.83	14568
900.95	14644
901.069	14773
901.189	14602
901.308	14366
901.427	14282
901.546	14309
901.665	14309
901.784	14423
901.904	14157
902.023	14046
902.141	13906
902.26	13940
902.379	13963
902.498	13894
902.617	13860
902.735	13856
902.854	13875
902.973	13852
903.091	13483
903.21	13529
903.328	13647
903.446	13510
903.565	13460
903.683	13457
903.801	13278
903.919	13354
904.038	13430
904.156	13247
904.274	13308
904.392	13198
904.51	13198
904.627	13164
904.745	13206
904.863	13274
904.981	13031
905.098	12897
905.216	12875
905.334	12970
905.451	12928
905.569	12928
905.686	12981
905.803	12867
905.921	12791
906.038	12829
906.155	12768
906.272	12662
906.389	12700
906.506	12513
906.623	12467
906.74	12509
906.857	12422
906.974	12441
907.091	12578
907.208	12662
907.324	12589
907.441	12437
907.557	12361
907.674	12285
907.79	12201
907.907	12178
908.023	12186
908.139	12228
908.256	12201
908.372	12133
908.488	12140
908.604	12060
908.72	11916
908.836	12041
908.952	12049
909.068	11977
909.184	12209
909.3	12125
909.415	12095
909.531	11931
909.647	11790
909.762	11752
909.878	11813
909.993	11847
910.108	11729
910.224	11790
910.339	11904
910.454	11676
910.57	11608
910.685	11608
910.8	11824
910.915	11764
911.03	11729
911.145	11539
911.259	11459
911.374	11463
911.489	11467
911.604	11372
911.718	11185
911.833	11136
911.947	11037
912.062	11052
912.176	11220
912.291	11170
912.405	11246
912.519	11421
912.633	11406
912.748	11273
912.862	11208
912.976	11124
913.09	10976
913.204	10987
913.318	11090
913.431	11124
913.545	11223
913.659	11140
913.772	11132
913.886	10919
914	10911
914.113	11147
914.226	11193
914.34	11041
914.453	10892
914.566	11018
914.68	10995
914.793	10976
914.906	10740
915.019	10733
915.132	10611
915.245	10649
915.358	10774
915.47	10797
915.583	10702
915.696	10782
915.809	10862
915.921	10968
916.034	10729
916.146	10603
916.259	10596
916.371	10752
916.483	10721
916.595	10653
916.708	10656
916.82	10702
916.932	10672
917.044	10645
917.156	10694
917.268	10508
917.38	10592
917.491	10527
917.603	10588
917.715	10596
917.826	10645
917.938	10542
918.049	10363
918.161	10561
918.272	10637
918.384	10683
918.495	10500
918.606	10421
918.717	10303
918.828	10413
918.939	10436
919.05	10363
919.161	10329
919.272	10268
919.383	10318
919.494	10394
919.604	10523
919.715	10386
919.826	10291
919.936	10402
920.047	10500
920.157	10459
920.267	10599
920.378	10478
920.488	10405
920.598	10584
920.708	10752
920.818	10565
920.928	10592
921.038	10778
921.148	10702
921.258	10577
921.368	10398
921.477	10329
921.587	10219
921.697	10192
921.806	10310
921.916	10158
922.025	10013
922.134	10059
922.244	9937
922.353	10032
922.462	9857
922.571	9857
922.68	9671
922.789	9660
922.898	9656
923.007	9572
923.116	9675
923.224	9698
923.333	9671
923.442	9424
923.55	9488
923.659	9549
923.767	9644
923.876	9553
923.984	9568
924.092	9473
924.201	9595
924.309	9557
924.417	9507
924.525	9462
924.633	9477
924.741	10386
924.849	9294
924.956	9420
925.064	9367
925.172	9184
925.279	9294
925.387	9340
925.494	9310
925.602	9420
925.709	9317
925.816	9268
925.924	9275
926.031	9393
926.138	9325
926.245	9386
926.352	9165
926.459	9340
926.566	9469
926.673	9283
926.779	9199
926.886	9104
926.993	9146
927.099	9005
927.206	8994
927.312	8979
927.419	9055
927.525	8975
927.631	9093
927.737	8929
927.843	8891
927.95	8750
928.056	8895
928.162	8982
928.267	8906
928.373	9572
928.479	8990
928.585	8693
928.69	8857
928.796	8929
928.901	8830
929.007	8697
929.112	8804
929.218	8864
929.323	8678
929.428	8731
929.533	8796
929.638	8686
929.743	8663
929.848	8743
929.953	8712
930.058	8636
930.163	8492
930.267	8518
930.372	8579
930.477	8473
930.581	8648
930.685	8564
930.79	8473
930.894	8412
930.998	8381
931.103	8541
931.207	8218
931.311	8142
931.415	8081
931.519	7936
931.623	7936
