Data from test_V78500241_3619.txt Node
Date: Fri Mar 25 14:58:55 CST 2022
User: usil
Spectrometer: V785-0024
Trigger mode: 0
Integration Time (sec): 4.000000E-1
Scans to average: 1
Nonlinearity correction enabled: false
Boxcar width: 0
Storing dark spectrum: false
XAxis mode: Wavelengths
Number of Pixels in Spectrum: 1024
>>>>>Begin Spectral Data<<<<<
801.071	21838
801.214	21831
801.356	21523
801.499	21431
801.641	21241
801.783	21192
801.926	21313
802.068	21329
802.211	21055
802.353	21074
802.496	20819
802.638	20785
802.78	20560
802.923	20640
803.065	20511
803.208	20579
803.35	20575
803.492	20648
803.635	20727
803.777	20423
803.919	20621
804.061	20887
804.204	20693
804.346	20594
804.488	20446
804.63	20541
804.773	20389
804.915	20488
805.057	20602
805.199	20533
805.341	20530
805.483	20522
805.626	20625
805.768	20499
805.91	20617
806.052	20507
806.194	20408
806.336	20606
806.478	20526
806.62	20408
806.762	20488
806.904	20750
807.046	20872
807.188	20724
807.33	20640
807.472	20956
807.614	20613
807.756	20644
807.898	20636
808.04	20587
808.182	20560
808.324	20606
808.465	20590
808.607	20731
808.749	20826
808.891	21062
809.033	21005
809.174	20891
809.316	20838
809.458	20910
809.6	20727
809.741	20739
809.883	20876
810.025	21013
810.166	21032
810.308	20960
810.45	20921
810.591	20792
810.733	20765
810.875	20545
811.016	20587
811.158	20526
811.299	20590
811.441	20629
811.582	20765
811.724	20564
811.865	20549
812.007	20522
812.148	20606
812.29	20648
812.431	20632
812.573	20925
812.714	20925
812.855	21192
812.997	21184
813.138	21188
813.279	21169
813.421	21051
813.562	20994
813.703	20842
813.845	20743
813.986	20438
814.127	20355
814.268	20092
814.41	20229
814.551	20043
814.692	20107
814.833	20134
814.974	20126
815.115	20119
815.256	19944
815.397	19883
815.539	19993
815.68	19989
815.821	19693
815.962	19959
816.103	19780
816.244	19685
816.385	19586
816.526	19552
816.666	19343
816.807	19255
816.948	19350
817.089	19384
817.23	19362
817.371	19255
817.512	19213
817.653	19293
817.793	19145
817.934	19179
818.075	19270
818.216	19175
818.356	19145
818.497	19069
818.638	19027
818.778	18867
818.919	19031
819.06	18882
819.2	19038
819.341	19126
819.481	19183
819.622	19285
819.762	19441
819.903	19316
820.043	19346
820.184	19308
820.324	19213
820.465	19362
820.605	19392
820.746	19266
820.886	19042
821.026	19293
821.167	19206
821.307	19278
821.447	19118
821.588	19145
821.728	18985
821.868	18772
822.008	18707
822.149	18677
822.289	18566
822.429	18369
822.569	18289
822.709	18388
822.849	18178
822.99	18167
823.13	18041
823.27	18057
823.41	17980
823.55	17843
823.69	17984
823.83	18007
823.97	17870
824.11	17748
824.25	17634
824.389	17687
824.529	17726
824.669	17760
824.809	17863
824.949	17802
825.089	17733
825.228	17642
825.368	17471
825.508	17611
825.648	17486
825.787	17608
825.927	17638
826.067	17478
826.206	17448
826.346	17539
826.485	17532
826.625	17501
826.765	17653
826.904	17501
827.044	17235
827.183	17231
827.323	17254
827.462	17299
827.601	17223
827.741	17212
827.88	17280
828.02	17109
828.159	17178
828.298	17204
828.437	17174
828.577	17151
828.716	17425
828.855	17258
828.994	16965
829.134	17006
829.273	17075
829.412	16915
829.551	16949
829.69	16957
829.829	16900
829.968	17109
830.107	17037
830.246	17079
830.385	16896
830.524	16850
830.663	16835
830.802	16675
830.941	16599
831.08	16546
831.219	16649
831.357	16698
831.496	16733
831.635	16588
831.774	16531
831.913	16459
832.051	16348
832.19	16421
832.329	16481
832.467	16265
832.606	16253
832.744	16185
832.883	16230
833.022	16188
833.16	16249
833.299	16276
833.437	16280
833.576	16295
833.714	16394
833.852	16363
833.991	16356
834.129	16398
834.267	16382
834.406	16363
834.544	16257
834.682	16303
834.821	16272
834.959	16390
835.097	16436
835.235	16447
835.373	16337
835.511	16268
835.65	16242
835.788	16314
835.926	16051
836.064	16200
836.202	16116
836.34	16219
836.478	16310
836.615	16166
836.753	16261
836.891	16352
837.029	16268
837.167	16211
837.305	16166
837.443	16109
837.58	16143
837.718	16139
837.856	16261
837.993	16177
838.131	16234
838.269	16044
838.406	16116
838.544	15975
838.681	15934
838.819	15835
838.956	15755
839.094	15580
839.231	15793
839.369	15816
839.506	16109
839.643	16059
839.781	15682
839.918	15690
840.055	15660
840.193	15686
840.33	15576
840.467	15652
840.604	15682
840.742	15975
840.879	15511
841.016	15519
841.153	15587
841.29	15846
841.427	15660
841.564	15778
841.701	15743
841.838	15751
841.975	15591
842.112	15667
842.249	15530
842.385	15424
842.522	15622
842.659	15519
842.796	15401
842.933	15572
843.069	15473
843.206	15416
843.343	15606
843.479	15504
843.616	15492
843.752	15306
843.889	15192
844.025	15408
844.162	15279
844.298	15416
844.435	15355
844.571	15138
844.708	15241
844.844	15382
844.98	15454
845.117	15435
845.253	15264
845.389	15055
845.525	15180
845.661	15176
845.798	14982
845.934	15154
846.07	14990
846.206	15100
846.342	15264
846.478	15024
846.614	14807
846.75	14792
846.886	14899
847.022	14902
847.158	14960
847.294	14902
847.429	14921
847.565	14834
847.701	15036
847.837	14617
847.972	14579
848.108	14640
848.244	14693
848.379	14499
848.515	14442
848.65	14389
848.786	14374
848.921	14431
849.057	14571
849.192	14473
849.328	14461
849.463	14408
849.598	14358
849.734	14324
849.869	14252
850.004	14267
850.14	14385
850.275	14298
850.41	14134
850.545	14210
850.68	14187
850.815	14263
850.95	14206
851.085	14415
851.22	14320
851.355	14267
851.49	14142
851.625	14134
851.76	14153
851.895	14149
852.03	14088
852.165	14180
852.299	14240
852.434	14286
852.569	14278
852.703	14259
852.838	14301
852.973	14309
853.107	14358
853.242	14202
853.376	14210
853.511	14008
853.645	13982
853.78	14180
853.914	14157
854.048	14073
854.183	13978
854.317	14065
854.451	14324
854.585	14050
854.72	14084
854.854	14103
854.988	14065
855.122	14073
855.256	14024
855.39	14077
855.524	14221
855.658	14123
855.792	14183
855.926	14199
856.06	14088
856.194	14202
856.327	14199
856.461	14050
856.595	14058
856.729	14168
856.862	14164
856.996	14092
857.13	14092
857.263	14290
857.397	14263
857.53	14039
857.664	14195
857.797	14153
857.931	14229
858.064	14248
858.197	14237
858.331	14111
858.464	14149
858.597	14005
858.731	14103
858.864	14157
858.997	14062
859.13	14096
859.263	14168
859.396	14221
859.529	14103
859.662	14107
859.795	14077
859.928	14157
860.061	14237
860.194	14358
860.327	14092
860.46	14054
860.592	14309
860.725	14355
860.858	14278
860.99	14149
861.123	14031
861.256	14088
861.388	14161
861.521	14883
861.653	14058
861.786	13864
861.918	14016
862.05	14054
862.183	14081
862.315	14142
862.447	14115
862.58	14058
862.712	13909
862.844	13811
862.976	13951
863.108	13902
863.24	14263
863.372	13845
863.504	13879
863.636	13898
863.768	14035
863.9	13947
864.032	13814
864.164	13902
864.296	14012
864.428	14100
864.559	13989
864.691	13963
864.823	13974
864.954	13913
865.086	14024
865.217	13906
865.349	13837
865.48	13849
865.612	13921
865.743	13982
865.875	13913
866.006	13780
866.137	14008
866.269	13811
866.4	13841
866.531	13814
866.662	13807
866.793	13845
866.924	13852
867.055	13936
867.186	13883
867.317	13845
867.448	13727
867.579	13822
867.71	13776
867.841	13906
867.972	13967
868.103	13875
868.233	13799
868.364	13894
868.495	14012
868.625	14172
868.756	14233
868.886	14111
869.017	14168
869.147	14282
869.278	14233
869.408	14195
869.539	14142
869.669	14305
869.799	14244
869.929	14271
870.06	14252
870.19	14431
870.32	14374
870.45	14526
870.58	14530
870.71	14518
870.84	14697
870.97	14579
871.1	14434
871.23	14686
871.36	14739
871.489	14533
871.619	14727
871.749	14727
871.879	14830
872.008	14811
872.138	14777
872.267	14708
872.397	14579
872.526	14545
872.656	14541
872.785	14629
872.915	14758
873.044	14830
873.173	14819
873.303	14727
873.432	14777
873.561	14899
873.69	14743
873.819	14857
873.948	14830
874.077	14823
874.206	14682
874.335	14887
874.464	14929
874.593	15055
874.722	14975
874.851	15165
874.979	15173
875.108	15207
875.237	15089
875.365	14952
875.494	15085
875.623	15264
875.751	15165
875.88	15146
876.008	15268
876.136	15325
876.265	15473
876.393	15682
876.521	15564
876.65	15599
876.778	15523
876.906	15542
877.034	15469
877.162	15526
877.29	15507
877.418	15530
877.546	15473
877.674	15622
877.802	15504
877.93	15629
878.058	15443
878.185	15393
878.313	15530
878.441	15644
878.568	15393
878.696	15454
878.824	15515
878.951	15633
879.079	15667
879.206	15857
879.333	15625
879.461	15603
879.588	15694
879.715	15736
879.842	15869
879.97	15660
880.097	15401
880.224	15393
880.351	15401
880.478	15389
880.605	15420
880.732	15351
880.859	15564
880.986	15374
881.112	15389
881.239	15245
881.366	15230
881.493	15123
881.619	14998
881.746	15100
881.872	14925
881.999	15074
882.125	15058
882.252	15070
882.378	15081
882.505	15116
882.631	14952
882.757	14849
882.883	14925
883.01	14811
883.136	14857
883.262	14792
883.388	14670
883.514	14883
883.64	14902
883.766	14845
883.892	14625
884.018	14545
884.143	14815
884.269	14994
884.395	14606
884.52	14522
884.646	14541
884.772	14556
884.897	14518
885.023	14507
885.148	14613
885.274	14785
885.399	14682
885.524	14625
885.65	14434
885.775	14575
885.9	14583
886.025	14648
886.15	14697
886.275	14480
886.4	14522
886.525	14484
886.65	14587
886.775	14545
886.9	14682
887.025	14800
887.149	14533
887.274	14366
887.399	14415
887.523	14347
887.648	14240
887.773	14256
887.897	14438
888.021	14442
888.146	14343
888.27	14473
888.395	14488
888.519	14423
888.643	14495
888.767	14438
888.891	14282
889.015	14298
889.139	14332
889.263	14221
889.387	14362
889.511	14495
889.635	14423
889.759	14225
889.883	14336
890.006	14282
890.13	14320
890.254	14225
890.377	14244
890.501	14065
890.624	14084
890.748	14164
890.871	14020
890.995	13906
891.118	13776
891.241	13978
891.364	13963
891.488	14100
891.611	13898
891.734	13997
891.857	14016
891.98	13997
892.103	13974
892.226	14031
892.349	13906
892.471	13761
892.594	13917
892.717	14005
892.839	14008
892.962	13982
893.085	14027
893.207	13894
893.33	13837
893.452	13883
893.575	14001
893.697	13970
893.819	14240
893.941	14240
894.064	14092
894.186	14027
894.308	13830
894.43	14092
894.552	14130
894.674	14111
894.796	13909
894.918	13925
895.04	14119
895.161	14103
895.283	14096
895.405	13959
895.526	14050
895.648	14016
895.769	14046
895.891	14062
896.012	14142
896.134	14107
896.255	14115
896.376	14126
896.498	14103
896.619	14111
896.74	14214
896.861	14145
896.982	14518
897.103	14648
897.224	14389
897.345	14320
897.466	14332
897.587	14381
897.708	14427
897.828	14541
897.949	14374
898.07	14256
898.19	14351
898.311	14518
898.431	14415
898.552	14442
898.672	14648
898.792	14564
898.913	14571
899.033	14518
899.153	14419
899.273	14275
899.393	14431
899.513	14438
899.633	14393
899.753	14358
899.873	14233
899.993	14415
900.113	14294
900.232	14298
900.352	14434
900.472	14229
900.591	14157
900.711	14225
900.83	14123
900.95	14301
901.069	14347
901.189	14180
901.308	13898
901.427	13849
901.546	13909
901.665	13978
901.784	13921
901.904	13715
902.023	13609
902.141	13476
902.26	13544
902.379	13518
902.498	13430
902.617	13373
902.735	13449
902.854	13441
902.973	13346
903.091	13247
903.21	13129
903.328	13164
903.446	13122
903.565	13004
903.683	13072
903.801	12901
903.919	12916
904.038	13000
904.156	12833
904.274	12958
904.392	12810
904.51	12783
904.627	12867
904.745	12795
904.863	12856
904.981	12620
905.098	12494
905.216	12547
905.334	12502
905.451	12544
905.569	12494
905.686	12601
905.803	12525
905.921	12422
906.038	12502
906.155	12429
906.272	12281
906.389	12277
906.506	12171
906.623	12213
906.74	12155
906.857	12064
906.974	12072
907.091	12251
907.208	12266
907.324	12175
907.441	12064
907.557	11889
907.674	11942
907.79	11843
907.907	11923
908.023	11958
908.139	11843
908.256	11874
908.372	11882
908.488	11779
908.604	11676
908.72	11676
908.836	11710
908.952	11619
909.068	11745
909.184	11710
909.3	11668
909.415	11684
909.531	11668
909.647	11547
909.762	11387
909.878	11322
909.993	11455
910.108	11292
910.224	11455
910.339	11421
910.454	11341
910.57	11277
910.685	11185
910.8	11448
910.915	11372
911.03	11288
911.145	11109
911.259	11090
911.374	10980
911.489	11010
911.604	10915
911.718	10889
911.833	10839
911.947	10744
912.062	10653
912.176	10904
912.291	10885
912.405	10877
912.519	11102
912.633	11098
912.748	10923
912.862	10850
912.976	10831
913.09	10649
913.204	10653
913.318	10683
913.431	10847
913.545	10873
913.659	10847
913.772	10755
913.886	10641
914	10645
914.113	10744
914.226	10733
914.34	10774
914.453	10554
914.566	10675
914.68	10546
914.793	10519
914.906	10352
915.019	10352
915.132	10325
915.245	10455
915.358	10329
915.47	10375
915.583	10390
915.696	10432
915.809	10599
915.921	10577
916.034	10344
916.146	10314
916.259	10306
916.371	10352
916.483	10428
916.595	10287
916.708	10356
916.82	10314
916.932	10272
917.044	10318
917.156	10310
917.268	10204
917.38	10249
917.491	10249
917.603	10219
917.715	10386
917.826	10402
917.938	10207
918.049	10162
918.161	10284
918.272	10337
918.384	10386
918.495	10234
918.606	10169
918.717	10055
918.828	10185
918.939	10158
919.05	9998
919.161	10086
919.272	9823
919.383	9987
919.494	10196
919.604	10295
919.715	10150
919.826	10032
919.936	10006
920.047	10200
920.157	10112
920.267	10375
920.378	10120
920.488	10135
920.598	10337
920.708	10432
920.818	10333
920.928	10306
921.038	10455
921.148	10417
921.258	10154
921.368	10150
921.477	10059
921.587	9979
921.697	9869
921.806	9968
921.916	9861
922.025	9686
922.134	9671
922.244	9660
922.353	9781
922.462	9606
922.571	9504
922.68	9306
922.789	9325
922.898	9435
923.007	9397
923.116	9447
923.224	9458
923.333	9408
923.442	9279
923.55	9245
923.659	9294
923.767	9374
923.876	9287
923.984	9306
924.092	9218
924.201	9245
924.309	9283
924.417	9283
924.525	9226
924.633	9226
924.741	10040
924.849	9039
924.956	9230
925.064	9024
925.172	9001
925.279	9024
925.387	9074
925.494	9043
925.602	9230
925.709	9184
925.816	8986
925.924	9077
926.031	9138
926.138	8982
926.245	9150
926.352	8960
926.459	9142
926.566	9188
926.673	9074
926.779	8948
926.886	8941
926.993	8804
927.099	8727
927.206	8792
927.312	8708
927.419	8853
927.525	8792
927.631	8845
927.737	8682
927.843	8678
927.95	8564
928.056	8701
928.162	8708
928.267	8731
928.373	9272
928.479	8739
928.585	8526
928.69	8663
928.796	8716
928.901	8556
929.007	8450
929.112	8625
929.218	8621
929.323	8541
929.428	8518
929.533	8663
929.638	8400
929.743	8476
929.848	8564
929.953	8499
930.058	8400
930.163	8252
930.267	8252
930.372	8457
930.477	8218
930.581	8503
930.685	8358
930.79	8210
930.894	8187
930.998	8286
931.103	8313
931.207	8001
931.311	7978
931.415	7868
931.519	7712
931.623	7769
