Data from test_V78500241_1606.txt Node
Date: Fri Mar 25 14:44:53 CST 2022
User: usil
Spectrometer: V785-0024
Trigger mode: 0
Integration Time (sec): 4.000000E-1
Scans to average: 1
Nonlinearity correction enabled: false
Boxcar width: 0
Storing dark spectrum: false
XAxis mode: Wavelengths
Number of Pixels in Spectrum: 1024
>>>>>Begin Spectral Data<<<<<
801.071	22421
801.214	22188
801.356	22120
801.499	21975
801.641	21861
801.783	21766
801.926	21770
802.068	21663
802.211	21462
802.353	21576
802.496	21378
802.638	21252
802.78	21116
802.923	21127
803.065	21096
803.208	20921
803.35	21161
803.492	21291
803.635	21161
803.777	21036
803.919	21165
804.061	21447
804.204	21043
804.346	21039
804.488	20902
804.63	21013
804.773	20857
804.915	20979
805.057	21104
805.199	20948
805.341	21089
805.483	21096
805.626	21135
805.768	20902
805.91	21127
806.052	20864
806.194	20902
806.336	21127
806.478	20975
806.62	21032
806.762	21070
806.904	21119
807.046	21458
807.188	21279
807.33	21348
807.472	21370
807.614	21431
807.756	21279
807.898	21161
808.04	21142
808.182	21089
808.324	21294
808.465	21279
808.607	21340
808.749	21458
808.891	21587
809.033	21629
809.174	21538
809.316	21428
809.458	21462
809.6	21393
809.741	21564
809.883	21545
810.025	21705
810.166	21523
810.308	21500
810.45	21534
810.591	21492
810.733	21222
810.875	21264
811.016	21104
811.158	21112
811.299	21218
811.441	21256
811.582	21412
811.724	21150
811.865	21055
812.007	21188
812.148	21142
812.29	21127
812.431	21389
812.573	21488
812.714	21583
812.855	21709
812.997	21739
813.138	21922
813.279	21755
813.421	21656
813.562	21538
813.703	21389
813.845	21355
813.986	21093
814.127	20842
814.268	20842
814.41	20788
814.551	20758
814.692	20838
814.833	20689
814.974	20667
815.115	20739
815.256	20598
815.397	20609
815.539	20598
815.68	20492
815.821	20442
815.962	20571
816.103	20454
816.244	20324
816.385	20172
816.526	20221
816.666	20126
816.807	19879
816.948	20020
817.089	20046
817.23	19841
817.371	19963
817.512	19963
817.653	19887
817.793	19879
817.934	19974
818.075	20005
818.216	19868
818.356	19852
818.497	19791
818.638	19502
818.778	19605
818.919	19487
819.06	19590
819.2	19712
819.341	19769
819.481	19734
819.622	19925
819.762	20035
819.903	19921
820.043	19894
820.184	19902
820.324	19772
820.465	19883
820.605	19856
820.746	19780
820.886	19715
821.026	19830
821.167	19772
821.307	19765
821.447	19723
821.588	19696
821.728	19556
821.868	19464
822.008	19324
822.149	19282
822.289	19168
822.429	18814
822.569	18924
822.709	18875
822.849	18631
822.99	18757
823.13	18623
823.27	18665
823.41	18601
823.55	18490
823.69	18544
823.83	18483
823.97	18509
824.11	18281
824.25	18277
824.389	18327
824.529	18391
824.669	18311
824.809	18460
824.949	18426
825.089	18350
825.228	18391
825.368	18155
825.508	18110
825.648	18235
825.787	18087
825.927	18144
826.067	18079
826.206	18106
826.346	17992
826.485	18182
826.625	18030
826.765	18186
826.904	18079
827.044	17824
827.183	17859
827.323	17767
827.462	17790
827.601	17691
827.741	17687
827.88	17729
828.02	17611
828.159	17745
828.298	17699
828.437	17817
828.577	17672
828.716	17912
828.855	17745
828.994	17509
829.134	17596
829.273	17589
829.412	17417
829.551	17410
829.69	17482
829.829	17558
829.968	17638
830.107	17539
830.246	17509
830.385	17395
830.524	17379
830.663	17250
830.802	17231
830.941	17136
831.08	17181
831.219	17212
831.357	17090
831.496	17341
831.635	17048
831.774	17045
831.913	17033
832.051	16850
832.19	16850
832.329	16930
832.467	16831
832.606	16820
832.744	16805
832.883	16801
833.022	16752
833.16	16755
833.299	16858
833.437	16885
833.576	16858
833.714	16923
833.852	16885
833.991	16923
834.129	16896
834.267	16930
834.406	16915
834.544	16927
834.682	16881
834.821	16923
834.959	17006
835.097	16797
835.235	16927
835.373	16881
835.511	16850
835.65	16763
835.788	16702
835.926	16580
836.064	16474
836.202	16615
836.34	16820
836.478	16786
836.615	16725
836.753	16752
836.891	16717
837.029	16729
837.167	16702
837.305	16691
837.443	16630
837.58	16592
837.718	16782
837.856	16672
837.993	16618
838.131	16611
838.269	16424
838.406	16679
838.544	16538
838.681	16299
838.819	16295
838.956	16135
839.094	16181
839.231	16158
839.369	16348
839.506	16481
839.643	16421
839.781	16154
839.918	16158
840.055	16219
840.193	16200
840.33	16166
840.467	16162
840.604	16154
840.742	16398
840.879	16013
841.016	16036
841.153	16002
841.29	16390
841.427	16196
841.564	16131
841.701	16150
841.838	16101
841.975	15960
842.112	15968
842.249	15846
842.385	15937
842.522	16150
842.659	15926
842.796	15930
842.933	15968
843.069	15903
843.206	15918
843.343	16055
843.479	16010
843.616	15915
843.752	15743
843.889	15641
844.025	15774
844.162	15724
844.298	15709
844.435	15728
844.571	15682
844.708	15770
844.844	15880
844.98	15812
845.117	15739
845.253	15656
845.389	15603
845.525	15755
845.661	15755
845.798	15606
845.934	15747
846.07	15584
846.206	15679
846.342	15774
846.478	15549
846.614	15363
846.75	15302
846.886	15230
847.022	15287
847.158	15245
847.294	15348
847.429	15332
847.565	15294
847.701	15496
847.837	15131
847.972	14933
848.108	15081
848.244	15089
848.379	14906
848.515	14842
848.65	14845
848.786	14941
848.921	14883
849.057	14998
849.192	14921
849.328	14883
849.463	14842
849.598	14857
849.734	14815
849.869	14785
850.004	14659
850.14	14693
850.275	14743
850.41	14621
850.545	14545
850.68	14792
850.815	14667
850.95	14610
851.085	14743
851.22	14670
851.355	14594
851.49	14560
851.625	14575
851.76	14594
851.895	14575
852.03	14476
852.165	14606
852.299	14727
852.434	14769
852.569	14667
852.703	14705
852.838	14720
852.973	14815
853.107	14796
853.242	14640
853.376	14590
853.511	14415
853.645	14434
853.78	14667
853.914	14503
854.048	14465
854.183	14465
854.317	14533
854.451	14640
854.585	14400
854.72	14556
854.854	14568
854.988	14419
855.122	14374
855.256	14328
855.39	14518
855.524	14606
855.658	14541
855.792	14434
855.926	14587
856.06	14583
856.194	14537
856.327	14499
856.461	14457
856.595	14423
856.729	14412
856.862	14625
856.996	14552
857.13	14613
857.263	14556
857.397	14632
857.53	14469
857.664	14541
857.797	14598
857.931	14659
858.064	14484
858.197	14648
858.331	14438
858.464	14423
858.597	14339
858.731	14465
858.864	14507
858.997	14377
859.13	14568
859.263	14556
859.396	14590
859.529	14568
859.662	14522
859.795	14381
859.928	14415
860.061	14617
860.194	14693
860.327	14518
860.46	14492
860.592	14606
860.725	14606
860.858	14598
860.99	14564
861.123	14396
861.256	14438
861.388	14412
861.521	15287
861.653	14412
861.786	14309
861.918	14309
862.05	14511
862.183	14492
862.315	14473
862.447	14499
862.58	14362
862.712	14298
862.844	14298
862.976	14320
863.108	14343
863.24	14743
863.372	14259
863.504	14298
863.636	14282
863.768	14259
863.9	14301
864.032	14161
864.164	14214
864.296	14275
864.428	14396
864.559	14343
864.691	14301
864.823	14305
864.954	14301
865.086	14275
865.217	14313
865.349	14126
865.48	14259
865.612	14263
865.743	14412
865.875	14229
866.006	14294
866.137	14202
866.269	14324
866.4	14229
866.531	14301
866.662	14176
866.793	14233
866.924	14176
867.055	14355
867.186	14267
867.317	14199
867.448	14172
867.579	14191
867.71	14214
867.841	14259
867.972	14195
868.103	14225
868.233	14282
868.364	14237
868.495	14336
868.625	14552
868.756	14537
868.886	14446
869.017	14549
869.147	14613
869.278	14720
869.408	14560
869.539	14511
869.669	14575
869.799	14438
869.929	14739
870.06	14636
870.19	14902
870.32	14861
870.45	14876
870.58	14872
870.71	14998
870.84	15028
870.97	14982
871.1	14960
871.23	15009
871.36	15043
871.489	15081
871.619	14998
871.749	15142
871.879	15131
872.008	15237
872.138	15058
872.267	15074
872.397	14918
872.526	14826
872.656	15036
872.785	14864
872.915	15135
873.044	15154
873.173	15081
873.303	15161
873.432	15146
873.561	15154
873.69	15184
873.819	15233
873.948	15237
874.077	15188
874.206	15138
874.335	15089
874.464	15325
874.593	15344
874.722	15466
874.851	15545
874.979	15447
875.108	15515
875.237	15477
875.365	15310
875.494	15462
875.623	15591
875.751	15504
875.88	15488
876.008	15614
876.136	15614
876.265	15930
876.393	16036
876.521	15998
876.65	15934
876.778	15838
876.906	15835
877.034	15827
877.162	15838
877.29	15774
877.418	15781
877.546	15835
877.674	15915
877.802	15835
877.93	15850
878.058	15895
878.185	15705
878.313	15808
878.441	15930
878.568	15778
878.696	15892
878.824	15869
878.951	15907
879.079	16074
879.206	16120
879.333	16086
879.461	15953
879.588	16093
879.715	16101
879.842	16131
879.97	15975
880.097	15816
880.224	15705
880.351	15816
880.478	15797
880.605	15705
880.732	15663
880.859	15937
880.986	15728
881.112	15827
881.239	15698
881.366	15530
881.493	15359
881.619	15435
881.746	15454
881.872	15355
881.999	15313
882.125	15313
882.252	15420
882.378	15329
882.505	15526
882.631	15336
882.757	15188
882.883	15249
883.01	15233
883.136	15112
883.262	15039
883.388	15062
883.514	15184
883.64	15294
883.766	15123
883.892	15032
884.018	15039
884.143	15230
884.269	15241
884.395	14918
884.52	14937
884.646	14925
884.772	14845
884.897	14796
885.023	14960
885.148	14963
885.274	15070
885.399	15009
885.524	14990
885.65	14952
885.775	14876
885.9	14895
886.025	14899
886.15	15051
886.275	14864
886.4	14857
886.525	14830
886.65	14781
886.775	14861
886.9	15020
887.025	15211
887.149	14857
887.274	14785
887.399	14663
887.523	14659
887.648	14659
887.773	14693
887.897	14731
888.021	14773
888.146	14693
888.27	14800
888.395	14807
888.519	14792
888.643	14785
888.767	14864
888.891	14686
889.015	14613
889.139	14610
889.263	14564
889.387	14754
889.511	14842
889.635	14705
889.759	14556
889.883	14537
890.006	14667
890.13	14659
890.254	14503
890.377	14514
890.501	14533
890.624	14332
890.748	14488
890.871	14393
890.995	14275
891.118	14164
891.241	14328
891.364	14309
891.488	14438
891.611	14164
891.734	14233
891.857	14381
891.98	14275
892.103	14275
892.226	14263
892.349	14256
892.471	14119
892.594	14259
892.717	14271
892.839	14259
892.962	14229
893.085	14358
893.207	14256
893.33	14145
893.452	14161
893.575	14317
893.697	14214
893.819	14446
893.941	14484
894.064	14446
894.186	14214
894.308	14294
894.43	14431
894.552	14454
894.674	14362
894.796	14168
894.918	14355
895.04	14313
895.161	14465
895.283	14408
895.405	14343
895.526	14434
895.648	14301
895.769	14343
895.891	14415
896.012	14457
896.134	14492
896.255	14480
896.376	14415
896.498	14476
896.619	14431
896.74	14465
896.861	14503
896.982	14800
897.103	14902
897.224	14701
897.345	14693
897.466	14644
897.587	14693
897.708	14891
897.828	14769
897.949	14663
898.07	14617
898.19	14693
898.311	14815
898.431	14735
898.552	14823
898.672	14899
898.792	14853
898.913	14807
899.033	14636
899.153	14701
899.273	14667
899.393	14568
899.513	14659
899.633	14693
899.753	14739
899.873	14708
899.993	14659
900.113	14617
900.232	14629
900.352	14781
900.472	14644
900.591	14427
900.711	14579
900.83	14476
900.95	14537
901.069	14674
901.189	14492
901.308	14168
901.427	14039
901.546	14172
901.665	14046
901.784	14237
901.904	14153
902.023	13989
902.141	13845
902.26	13712
902.379	13772
902.498	13700
902.617	13666
902.735	13814
902.854	13772
902.973	13750
903.091	13426
903.21	13449
903.328	13510
903.446	13339
903.565	13263
903.683	13373
903.801	13301
903.919	13259
904.038	13369
904.156	13152
904.274	13137
904.392	13149
904.51	13217
904.627	13122
904.745	13072
904.863	13202
904.981	12920
905.098	12814
905.216	12916
905.334	12848
905.451	12859
905.569	12776
905.686	12867
905.803	12783
905.921	12631
906.038	12673
906.155	12662
906.272	12544
906.389	12506
906.506	12395
906.623	12410
906.74	12315
906.857	12300
906.974	12353
907.091	12441
907.208	12540
907.324	12483
907.441	12346
907.557	12190
907.674	12175
907.79	12125
907.907	12125
908.023	12232
908.139	12216
908.256	12125
908.372	12117
908.488	12026
908.604	11889
908.72	11931
908.836	11870
908.952	11794
909.068	11950
909.184	12038
909.3	11988
909.415	11885
909.531	11984
909.647	11817
909.762	11638
909.878	11615
909.993	11741
910.108	11638
910.224	11604
910.339	11737
910.454	11585
910.57	11520
910.685	11436
910.8	11726
910.915	11642
911.03	11608
911.145	11425
911.259	11402
911.374	11349
911.489	11277
911.604	11322
911.718	11212
911.833	11151
911.947	10976
912.062	10976
912.176	11132
912.291	11121
912.405	11121
912.519	11360
912.633	11280
912.748	11170
912.862	11178
912.976	10976
913.09	10885
913.204	10904
913.318	10995
913.431	11071
913.545	11128
913.659	11041
913.772	10980
913.886	10896
914	10858
914.113	10961
914.226	11041
914.34	11018
914.453	10710
914.566	10961
914.68	10843
914.793	10771
914.906	10641
915.019	10569
915.132	10504
915.245	10698
915.358	10664
915.47	10626
915.583	10645
915.696	10596
915.809	10759
915.921	10721
916.034	10637
916.146	10535
916.259	10558
916.371	10725
916.483	10565
916.595	10561
916.708	10546
916.82	10504
916.932	10538
917.044	10588
917.156	10554
917.268	10447
917.38	10478
917.491	10398
917.603	10493
917.715	10535
917.826	10516
917.938	10443
918.049	10352
918.161	10402
918.272	10603
918.384	10622
918.495	10462
918.606	10367
918.717	10246
918.828	10356
918.939	10344
919.05	10249
919.161	10303
919.272	10188
919.383	10272
919.494	10367
919.604	10584
919.715	10303
919.826	10306
919.936	10223
920.047	10382
920.157	10341
920.267	10527
920.378	10432
920.488	10318
920.598	10550
920.708	10679
920.818	10519
920.928	10516
921.038	10611
921.148	10611
921.258	10443
921.368	10325
921.477	10169
921.587	10158
921.697	10166
921.806	10230
921.916	10135
922.025	9895
922.134	9880
922.244	9850
922.353	10013
922.462	9778
922.571	9755
922.68	9679
922.789	9603
922.898	9538
923.007	9481
923.116	9648
923.224	9526
923.333	9469
923.442	9526
923.55	9519
923.659	9500
923.767	9515
923.876	9443
923.984	9481
924.092	9428
924.201	9359
924.309	9469
924.417	9469
924.525	9412
924.633	9408
924.741	10158
924.849	9184
924.956	9355
925.064	9184
925.172	9119
925.279	9272
925.387	9249
925.494	9294
925.602	9336
925.709	9230
925.816	9142
925.924	9287
926.031	9401
926.138	9253
926.245	9256
926.352	9176
926.459	9245
926.566	9359
926.673	9214
926.779	8990
926.886	9093
926.993	9005
927.099	8941
927.206	8918
927.312	8952
927.419	8910
927.525	8914
927.631	9005
927.737	8838
927.843	8845
927.95	8724
928.056	8800
928.162	8861
928.267	8895
928.373	9370
928.479	8963
928.585	8743
928.69	8906
928.796	8944
928.901	8739
929.007	8701
929.112	8788
929.218	8727
929.323	8651
929.428	8686
929.533	8785
929.638	8629
929.743	8674
929.848	8781
929.953	8552
930.058	8499
930.163	8408
930.267	8465
930.372	8579
930.477	8442
930.581	8594
930.685	8511
930.79	8358
930.894	8423
930.998	8324
931.103	8495
931.207	8103
931.311	8077
931.415	8016
931.519	7951
931.623	7841
