Data from test_V78500241_1039.txt Node
Date: Fri Mar 25 14:40:57 CST 2022
User: usil
Spectrometer: V785-0024
Trigger mode: 0
Integration Time (sec): 4.000000E-1
Scans to average: 1
Nonlinearity correction enabled: false
Boxcar width: 0
Storing dark spectrum: false
XAxis mode: Wavelengths
Number of Pixels in Spectrum: 1024
>>>>>Begin Spectral Data<<<<<
801.071	22816
801.214	22736
801.356	22500
801.499	22474
801.641	22280
801.783	22238
801.926	22325
802.068	22226
802.211	22097
802.353	21865
802.496	21724
802.638	21724
802.78	21724
802.923	21652
803.065	21637
803.208	21469
803.35	21603
803.492	21660
803.635	21682
803.777	21583
803.919	21671
804.061	21979
804.204	21629
804.346	21545
804.488	21317
804.63	21542
804.773	21416
804.915	21397
805.057	21629
805.199	21538
805.341	21519
805.483	21580
805.626	21656
805.768	21485
805.91	21519
806.052	21523
806.194	21485
806.336	21827
806.478	21591
806.62	21572
806.762	21599
806.904	21652
807.046	21998
807.188	21922
807.33	22002
807.472	22002
807.614	21987
807.756	22025
807.898	21915
808.04	21854
808.182	21903
808.324	22204
808.465	22219
808.607	22413
808.749	22683
808.891	22729
809.033	22831
809.174	22759
809.316	22538
809.458	22516
809.6	22379
809.741	22219
809.883	22253
810.025	22390
810.166	22280
810.308	22234
810.45	22109
810.591	22135
810.733	21941
810.875	21850
811.016	21675
811.158	21682
811.299	21846
811.441	21956
811.582	21960
811.724	21667
811.865	21652
812.007	21709
812.148	21747
812.29	21709
812.431	21941
812.573	22036
812.714	21983
812.855	22196
812.997	22413
813.138	22447
813.279	22382
813.421	22265
813.562	22188
813.703	22025
813.845	21892
813.986	21572
814.127	21389
814.268	21382
814.41	21386
814.551	21233
814.692	21393
814.833	21211
814.974	21256
815.115	21313
815.256	21165
815.397	21055
815.539	21150
815.68	20925
815.821	20921
815.962	20963
816.103	20971
816.244	20929
816.385	20739
816.526	20697
816.666	20636
816.807	20454
816.948	20590
817.089	20636
817.23	20427
817.371	20434
817.512	20511
817.653	20454
817.793	20408
817.934	20526
818.075	20450
818.216	20419
818.356	20396
818.497	20199
818.638	20092
818.778	20134
818.919	20164
819.06	20119
819.2	20294
819.341	20199
819.481	20400
819.622	20465
819.762	20530
819.903	20499
820.043	20415
820.184	20347
820.324	20298
820.465	20583
820.605	20457
820.746	20461
820.886	20180
821.026	20301
821.167	20343
821.307	20446
821.447	20305
821.588	20183
821.728	20115
821.868	19894
822.008	19761
822.149	19753
822.289	19708
822.429	19491
822.569	19464
822.709	19468
822.849	19263
822.99	19301
823.13	19213
823.27	19217
823.41	19095
823.55	19103
823.69	19095
823.83	19076
823.97	19118
824.11	18928
824.25	18787
824.389	18825
824.529	18970
824.669	18901
824.809	19015
824.949	18928
825.089	18848
825.228	18802
825.368	18658
825.508	18642
825.648	18760
825.787	18738
825.927	18760
826.067	18646
826.206	18696
826.346	18768
826.485	18627
826.625	18658
826.765	18669
826.904	18684
827.044	18391
827.183	18327
827.323	18311
827.462	18365
827.601	18410
827.741	18330
827.88	18289
828.02	18201
828.159	18319
828.298	18247
828.437	18369
828.577	18327
828.716	18494
828.855	18338
828.994	18106
829.134	18091
829.273	18205
829.412	18201
829.551	17980
829.69	18129
829.829	18167
829.968	18304
830.107	18163
830.246	18117
830.385	17973
830.524	18026
830.663	17847
830.802	17786
830.941	17684
831.08	17653
831.219	17733
831.357	17745
831.496	17958
831.635	17646
831.774	17668
831.913	17592
832.051	17535
832.19	17433
832.329	17581
832.467	17493
832.606	17307
832.744	17383
832.883	17448
833.022	17391
833.16	17421
833.299	17417
833.437	17505
833.576	17539
833.714	17486
833.852	17455
833.991	17604
834.129	17524
834.267	17619
834.406	17463
834.544	17490
834.682	17539
834.821	17414
834.959	17642
835.097	17463
835.235	17532
835.373	17345
835.511	17478
835.65	17387
835.788	17296
835.926	17250
836.064	17250
836.202	17254
836.34	17433
836.478	17501
836.615	17353
836.753	17280
836.891	17501
837.029	17288
837.167	17277
837.305	17299
837.443	17162
837.58	17223
837.718	17258
837.856	17220
837.993	17174
838.131	17254
838.269	17041
838.406	17239
838.544	16949
838.681	16946
838.819	16923
838.956	16862
839.094	16755
839.231	16847
839.369	16881
839.506	17113
839.643	16904
839.781	16744
839.918	16634
840.055	16740
840.193	16702
840.33	16649
840.467	16702
840.604	16721
840.742	17037
840.879	16535
841.016	16653
841.153	16672
841.29	16767
841.427	16809
841.564	16733
841.701	16793
841.838	16733
841.975	16675
842.112	16645
842.249	16554
842.385	16455
842.522	16683
842.659	16538
842.796	16466
842.933	16519
843.069	16394
843.206	16413
843.343	16584
843.479	16474
843.616	16512
843.752	16287
843.889	16329
844.025	16500
844.162	16363
844.298	16341
844.435	16352
844.571	16341
844.708	16314
844.844	16485
844.98	16462
845.117	16402
845.253	16280
845.389	16371
845.525	16481
845.661	16577
845.798	16679
845.934	16915
846.07	16942
846.206	16972
846.342	17022
846.478	16755
846.614	16249
846.75	16017
846.886	15975
847.022	16040
847.158	15907
847.294	15937
847.429	15895
847.565	15785
847.701	16051
847.837	15572
847.972	15576
848.108	15736
848.244	15584
848.379	15538
848.515	15389
848.65	15428
848.786	15393
848.921	15496
849.057	15557
849.192	15530
849.328	15492
849.463	15454
849.598	15408
849.734	15416
849.869	15256
850.004	15203
850.14	15283
850.275	15142
850.41	15291
850.545	15195
850.68	15268
850.815	15119
850.95	15146
851.085	15405
851.22	15237
851.355	15268
851.49	15180
851.625	15150
851.76	15131
851.895	15131
852.03	15024
852.165	15237
852.299	15157
852.434	15176
852.569	15237
852.703	15218
852.838	15260
852.973	15313
853.107	15313
853.242	15188
853.376	15085
853.511	14929
853.645	15051
853.78	15241
853.914	15146
854.048	15123
854.183	15039
854.317	15138
854.451	15226
854.585	15043
854.72	15024
854.854	15176
854.988	14937
855.122	15039
855.256	14902
855.39	15116
855.524	15112
855.658	15093
855.792	15058
855.926	15058
856.06	15226
856.194	15241
856.327	15150
856.461	14960
856.595	15036
856.729	15001
856.862	15192
856.996	15123
857.13	15135
857.263	15249
857.397	15157
857.53	15077
857.664	15058
857.797	15230
857.931	15184
858.064	15123
858.197	15157
858.331	15077
858.464	15138
858.597	14963
858.731	15036
858.864	14994
858.997	15039
859.13	15119
859.263	15001
859.396	15176
859.529	15081
859.662	15051
859.795	14998
859.928	15058
860.061	15207
860.194	15180
860.327	15100
860.46	15081
860.592	15135
860.725	15066
860.858	15173
860.99	15070
861.123	14887
861.256	14937
861.388	15062
861.521	15785
861.653	14967
861.786	14811
861.918	14990
862.05	14914
862.183	14994
862.315	15001
862.447	15017
862.58	15001
862.712	14853
862.844	14834
862.976	14861
863.108	14872
863.24	15142
863.372	14830
863.504	14796
863.636	14853
863.768	14826
863.9	14853
864.032	14731
864.164	14864
864.296	14876
864.428	14853
864.559	14982
864.691	14895
864.823	14883
864.954	14815
865.086	14861
865.217	14788
865.349	14708
865.48	14811
865.612	14872
865.743	14982
865.875	14830
866.006	14693
866.137	14823
866.269	14842
866.4	14826
866.531	14762
866.662	14663
866.793	14731
866.924	14792
867.055	14731
867.186	14830
867.317	14758
867.448	14693
867.579	14826
867.71	14754
867.841	14731
867.972	14697
868.103	14864
868.233	14750
868.364	14701
868.495	14796
868.625	15051
868.756	15131
868.886	15032
869.017	14979
869.147	15074
869.278	15123
869.408	15116
869.539	15005
869.669	15176
869.799	14998
869.929	15176
870.06	15146
870.19	15363
870.32	15428
870.45	15363
870.58	15443
870.71	15515
870.84	15485
870.97	15428
871.1	15454
871.23	15519
871.36	15652
871.489	15519
871.619	15622
871.749	15713
871.879	15553
872.008	15789
872.138	15667
872.267	15717
872.397	15549
872.526	15473
872.656	15481
872.785	15519
872.915	15671
873.044	15682
873.173	15686
873.303	15713
873.432	15648
873.561	15732
873.69	15682
873.819	15720
873.948	15736
874.077	15770
874.206	15679
874.335	15690
874.464	15819
874.593	15987
874.722	15895
874.851	16071
874.979	16025
875.108	16025
875.237	15972
875.365	15979
875.494	16010
875.623	16101
875.751	15968
875.88	16078
876.008	16207
876.136	16314
876.265	16398
876.393	16474
876.521	16512
876.65	16428
876.778	16546
876.906	16363
877.034	16447
877.162	16421
877.29	16367
877.418	16386
877.546	16474
877.674	16459
877.802	16440
877.93	16394
878.058	16394
878.185	16306
878.313	16451
878.441	16573
878.568	16310
878.696	16443
878.824	16599
878.951	16660
879.079	16828
879.206	17067
879.333	16999
879.461	16889
879.588	17006
879.715	17029
879.842	17185
879.97	16824
880.097	16558
880.224	16432
880.351	16531
880.478	16398
880.605	16306
880.732	16440
880.859	16641
880.986	16447
881.112	16322
881.239	16310
881.366	16200
881.493	16101
881.619	15953
881.746	16120
881.872	15994
881.999	16025
882.125	15968
882.252	16029
882.378	16090
882.505	16086
882.631	15926
882.757	15842
882.883	15819
883.01	15895
883.136	15827
883.262	15789
883.388	15606
883.514	15911
883.64	15930
883.766	15838
883.892	15732
884.018	15701
884.143	15789
884.269	15956
884.395	15519
884.52	15485
884.646	15542
884.772	15507
884.897	15401
885.023	15564
885.148	15751
885.274	15644
885.399	15538
885.524	15622
885.65	15405
885.775	15595
885.9	15458
886.025	15603
886.15	15686
886.275	15523
886.4	15363
886.525	15519
886.65	15447
886.775	15485
886.9	15606
887.025	15717
887.149	15416
887.274	15313
887.399	15165
887.523	15237
887.648	15256
887.773	15165
887.897	15393
888.021	15386
888.146	15233
888.27	15393
888.395	15355
888.519	15241
888.643	15420
888.767	15291
888.891	15192
889.015	15180
889.139	15211
889.263	15047
889.387	15214
889.511	15313
889.635	15237
889.759	15055
889.883	15165
890.006	15188
890.13	15233
890.254	14998
890.377	15036
890.501	14944
890.624	14883
890.748	15074
890.871	14834
890.995	14716
891.118	14765
891.241	14769
891.364	14781
891.488	14800
891.611	14804
891.734	14800
891.857	14933
891.98	14804
892.103	14914
892.226	14876
892.349	14716
892.471	14632
892.594	14754
892.717	14811
892.839	14834
892.962	14743
893.085	14807
893.207	14834
893.33	14731
893.452	14701
893.575	14914
893.697	14731
893.819	14944
893.941	14864
894.064	14830
894.186	14773
894.308	14845
894.43	14948
894.552	14933
894.674	14933
894.796	14689
894.918	14727
895.04	14788
895.161	14979
895.283	14876
895.405	14792
895.526	14838
895.648	14899
895.769	14868
895.891	14933
896.012	14948
896.134	15017
896.255	14914
896.376	14872
896.498	14975
896.619	14918
896.74	15005
896.861	14967
896.982	15237
897.103	15355
897.224	15302
897.345	15123
897.466	15085
897.587	15100
897.708	15321
897.828	15211
897.949	15142
898.07	15161
898.19	15218
898.311	15378
898.431	15169
898.552	15188
898.672	15302
898.792	15378
898.913	15359
899.033	15260
899.153	15047
899.273	14963
899.393	15032
899.513	15108
899.633	15100
899.753	15123
899.873	15142
899.993	15157
900.113	15070
900.232	15195
900.352	15097
900.472	15032
900.591	14952
900.711	15039
900.83	14830
900.95	15009
901.069	15131
901.189	14868
901.308	14678
901.427	14663
901.546	14659
901.665	14602
901.784	14651
901.904	14518
902.023	14450
902.141	14244
902.26	14130
902.379	14366
902.498	14153
902.617	14145
902.735	14362
902.854	14100
902.973	13997
903.091	13864
903.21	13868
903.328	13989
903.446	13791
903.565	13666
903.683	13784
903.801	13647
903.919	13563
904.038	13662
904.156	13537
904.274	13643
904.392	13460
904.51	13544
904.627	13495
904.745	13559
904.863	13613
904.981	13388
905.098	13183
905.216	13194
905.334	13251
905.451	13187
905.569	13236
905.686	13354
905.803	13225
905.921	13107
906.038	13099
906.155	13107
906.272	12825
906.389	12981
906.506	12878
906.623	12707
906.74	12875
906.857	12681
906.974	12730
907.091	12867
907.208	12943
907.324	12909
907.441	12665
907.557	12612
907.674	12570
907.79	12456
907.907	12509
908.023	12566
908.139	12536
908.256	12566
908.372	12540
908.488	12475
908.604	12300
908.72	12201
908.836	12258
908.952	12232
909.068	12296
909.184	12403
909.3	12395
909.415	12426
909.531	12285
909.647	12140
909.762	12140
909.878	11996
909.993	12041
910.108	12057
910.224	12034
910.339	12041
910.454	11954
910.57	11847
910.685	11859
910.8	12159
910.915	12095
911.03	11935
911.145	11752
911.259	11760
911.374	11828
911.489	11783
911.604	11684
911.718	11543
911.833	11474
911.947	11398
912.062	11277
912.176	11505
912.291	11551
912.405	11516
912.519	11714
912.633	11604
912.748	11566
912.862	11482
912.976	11395
913.09	11242
913.204	11330
913.318	11311
913.431	11436
913.545	11471
913.659	11429
913.772	11341
913.886	11273
914	11227
914.113	11299
914.226	11398
914.34	11353
914.453	11159
914.566	11261
914.68	11132
914.793	11140
914.906	10949
915.019	10866
915.132	10953
915.245	10972
915.358	11029
915.47	11094
915.583	11003
915.696	10999
915.809	11147
915.921	11178
916.034	11022
916.146	10892
916.259	10892
916.371	10987
916.483	10972
916.595	10938
916.708	10930
916.82	10919
916.932	10934
917.044	10911
917.156	10885
917.268	10740
917.38	10896
917.491	10733
917.603	10801
917.715	10873
917.826	10923
917.938	10778
918.049	10664
918.161	10847
918.272	10919
918.384	10843
918.495	10771
918.606	10672
918.717	10615
918.828	10706
918.939	10694
919.05	10599
919.161	10599
919.272	10436
919.383	10558
919.494	10698
919.604	10946
919.715	10675
919.826	10611
919.936	10656
920.047	10733
920.157	10675
920.267	10831
920.378	10687
920.488	10573
920.598	10908
920.708	11022
920.818	10869
920.928	10889
921.038	11022
921.148	10938
921.258	10641
921.368	10653
921.477	10500
921.587	10478
921.697	10405
921.806	10500
921.916	10390
922.025	10230
922.134	10185
922.244	10188
922.353	10333
922.462	10067
922.571	10074
922.68	9869
922.789	9911
922.898	9941
923.007	9797
923.116	9895
923.224	9979
923.333	9915
923.442	9823
923.55	9861
923.659	9800
923.767	9842
923.876	9690
923.984	9785
924.092	9698
924.201	9797
924.309	9759
924.417	9819
924.525	9724
924.633	9682
924.741	10615
924.849	9469
924.956	9644
925.064	9549
925.172	9469
925.279	9538
925.387	9545
925.494	9545
925.602	9724
925.709	9595
925.816	9420
925.924	9545
926.031	9610
926.138	9526
926.245	9553
926.352	9462
926.459	9553
926.566	9622
926.673	9462
926.779	9408
926.886	9348
926.993	9275
927.099	9310
927.206	9142
927.312	9161
927.419	9325
927.525	9214
927.631	9264
927.737	9188
927.843	9123
927.95	8994
928.056	9089
928.162	9081
928.267	9157
928.373	9816
928.479	9222
928.585	8941
928.69	9112
928.796	9138
928.901	9009
929.007	8853
929.112	9024
929.218	8982
929.323	8986
929.428	8883
929.533	9081
929.638	8845
929.743	8823
929.848	8887
929.953	8868
930.058	8853
930.163	8746
930.267	8674
930.372	8830
930.477	8651
930.581	8933
930.685	8792
930.79	8667
930.894	8693
930.998	8606
931.103	8746
931.207	8473
931.311	8385
931.415	8256
931.519	8111
931.623	8142
