Data from test_V78500241_808.txt Node
Date: Fri Mar 25 14:39:20 CST 2022
User: usil
Spectrometer: V785-0024
Trigger mode: 0
Integration Time (sec): 4.000000E-1
Scans to average: 1
Nonlinearity correction enabled: false
Boxcar width: 0
Storing dark spectrum: false
XAxis mode: Wavelengths
Number of Pixels in Spectrum: 1024
>>>>>Begin Spectral Data<<<<<
801.071	26457
801.214	26122
801.356	26062
801.499	25947
801.641	25864
801.783	25761
801.926	25685
802.068	25746
802.211	25400
802.353	25441
802.496	25244
802.638	25263
802.78	25240
802.923	25168
803.065	25050
803.208	25091
803.35	25145
803.492	25297
803.635	25263
803.777	25282
803.919	25289
804.061	25544
804.204	25460
804.346	25422
804.488	25430
804.63	25518
804.773	25331
804.915	25358
805.057	25616
805.199	25540
805.341	25662
805.483	25723
805.626	25670
805.768	25826
805.91	25776
806.052	26039
806.194	26008
806.336	26396
806.478	26404
806.62	26461
806.762	26575
806.904	27028
807.046	27427
807.188	27774
807.33	28150
807.472	28512
807.614	28980
807.756	29733
807.898	30380
808.04	31578
808.182	33188
808.324	35083
808.465	37407
808.607	40082
808.749	42224
808.891	43422
809.033	43928
809.174	42346
809.316	40200
809.458	37544
809.6	35048
809.741	32868
809.883	31228
810.025	30285
810.166	29223
810.308	28687
810.45	28169
810.591	27819
810.733	27416
810.875	26971
811.016	26762
811.158	26492
811.299	26564
811.441	26503
811.582	26495
811.724	26142
811.865	26100
812.007	26134
812.148	25871
812.29	25894
812.431	26027
812.573	26256
812.714	26107
812.855	26180
812.997	26317
813.138	26461
813.279	26191
813.421	26065
813.562	25970
813.703	25822
813.845	25723
813.986	25194
814.127	25221
814.268	24981
814.41	24996
814.551	24920
814.692	25027
814.833	24844
814.974	24886
815.115	24817
815.256	24631
815.397	24498
815.539	24757
815.68	24536
815.821	24585
815.962	24574
816.103	24452
816.244	24353
816.385	24220
816.526	24213
816.666	24060
816.807	23840
816.948	24026
817.089	23935
817.23	23942
817.371	23870
817.512	23794
817.653	23863
817.793	23802
817.934	23790
818.075	23786
818.216	23767
818.356	23726
818.497	23627
818.638	23421
818.778	23425
818.919	23516
819.06	23543
819.2	23634
819.341	23668
819.481	23748
819.622	23729
819.762	24102
819.903	23786
820.043	23798
820.184	23748
820.324	23627
820.465	23790
820.605	23703
820.746	23676
820.886	23345
821.026	23733
821.167	23581
821.307	23638
821.447	23509
821.588	23387
821.728	23223
821.868	22984
822.008	23098
822.149	22976
822.289	22984
822.429	22717
822.569	22538
822.709	22535
822.849	22348
822.99	22432
823.13	22329
823.27	22303
823.41	22177
823.55	22143
823.69	22242
823.83	22257
823.97	22147
824.11	22017
824.25	21934
824.389	21979
824.529	21960
824.669	21968
824.809	21972
824.949	21956
825.089	21983
825.228	21926
825.368	21660
825.508	21686
825.648	21736
825.787	21911
825.927	21854
826.067	21724
826.206	21705
826.346	21736
826.485	21842
826.625	21797
826.765	21770
826.904	21660
827.044	21530
827.183	21431
827.323	21458
827.462	21523
827.601	21477
827.741	21359
827.88	21408
828.02	21306
828.159	21287
828.298	21317
828.437	21477
828.577	21401
828.716	21454
828.855	21252
828.994	21165
829.134	21043
829.273	21165
829.412	21055
829.551	21093
829.69	21051
829.829	21104
829.968	21096
830.107	21135
830.246	20960
830.385	20925
830.524	21020
830.663	20891
830.802	20853
830.941	20689
831.08	20705
831.219	20693
831.357	20731
831.496	21009
831.635	20609
831.774	20701
831.913	20560
832.051	20609
832.19	20480
832.329	20461
832.467	20552
832.606	20514
832.744	20469
832.883	20632
833.022	20518
833.16	20514
833.299	20739
833.437	20952
833.576	20998
833.714	20979
833.852	21214
833.991	21214
834.129	21302
834.267	21458
834.406	21199
834.544	21245
834.682	21214
834.821	21131
834.959	21287
835.097	20838
835.235	20895
835.373	20724
835.511	20720
835.65	20484
835.788	20377
835.926	20199
836.064	20221
836.202	20259
836.34	20278
836.478	20404
836.615	20313
836.753	20282
836.891	20248
837.029	20305
837.167	20168
837.305	20107
837.443	20046
837.58	19963
837.718	20176
837.856	20142
837.993	19868
838.131	20138
838.269	19887
838.406	19947
838.544	19883
838.681	19594
838.819	19727
838.956	19430
839.094	19438
839.231	19506
839.369	19681
839.506	19921
839.643	19666
839.781	19529
839.918	19369
840.055	19544
840.193	19449
840.33	19419
840.467	19426
840.604	19403
840.742	19662
840.879	19266
841.016	19384
841.153	19381
841.29	19647
841.427	19419
841.564	19483
841.701	19419
841.838	19468
841.975	19373
842.112	19289
842.249	19293
842.385	19164
842.522	19362
842.659	19327
842.796	19278
842.933	19289
843.069	19266
843.206	19202
843.343	19369
843.479	19301
843.616	19346
843.752	19217
843.889	19232
844.025	19525
844.162	19381
844.298	19426
844.435	19540
844.571	19715
844.708	19814
844.844	20225
844.98	20549
845.117	21081
845.253	21500
845.389	22984
845.525	25571
845.661	29783
845.798	35159
845.934	39287
846.07	40885
846.206	39926
846.342	36403
846.478	31225
846.614	26701
846.75	23630
846.886	21800
847.022	20838
847.158	20126
847.294	19689
847.429	19487
847.565	19251
847.701	19247
847.837	18700
847.972	18608
848.108	18585
848.244	18639
848.379	18460
848.515	18334
848.65	18254
848.786	18350
848.921	18239
849.057	18315
849.192	18262
849.328	18106
849.463	18045
849.598	18114
849.734	18079
849.869	18007
850.004	17923
850.14	17980
850.275	17897
850.41	17805
850.545	17783
850.68	17904
850.815	17901
850.95	17882
851.085	18087
851.22	17984
851.355	17908
851.49	17817
851.625	17809
851.76	17851
851.895	17870
852.03	17824
852.165	17908
852.299	17779
852.434	18087
852.569	17908
852.703	17980
852.838	18022
852.973	18095
853.107	18152
853.242	17939
853.376	17931
853.511	17809
853.645	17889
853.78	17996
853.914	17961
854.048	18038
854.183	18041
854.317	18053
854.451	18209
854.585	17980
854.72	18015
854.854	18049
854.988	17912
855.122	17836
855.256	17805
855.39	17786
855.524	17897
855.658	17901
855.792	17870
855.926	17805
856.06	17859
856.194	17882
856.327	17676
856.461	17726
856.595	17741
856.729	17710
856.862	17729
856.996	17783
857.13	17836
857.263	17859
857.397	17726
857.53	17703
857.664	17805
857.797	17703
857.931	17828
858.064	17805
858.197	17866
858.331	17627
858.464	17608
858.597	17490
858.731	17573
858.864	17516
858.997	17577
859.13	17611
859.263	17592
859.396	17566
859.529	17551
859.662	17589
859.795	17520
859.928	17585
860.061	17699
860.194	17649
860.327	17581
860.46	17528
860.592	17649
860.725	17672
860.858	17668
860.99	17627
861.123	17505
861.256	17490
861.388	17509
861.521	18232
861.653	17452
861.786	17486
861.918	17463
862.05	17395
862.183	17524
862.315	17592
862.447	17592
862.58	17478
862.712	17258
862.844	17254
862.976	17414
863.108	17341
863.24	17741
863.372	17254
863.504	17250
863.636	17242
863.768	17406
863.9	17284
864.032	17193
864.164	17265
864.296	17216
864.428	17360
864.559	17311
864.691	17337
864.823	17307
864.954	17299
865.086	17174
865.217	17208
865.349	17117
865.48	17197
865.612	17307
865.743	17395
865.875	17318
866.006	17086
866.137	17208
866.269	17147
866.4	17174
866.531	17181
866.662	17033
866.793	17143
866.924	17200
867.055	17178
867.186	17220
867.317	17166
867.448	17003
867.579	17250
867.71	17140
867.841	16965
867.972	17220
868.103	17155
868.233	16995
868.364	17193
868.495	17311
868.625	17315
868.756	17478
868.886	17414
869.017	17391
869.147	17440
869.278	17535
869.408	17497
869.539	17482
869.669	17372
869.799	17604
869.929	17684
870.06	17532
870.19	17707
870.32	17790
870.45	17775
870.58	17916
870.71	18034
870.84	17916
870.97	17977
871.1	17866
871.23	18121
871.36	18091
871.489	17988
871.619	18136
871.749	18079
871.879	18110
872.008	18197
872.138	18110
872.267	18251
872.397	17950
872.526	17870
872.656	18019
872.785	18053
872.915	18254
873.044	18254
873.173	18296
873.303	18346
873.432	18281
873.561	18334
873.69	18315
873.819	18369
873.948	18460
874.077	18380
874.206	18391
874.335	18395
874.464	18616
874.593	18665
874.722	18734
874.851	18951
874.979	18776
875.108	18924
875.237	18810
875.365	18715
875.494	18890
875.623	18859
875.751	18920
875.88	18989
876.008	19160
876.136	19343
876.265	19487
876.393	19662
876.521	19605
876.65	19693
876.778	19719
876.906	19674
877.034	19677
877.162	19677
877.29	19868
877.418	19963
877.546	19951
877.674	19902
877.802	20202
877.93	20294
878.058	20248
878.185	20473
878.313	20693
878.441	20921
878.568	21077
878.696	21637
878.824	22284
878.951	23307
879.079	24369
879.206	26031
879.333	27610
879.461	28908
879.588	29840
879.715	29722
879.842	29090
879.97	27633
880.097	25807
880.224	24528
880.351	23813
880.478	23094
880.605	22599
880.732	22436
880.859	22306
880.986	21979
881.112	21865
881.239	21739
881.366	21542
881.493	21572
881.619	21431
881.746	21450
881.872	21504
881.999	21599
882.125	21629
882.252	21679
882.378	21561
882.505	21785
882.631	21553
882.757	21488
882.883	21572
883.01	21561
883.136	21397
883.262	21408
883.388	21329
883.514	21412
883.64	21405
883.766	21416
883.892	21272
884.018	21176
884.143	21507
884.269	21492
884.395	21256
884.52	21123
884.646	21150
884.772	21150
884.897	21127
885.023	21188
885.148	21275
885.274	21230
885.399	21157
885.524	21013
885.65	21013
885.775	20819
885.9	20678
886.025	20724
886.15	20522
886.275	20229
886.4	20191
886.525	20145
886.65	20005
886.775	19902
886.9	19955
887.025	20012
887.149	19734
887.274	19666
887.399	19460
887.523	19464
887.648	19164
887.773	19164
887.897	19179
888.021	19122
888.146	19095
888.27	19145
888.395	19046
888.519	18993
888.643	19008
888.767	19015
888.891	18791
889.015	18726
889.139	18620
889.263	18551
889.387	18677
889.511	18768
889.635	18593
889.759	18479
889.883	18407
890.006	18437
890.13	18547
890.254	18391
890.377	18353
890.501	18083
890.624	18049
890.748	18201
890.871	18045
890.995	17908
891.118	17805
891.241	17916
891.364	17859
891.488	18015
891.611	17760
891.734	17752
891.857	17840
891.98	17821
892.103	17824
892.226	17710
892.349	17737
892.471	17558
892.594	17657
892.717	17649
892.839	17585
892.962	17592
893.085	17611
893.207	17532
893.33	17436
893.452	17345
893.575	17543
893.697	17414
893.819	17520
893.941	17455
894.064	17455
894.186	17284
894.308	17299
894.43	17307
894.552	17425
894.674	17368
894.796	17250
894.918	17185
895.04	17220
895.161	17292
895.283	17162
895.405	17181
895.526	17311
895.648	17265
895.769	17178
895.891	17155
896.012	17337
896.134	17322
896.255	17155
896.376	17052
896.498	17155
896.619	17299
896.74	17185
896.861	17242
896.982	17543
897.103	17619
897.224	17429
897.345	17471
897.466	17318
897.587	17391
897.708	17410
897.828	17383
897.949	17250
898.07	17162
898.19	17345
898.311	17387
898.431	17273
898.552	17372
898.672	17402
898.792	17429
898.913	17486
899.033	17337
899.153	17189
899.273	17090
899.393	17261
899.513	17170
899.633	17242
899.753	17246
899.873	17193
899.993	17250
900.113	17200
900.232	17212
900.352	17185
900.472	17121
900.591	16942
900.711	17064
900.83	17006
900.95	17048
901.069	17079
901.189	16942
901.308	16793
901.427	16675
901.546	16702
901.665	16611
901.784	16664
901.904	16497
902.023	16352
902.141	16158
902.26	16086
902.379	16261
902.498	16192
902.617	16105
902.735	16097
902.854	16036
902.973	15979
903.091	15797
903.21	15785
903.328	15682
903.446	15637
903.565	15564
903.683	15637
903.801	15439
903.919	15526
904.038	15542
904.156	15287
904.274	15401
904.392	15283
904.51	15336
904.627	15298
904.745	15306
904.863	15329
904.981	15077
905.098	14982
905.216	14941
905.334	14982
905.451	14990
905.569	14868
905.686	14982
905.803	14975
905.921	14845
906.038	14849
906.155	14861
906.272	14697
906.389	14667
906.506	14541
906.623	14434
906.74	14495
906.857	14469
906.974	14347
907.091	14617
907.208	14560
907.324	14503
907.441	14343
907.557	14233
907.674	14244
907.79	14138
907.907	14111
908.023	14305
908.139	14218
908.256	14138
908.372	14115
908.488	14176
908.604	14027
908.72	13997
908.836	13898
908.952	14016
909.068	13898
909.184	14058
909.3	13963
909.415	14016
909.531	13955
909.647	13761
909.762	13628
909.878	13620
909.993	13647
910.108	13597
910.224	13738
910.339	13712
910.454	13590
910.57	13464
910.685	13441
910.8	13712
910.915	13647
911.03	13506
911.145	13369
911.259	13369
911.374	13358
911.489	13274
911.604	13228
911.718	13072
911.833	13061
911.947	13000
912.062	12932
912.176	13088
912.291	13107
912.405	13034
912.519	13270
912.633	13266
912.748	13156
912.862	13110
912.976	12989
913.09	12859
913.204	12867
913.318	12924
913.431	13027
913.545	13050
913.659	13053
913.772	12905
913.886	12764
914	12711
914.113	12882
914.226	12905
914.34	12867
914.453	12779
914.566	12837
914.68	12665
914.793	12639
914.906	12555
915.019	12509
915.132	12365
915.245	12456
915.358	12494
915.47	12525
915.583	12479
915.696	12509
915.809	12540
915.921	12707
916.034	12483
916.146	12490
916.259	12547
916.371	12540
916.483	12502
916.595	12338
916.708	12426
916.82	12479
916.932	12395
917.044	12315
917.156	12426
917.268	12292
917.38	12353
917.491	12315
917.603	12300
917.715	12311
917.826	12399
917.938	12224
918.049	12117
918.161	12209
918.272	12456
918.384	12353
918.495	12254
918.606	12102
918.717	12049
918.828	12114
918.939	12003
919.05	11958
919.161	11935
919.272	11851
919.383	11939
919.494	12049
919.604	12251
919.715	12015
919.826	11973
919.936	11988
920.047	12064
920.157	11965
920.267	12292
920.378	12053
920.488	12015
920.598	12254
920.708	12228
920.818	12175
920.928	12182
921.038	12391
921.148	12277
921.258	12019
921.368	11950
921.477	11851
921.587	11752
921.697	11577
921.806	11775
921.916	11653
922.025	11497
922.134	11455
922.244	11387
922.353	11539
922.462	11341
922.571	11311
922.68	11216
922.789	11102
922.898	11166
923.007	11162
923.116	11159
923.224	11117
923.333	11041
923.442	11037
923.55	10942
923.659	10991
923.767	11071
923.876	10927
923.984	11025
924.092	10862
924.201	11018
924.309	10987
924.417	10946
924.525	10889
924.633	10911
924.741	11775
924.849	10694
924.956	10828
925.064	10637
925.172	10588
925.279	10710
925.387	10710
925.494	10710
925.602	10793
925.709	10725
925.816	10656
925.924	10748
926.031	10729
926.138	10660
926.245	10755
926.352	10546
926.459	10717
926.566	10748
926.673	10656
926.779	10569
926.886	10402
926.993	10386
927.099	10360
927.206	10322
927.312	10249
927.419	10367
927.525	10329
927.631	10379
927.737	10253
927.843	10162
927.95	10105
928.056	10227
928.162	10246
928.267	10344
928.373	10831
928.479	10291
928.585	10059
928.69	10196
928.796	10246
928.901	10128
929.007	10025
929.112	10162
929.218	10101
929.323	10021
929.428	9960
929.533	10063
929.638	9953
929.743	9949
929.848	10017
929.953	9941
930.058	9911
930.163	9816
930.267	9732
930.372	9800
930.477	9743
930.581	9953
930.685	9804
930.79	9564
930.894	9671
930.998	9633
931.103	9736
931.207	9431
931.311	9435
931.415	9222
931.519	9077
931.623	9127
