Data from test_V78500241_2184.txt Node
Date: Fri Mar 25 14:48:55 CST 2022
User: usil
Spectrometer: V785-0024
Trigger mode: 0
Integration Time (sec): 4.000000E-1
Scans to average: 1
Nonlinearity correction enabled: false
Boxcar width: 0
Storing dark spectrum: false
XAxis mode: Wavelengths
Number of Pixels in Spectrum: 1024
>>>>>Begin Spectral Data<<<<<
801.071	22177
801.214	22048
801.356	21747
801.499	21694
801.641	21477
801.783	21568
801.926	21629
802.068	21454
802.211	21450
802.353	21382
802.496	21055
802.638	21066
802.78	20979
802.923	20986
803.065	20712
803.208	20765
803.35	20861
803.492	20918
803.635	20952
803.777	20864
803.919	20906
804.061	21241
804.204	20914
804.346	20963
804.488	20712
804.63	20811
804.773	20701
804.915	20750
805.057	20906
805.199	20678
805.341	20823
805.483	20887
805.626	20823
805.768	20743
805.91	20781
806.052	20796
806.194	20712
806.336	20800
806.478	20811
806.62	20678
806.762	20868
806.904	21009
807.046	21116
807.188	21093
807.33	21009
807.472	21188
807.614	21005
807.756	20971
807.898	20906
808.04	20857
808.182	20773
808.324	20826
808.465	20906
808.607	21180
808.749	21135
808.891	21370
809.033	21359
809.174	21222
809.316	21085
809.458	21043
809.6	21100
809.741	21249
809.883	21222
810.025	21382
810.166	21329
810.308	21272
810.45	21085
810.591	21119
810.733	21074
810.875	21032
811.016	20834
811.158	20754
811.299	20960
811.441	21176
811.582	21055
811.724	20929
811.865	20804
812.007	20960
812.148	20963
812.29	20842
812.431	21013
812.573	21211
812.714	21275
812.855	21317
812.997	21519
813.138	21599
813.279	21405
813.421	21614
813.562	21344
813.703	21184
813.845	21055
813.986	20785
814.127	20598
814.268	20484
814.41	20499
814.551	20514
814.692	20522
814.833	20415
814.974	20457
815.115	20469
815.256	20320
815.397	20248
815.539	20240
815.68	20187
815.821	20134
815.962	20195
816.103	20103
816.244	20119
816.385	20027
816.526	19959
816.666	19639
816.807	19677
816.948	19700
817.089	19666
817.23	19708
817.371	19586
817.512	19552
817.653	19605
817.793	19647
817.934	19651
818.075	19639
818.216	19712
818.356	19567
818.497	19400
818.638	19251
818.778	19285
818.919	19270
819.06	19411
819.2	19487
819.341	19548
819.481	19411
819.622	19662
819.762	19826
819.903	19651
820.043	19601
820.184	19548
820.324	19495
820.465	19696
820.605	19643
820.746	19510
820.886	19381
821.026	19601
821.167	19483
821.307	19540
821.447	19491
821.588	19381
821.728	19263
821.868	19110
822.008	18878
822.149	18958
822.289	18951
822.429	18772
822.569	18669
822.709	18673
822.849	18376
822.99	18509
823.13	18429
823.27	18376
823.41	18327
823.55	18251
823.69	18258
823.83	18346
823.97	18262
824.11	17992
824.25	18022
824.389	18007
824.529	18091
824.669	17999
824.809	18053
824.949	18148
825.089	18076
825.228	18068
825.368	17912
825.508	17836
825.648	17805
825.787	17882
825.927	17824
826.067	17710
826.206	17771
826.346	17805
826.485	17866
826.625	17824
826.765	17824
826.904	17855
827.044	17570
827.183	17505
827.323	17512
827.462	17661
827.601	17589
827.741	17486
827.88	17455
828.02	17463
828.159	17345
828.298	17505
828.437	17722
828.577	17406
828.716	17672
828.855	17558
828.994	17143
829.134	17337
829.273	17261
829.412	17204
829.551	17170
829.69	17216
829.829	17258
829.968	17360
830.107	17231
830.246	17334
830.385	17261
830.524	17204
830.663	17045
830.802	17018
830.941	16847
831.08	16908
831.219	16938
831.357	16995
831.496	17113
831.635	16896
831.774	16820
831.913	16820
832.051	16698
832.19	16588
832.329	16675
832.467	16538
832.606	16508
832.744	16592
832.883	16459
833.022	16489
833.16	16550
833.299	16649
833.437	16622
833.576	16565
833.714	16558
833.852	16653
833.991	16618
834.129	16660
834.267	16630
834.406	16546
834.544	16569
834.682	16580
834.821	16653
834.959	16736
835.097	16512
835.235	16736
835.373	16607
835.511	16664
835.65	16493
835.788	16470
835.926	16363
836.064	16337
836.202	16432
836.34	16546
836.478	16611
836.615	16523
836.753	16554
836.891	16558
837.029	16569
837.167	16379
837.305	16470
837.443	16405
837.58	16261
837.718	16455
837.856	16459
837.993	16310
838.131	16375
838.269	16382
838.406	16322
838.544	16219
838.681	16074
838.819	16067
838.956	15922
839.094	16013
839.231	15918
839.369	16166
839.506	16341
839.643	16230
839.781	16010
839.918	15899
840.055	15937
840.193	15915
840.33	15892
840.467	15930
840.604	16006
840.742	16082
840.879	15861
841.016	15770
841.153	15861
841.29	16029
841.427	15918
841.564	16021
841.701	15888
841.838	15964
841.975	15816
842.112	15819
842.249	15793
842.385	15652
842.522	15911
842.659	15812
842.796	15580
842.933	15644
843.069	15614
843.206	15690
843.343	15808
843.479	15751
843.616	15770
843.752	15618
843.889	15473
844.025	15641
844.162	15488
844.298	15591
844.435	15564
844.571	15481
844.708	15466
844.844	15652
844.98	15682
845.117	15595
845.253	15466
845.389	15397
845.525	15397
845.661	15420
845.798	15260
845.934	15256
846.07	15230
846.206	15370
846.342	15450
846.478	15321
846.614	14971
846.75	15013
846.886	15047
847.022	15165
847.158	14986
847.294	14967
847.429	15131
847.565	15024
847.701	15340
847.837	14914
847.972	14720
848.108	14948
848.244	14849
848.379	14785
848.515	14632
848.65	14549
848.786	14590
848.921	14644
849.057	14716
849.192	14868
849.328	14701
849.463	14727
849.598	14705
849.734	14518
849.869	14541
850.004	14457
850.14	14393
850.275	14393
850.41	14400
850.545	14351
850.68	14381
850.815	14465
850.95	14385
851.085	14568
851.22	14632
851.355	14393
851.49	14537
851.625	14339
851.76	14503
851.895	14309
852.03	14313
852.165	14450
852.299	14412
852.434	14503
852.569	14366
852.703	14431
852.838	14358
852.973	14602
853.107	14560
853.242	14355
853.376	14385
853.511	14214
853.645	14351
853.78	14530
853.914	14290
854.048	14328
854.183	14320
854.317	14263
854.451	14465
854.585	14259
854.72	14309
854.854	14358
854.988	14202
855.122	14294
855.256	14237
855.39	14298
855.524	14396
855.658	14301
855.792	14374
855.926	14313
856.06	14362
856.194	14377
856.327	14282
856.461	14195
856.595	14381
856.729	14191
856.862	14415
856.996	14320
857.13	14355
857.263	14389
857.397	14492
857.53	14271
857.664	14339
857.797	14366
857.931	14389
858.064	14355
858.197	14434
858.331	14275
858.464	14298
858.597	14301
858.731	14275
858.864	14332
858.997	14309
859.13	14381
859.263	14320
859.396	14355
859.529	14271
859.662	14206
859.795	14309
859.928	14271
860.061	14442
860.194	14457
860.327	14324
860.46	14400
860.592	14381
860.725	14336
860.858	14446
860.99	14339
861.123	14081
861.256	14138
861.388	14240
861.521	14952
861.653	14145
861.786	14077
861.918	14149
862.05	14199
862.183	14176
862.315	14282
862.447	14347
862.58	14229
862.712	14069
862.844	13989
862.976	14161
863.108	14119
863.24	14400
863.372	13974
863.504	14058
863.636	14100
863.768	14081
863.9	14039
864.032	14039
864.164	14077
864.296	14092
864.428	14206
864.559	14145
864.691	14149
864.823	14115
864.954	14092
865.086	14126
865.217	14073
865.349	13909
865.48	14058
865.612	14096
865.743	14233
865.875	14130
866.006	14031
866.137	14069
866.269	14103
866.4	14096
866.531	14027
866.662	14008
866.793	14008
866.924	14020
867.055	14073
867.186	14043
867.317	14001
867.448	13925
867.579	14100
867.71	14027
867.841	13955
867.972	13940
868.103	14081
868.233	14084
868.364	14058
868.495	14077
868.625	14347
868.756	14438
868.886	14202
869.017	14267
869.147	14408
869.278	14400
869.408	14271
869.539	14309
869.669	14415
869.799	14324
869.929	14545
870.06	14450
870.19	14594
870.32	14670
870.45	14720
870.58	14670
870.71	14807
870.84	14807
870.97	14678
871.1	14712
871.23	14906
871.36	14849
871.489	14758
871.619	14857
871.749	14883
871.879	14887
872.008	15024
872.138	14937
872.267	14906
872.397	14712
872.526	14705
872.656	14701
872.785	14754
872.915	14979
873.044	15066
873.173	14990
873.303	15024
873.432	14921
873.561	15032
873.69	14925
873.819	14994
873.948	14956
874.077	14910
874.206	14998
874.335	14914
874.464	15127
874.593	15287
874.722	15154
874.851	15332
874.979	15317
875.108	15298
875.237	15146
875.365	15230
875.494	15268
875.623	15367
875.751	15264
875.88	15287
876.008	15363
876.136	15431
876.265	15701
876.393	15823
876.521	15793
876.65	15835
876.778	15732
876.906	15591
877.034	15603
877.162	15762
877.29	15614
877.418	15648
877.546	15663
877.674	15781
877.802	15713
877.93	15675
878.058	15644
878.185	15564
878.313	15694
878.441	15641
878.568	15564
878.696	15648
878.824	15717
878.951	15637
879.079	15895
879.206	16048
879.333	15789
879.461	15652
879.588	15789
879.715	15892
879.842	15987
879.97	15789
880.097	15481
880.224	15572
880.351	15530
880.478	15622
880.605	15519
880.732	15595
880.859	15770
880.986	15515
881.112	15599
881.239	15355
881.366	15275
881.493	15306
881.619	15077
881.746	15135
881.872	15154
881.999	15123
882.125	15150
882.252	15245
882.378	15188
882.505	15424
882.631	15119
882.757	15017
882.883	15085
883.01	15039
883.136	14921
883.262	14861
883.388	14823
883.514	14952
883.64	15055
883.766	15013
883.892	14876
884.018	14853
884.143	15047
884.269	15085
884.395	14735
884.52	14667
884.646	14682
884.772	14670
884.897	14636
885.023	14765
885.148	14739
885.274	14857
885.399	14796
885.524	14655
885.65	14682
885.775	14727
885.9	14785
886.025	14883
886.15	14826
886.275	14655
886.4	14545
886.525	14693
886.65	14648
886.775	14667
886.9	14845
887.025	14914
887.149	14644
887.274	14571
887.399	14450
887.523	14450
887.648	14492
887.773	14419
887.897	14541
888.021	14526
888.146	14537
888.27	14613
888.395	14537
888.519	14522
888.643	14613
888.767	14587
888.891	14450
889.015	14225
889.139	14454
889.263	14492
889.387	14541
889.511	14598
889.635	14530
889.759	14415
889.883	14499
890.006	14438
890.13	14431
890.254	14355
890.377	14400
890.501	14301
890.624	14191
890.748	14252
890.871	14187
890.995	14081
891.118	13993
891.241	14115
891.364	14088
891.488	14187
891.611	14134
891.734	14088
891.857	14225
891.98	14016
892.103	14191
892.226	14123
892.349	14119
892.471	13921
892.594	14069
892.717	13967
892.839	14020
892.962	14103
893.085	14183
893.207	14084
893.33	14123
893.452	14062
893.575	14081
893.697	13974
893.819	14256
893.941	14278
894.064	14259
894.186	14046
894.308	13959
894.43	14130
894.552	14324
894.674	14324
894.796	14008
894.918	14145
895.04	14069
895.161	14259
895.283	14240
895.405	14176
895.526	14225
895.648	14161
895.769	14210
895.891	14263
896.012	14294
896.134	14233
896.255	14313
896.376	14134
896.498	14332
896.619	14358
896.74	14328
896.861	14278
896.982	14610
897.103	14754
897.224	14518
897.345	14511
897.466	14457
897.587	14480
897.708	14819
897.828	14636
897.949	14488
898.07	14324
898.19	14518
898.311	14712
898.431	14564
898.552	14617
898.672	14686
898.792	14743
898.913	14659
899.033	14454
899.153	14415
899.273	14511
899.393	14465
899.513	14427
899.633	14522
899.753	14530
899.873	14374
899.993	14530
900.113	14454
900.232	14541
900.352	14545
900.472	14404
900.591	14294
900.711	14336
900.83	14294
900.95	14404
901.069	14537
901.189	14214
901.308	14115
901.427	14107
901.546	14073
901.665	14008
901.784	14043
901.904	13898
902.023	13868
902.141	13571
902.26	13609
902.379	13753
902.498	13567
902.617	13556
902.735	13708
902.854	13529
902.973	13457
903.091	13324
903.21	13346
903.328	13381
903.446	13194
903.565	13149
903.683	13202
903.801	13141
903.919	13221
904.038	13190
904.156	13019
904.274	12996
904.392	12993
904.51	12951
904.627	12989
904.745	12981
904.863	12905
904.981	12783
905.098	12669
905.216	12585
905.334	12684
905.451	12696
905.569	12688
905.686	12730
905.803	12646
905.921	12494
906.038	12627
906.155	12471
906.272	12376
906.389	12414
906.506	12224
906.623	12330
906.74	12194
906.857	12190
906.974	12144
907.091	12334
907.208	12384
907.324	12277
907.441	12159
907.557	12053
907.674	12030
907.79	11863
907.907	11920
908.023	12049
908.139	12053
908.256	11866
908.372	11931
908.488	11950
908.604	11767
908.72	11642
908.836	11729
908.952	11756
909.068	11794
909.184	11882
909.3	11809
909.415	11870
909.531	11722
909.647	11581
909.762	11554
909.878	11509
909.993	11490
910.108	11581
910.224	11452
910.339	11436
910.454	11414
910.57	11349
910.685	11322
910.8	11653
910.915	11535
911.03	11505
911.145	11284
911.259	11235
911.374	11140
911.489	11147
911.604	11113
911.718	10980
911.833	11018
911.947	10839
912.062	10835
912.176	10999
912.291	11006
912.405	11003
912.519	11201
912.633	11159
912.748	11037
912.862	11014
912.976	10843
913.09	10812
913.204	10786
913.318	10759
913.431	10961
913.545	10904
913.659	10938
913.772	10942
913.886	10790
914	10797
914.113	10862
914.226	10835
914.34	10869
914.453	10698
914.566	10793
914.68	10634
914.793	10755
914.906	10512
915.019	10443
915.132	10417
915.245	10519
915.358	10493
915.47	10538
915.583	10504
915.696	10497
915.809	10618
915.921	10618
916.034	10474
916.146	10424
916.259	10455
916.371	10455
916.483	10546
916.595	10356
916.708	10417
916.82	10379
916.932	10402
917.044	10382
917.156	10341
917.268	10314
917.38	10325
917.491	10363
917.603	10265
917.715	10405
917.826	10455
917.938	10249
918.049	10306
918.161	10363
918.272	10386
918.384	10500
918.495	10390
918.606	10215
918.717	10150
918.828	10246
918.939	10287
919.05	10128
919.161	10150
919.272	9975
919.383	10067
919.494	10223
919.604	10424
919.715	10322
919.826	10090
919.936	10147
920.047	10261
920.157	10276
920.267	10379
920.378	10318
920.488	10287
920.598	10466
920.708	10672
920.818	10485
920.928	10413
921.038	10580
921.148	10546
921.258	10284
921.368	10207
921.477	10090
921.587	10059
921.697	10010
921.806	10074
921.916	9998
922.025	9876
922.134	9831
922.244	9755
922.353	9873
922.462	9770
922.571	9679
922.68	9515
922.789	9523
922.898	9504
923.007	9504
923.116	9595
923.224	9557
923.333	9515
923.442	9466
923.55	9329
923.659	9393
923.767	9485
923.876	9359
923.984	9443
924.092	9283
924.201	9370
924.309	9348
924.417	9439
924.525	9340
924.633	9389
924.741	10109
924.849	9173
924.956	9321
925.064	9150
925.172	9058
925.279	9157
925.387	9203
925.494	9138
925.602	9332
925.709	9298
925.816	9112
925.924	9241
926.031	9302
926.138	9180
926.245	9169
926.352	9161
926.459	9237
926.566	9272
926.673	9154
926.779	9043
926.886	8982
926.993	8899
927.099	8857
927.206	8868
927.312	8792
927.419	8910
927.525	8948
927.631	8979
927.737	8796
927.843	8815
927.95	8670
928.056	8773
928.162	8773
928.267	8864
928.373	9435
928.479	8845
928.585	8617
928.69	8701
928.796	8777
928.901	8693
929.007	8575
929.112	8667
929.218	8766
929.323	8678
929.428	8594
929.533	8777
929.638	8556
929.743	8667
929.848	8663
929.953	8598
930.058	8495
930.163	8381
930.267	8347
930.372	8488
930.477	8358
930.581	8632
930.685	8431
930.79	8332
930.894	8317
930.998	8275
931.103	8480
931.207	8145
931.311	8050
931.415	7974
931.519	7879
931.623	7826
