Data from test_V78500241_3178.txt Node
Date: Fri Mar 25 14:55:50 CST 2022
User: usil
Spectrometer: V785-0024
Trigger mode: 0
Integration Time (sec): 4.000000E-1
Scans to average: 1
Nonlinearity correction enabled: false
Boxcar width: 0
Storing dark spectrum: false
XAxis mode: Wavelengths
Number of Pixels in Spectrum: 1024
>>>>>Begin Spectral Data<<<<<
801.071	22021
801.214	21930
801.356	21717
801.499	21492
801.641	21416
801.783	21340
801.926	21424
802.068	21256
802.211	21241
802.353	21203
802.496	20998
802.638	20838
802.78	20800
802.923	20918
803.065	20632
803.208	20834
803.35	20815
803.492	20792
803.635	20762
803.777	20705
803.919	20914
804.061	20967
804.204	20686
804.346	20629
804.488	20598
804.63	20606
804.773	20492
804.915	20648
805.057	20838
805.199	20640
805.341	20667
805.483	20724
805.626	20575
805.768	20629
805.91	20587
806.052	20602
806.194	20659
806.336	20705
806.478	20632
806.62	20606
806.762	20613
806.904	20785
807.046	21039
807.188	20933
807.33	20952
807.472	21127
807.614	20883
807.756	20781
807.898	20834
808.04	20659
808.182	20659
808.324	20758
808.465	20727
808.607	20902
808.749	20975
808.891	21161
809.033	20998
809.174	21028
809.316	20826
809.458	20990
809.6	20887
809.741	20986
809.883	21089
810.025	21123
810.166	21127
810.308	21161
810.45	21108
810.591	21028
810.733	20800
810.875	20830
811.016	20549
811.158	20823
811.299	20762
811.441	20918
811.582	20948
811.724	20769
811.865	20701
812.007	20750
812.148	20678
812.29	20792
812.431	20929
812.573	21157
812.714	21161
812.855	21275
812.997	21393
813.138	21534
813.279	21355
813.421	21249
813.562	21195
813.703	21039
813.845	20990
813.986	20617
814.127	20552
814.268	20336
814.41	20404
814.551	20324
814.692	20320
814.833	20263
814.974	20172
815.115	20298
815.256	20024
815.397	20100
815.539	20172
815.68	20054
815.821	20058
815.962	19997
816.103	20027
816.244	19887
816.385	19879
816.526	19780
816.666	19556
816.807	19365
816.948	19586
817.089	19533
817.23	19548
817.371	19499
817.512	19365
817.653	19502
817.793	19381
817.934	19464
818.075	19639
818.216	19457
818.356	19324
818.497	19285
818.638	19057
818.778	19088
818.919	19057
819.06	19148
819.2	19331
819.341	19327
819.481	19244
819.622	19430
819.762	19647
819.903	19628
820.043	19483
820.184	19415
820.324	19339
820.465	19407
820.605	19491
820.746	19407
820.886	19137
821.026	19346
821.167	19369
821.307	19369
821.447	19324
821.588	19164
821.728	19141
821.868	19015
822.008	18905
822.149	18722
822.289	18757
822.429	18589
822.569	18365
822.709	18475
822.849	18418
822.99	18346
823.13	18357
823.27	18296
823.41	18110
823.55	18155
823.69	18098
823.83	18121
823.97	18003
824.11	17980
824.25	17790
824.389	17802
824.529	17973
824.669	17965
824.809	18045
824.949	17885
825.089	17961
825.228	17908
825.368	17741
825.508	17611
825.648	17684
825.787	17638
825.927	17687
826.067	17634
826.206	17661
826.346	17653
826.485	17745
826.625	17585
826.765	17745
826.904	17684
827.044	17490
827.183	17474
827.323	17322
827.462	17383
827.601	17292
827.741	17231
827.88	17269
828.02	17189
828.159	17269
828.298	17345
828.437	17463
828.577	17288
828.716	17516
828.855	17311
828.994	17067
829.134	17151
829.273	17151
829.412	17067
829.551	16957
829.69	16995
829.829	17155
829.968	17162
830.107	17155
830.246	17132
830.385	17037
830.524	16991
830.663	16873
830.802	16809
830.941	16599
831.08	16672
831.219	16854
831.357	16782
831.496	16972
831.635	16675
831.774	16649
831.913	16588
832.051	16516
832.19	16500
832.329	16584
832.467	16455
832.606	16375
832.744	16382
832.883	16276
833.022	16318
833.16	16428
833.299	16409
833.437	16352
833.576	16455
833.714	16394
833.852	16447
833.991	16440
834.129	16531
834.267	16607
834.406	16356
834.544	16489
834.682	16466
834.821	16344
834.959	16577
835.097	16405
835.235	16466
835.373	16470
835.511	16493
835.65	16367
835.788	16363
835.926	16303
836.064	16101
836.202	16204
836.34	16443
836.478	16462
836.615	16303
836.753	16325
836.891	16531
837.029	16314
837.167	16478
837.305	16246
837.443	16280
837.58	16223
837.718	16318
837.856	16268
837.993	16128
838.131	16204
838.269	16139
838.406	16223
838.544	16211
838.681	15987
838.819	15953
838.956	15705
839.094	15785
839.231	15823
839.369	15835
839.506	16253
839.643	15991
839.781	15846
839.918	15675
840.055	15724
840.193	15724
840.33	15660
840.467	15800
840.604	15736
840.742	16086
840.879	15652
841.016	15629
841.153	15705
841.29	15869
841.427	15781
841.564	15800
841.701	15793
841.838	15682
841.975	15641
842.112	15751
842.249	15519
842.385	15564
842.522	15762
842.659	15610
842.796	15526
842.933	15610
843.069	15542
843.206	15378
843.343	15694
843.479	15606
843.616	15599
843.752	15351
843.889	15355
844.025	15473
844.162	15313
844.298	15515
844.435	15401
844.571	15310
844.708	15405
844.844	15564
844.98	15447
845.117	15420
845.253	15344
845.389	15131
845.525	15199
845.661	15230
845.798	15074
845.934	15218
846.07	15146
846.206	15146
846.342	15348
846.478	15112
846.614	14967
846.75	15013
846.886	14895
847.022	15097
847.158	14971
847.294	14971
847.429	14979
847.565	14891
847.701	15131
847.837	14670
847.972	14590
848.108	14682
848.244	14678
848.379	14446
848.515	14564
848.65	14511
848.786	14503
848.921	14499
849.057	14613
849.192	14606
849.328	14526
849.463	14533
849.598	14457
849.734	14533
849.869	14457
850.004	14309
850.14	14298
850.275	14358
850.41	14313
850.545	14294
850.68	14252
850.815	14328
850.95	14259
851.085	14408
851.22	14484
851.355	14324
851.49	14176
851.625	14271
851.76	14199
851.895	14164
852.03	14157
852.165	14358
852.299	14324
852.434	14275
852.569	14320
852.703	14172
852.838	14271
852.973	14457
853.107	14389
853.242	14294
853.376	14248
853.511	14062
853.645	14092
853.78	14271
853.914	14161
854.048	14126
854.183	14039
854.317	14168
854.451	14278
854.585	14043
854.72	14103
854.854	14309
854.988	14115
855.122	14115
855.256	14050
855.39	14153
855.524	14218
855.658	14252
855.792	14153
855.926	14134
856.06	14248
856.194	14252
856.327	14111
856.461	14183
856.595	14100
856.729	14153
856.862	14252
856.996	14195
857.13	14237
857.263	14286
857.397	14282
857.53	14195
857.664	14229
857.797	14259
857.931	14286
858.064	14206
858.197	14263
858.331	14202
858.464	14126
858.597	14054
858.731	14168
858.864	14149
858.997	14100
859.13	14176
859.263	14187
859.396	14233
859.529	14134
859.662	14058
859.795	14065
859.928	14161
860.061	14328
860.194	14294
860.327	14191
860.46	14081
860.592	14263
860.725	14206
860.858	14366
860.99	14187
861.123	14103
861.256	14088
861.388	14164
861.521	14849
861.653	14103
861.786	14062
861.918	13967
862.05	14027
862.183	14100
862.315	14168
862.447	14301
862.58	14126
862.712	13986
862.844	13883
862.976	13997
863.108	13940
863.24	14267
863.372	13894
863.504	13947
863.636	13940
863.768	13879
863.9	13967
864.032	13868
864.164	13913
864.296	13967
864.428	14027
864.559	14016
864.691	13997
864.823	14020
864.954	14008
865.086	14020
865.217	13955
865.349	13894
865.48	14035
865.612	13913
865.743	14069
865.875	13989
866.006	13868
866.137	13913
866.269	13940
866.4	13959
866.531	13902
866.662	13883
866.793	13909
866.924	13963
867.055	13921
867.186	14005
867.317	13822
867.448	13818
867.579	13947
867.71	13852
867.841	13921
867.972	13887
868.103	13932
868.233	13959
868.364	13917
868.495	13940
868.625	14149
868.756	14244
868.886	14088
869.017	14180
869.147	14358
869.278	14202
869.408	14199
869.539	14142
869.669	14248
869.799	14248
869.929	14275
870.06	14263
870.19	14499
870.32	14434
870.45	14522
870.58	14670
870.71	14731
870.84	14678
870.97	14594
871.1	14537
871.23	14716
871.36	14727
871.489	14697
871.619	14750
871.749	14693
871.879	14830
872.008	14887
872.138	14773
872.267	14796
872.397	14537
872.526	14659
872.656	14632
872.785	14617
872.915	14712
873.044	14986
873.173	14887
873.303	14762
873.432	14807
873.561	14956
873.69	14845
873.819	14849
873.948	14921
874.077	14887
874.206	14765
874.335	14735
874.464	14979
874.593	15085
874.722	15119
874.851	15214
874.979	15180
875.108	15169
875.237	15062
875.365	15020
875.494	15108
875.623	15325
875.751	15077
875.88	14982
876.008	15237
876.136	15340
876.265	15576
876.393	15724
876.521	15705
876.65	15557
876.778	15511
876.906	15561
877.034	15492
877.162	15572
877.29	15500
877.418	15553
877.546	15526
877.674	15542
877.802	15477
877.93	15599
878.058	15530
878.185	15504
878.313	15549
878.441	15504
878.568	15382
878.696	15466
878.824	15591
878.951	15637
879.079	15751
879.206	15876
879.333	15694
879.461	15660
879.588	15709
879.715	15755
879.842	15972
879.97	15545
880.097	15359
880.224	15287
880.351	15488
880.478	15405
880.605	15393
880.732	15443
880.859	15682
880.986	15389
881.112	15443
881.239	15306
881.366	15192
881.493	15104
881.619	15161
881.746	15017
881.872	15009
881.999	15013
882.125	15005
882.252	15112
882.378	15154
882.505	15192
882.631	15039
882.757	14941
882.883	14960
883.01	14910
883.136	14899
883.262	14750
883.388	14746
883.514	14845
883.64	14937
883.766	14842
883.892	14678
884.018	14765
884.143	14925
884.269	14975
884.395	14625
884.52	14594
884.646	14655
884.772	14526
884.897	14545
885.023	14583
885.148	14621
885.274	14743
885.399	14648
885.524	14629
885.65	14541
885.775	14621
885.9	14606
886.025	14727
886.15	14712
886.275	14575
886.4	14503
886.525	14533
886.65	14476
886.775	14400
886.9	14651
887.025	14705
887.149	14602
887.274	14396
887.399	14396
887.523	14347
887.648	14377
887.773	14412
887.897	14511
888.021	14415
888.146	14419
888.27	14511
888.395	14499
888.519	14412
888.643	14495
888.767	14473
888.891	14332
889.015	14256
889.139	14267
889.263	14256
889.387	14507
889.511	14438
889.635	14454
889.759	14358
889.883	14172
890.006	14301
890.13	14408
890.254	14123
890.377	14313
890.501	14149
890.624	14092
890.748	14237
890.871	14062
890.995	13906
891.118	13970
891.241	13978
891.364	13940
891.488	14199
891.611	14039
891.734	14039
891.857	13989
891.98	13940
892.103	14096
892.226	14046
892.349	13917
892.471	13875
892.594	13909
892.717	13982
892.839	13932
892.962	13974
893.085	14031
893.207	14001
893.33	13940
893.452	13963
893.575	14119
893.697	13967
893.819	14153
893.941	14153
894.064	14142
894.186	14005
894.308	14081
894.43	14062
894.552	14164
894.674	14153
894.796	14005
894.918	13978
895.04	13978
895.161	14168
895.283	14069
895.405	14050
895.526	14027
895.648	14130
895.769	14119
895.891	14176
896.012	14229
896.134	14195
896.255	14138
896.376	14153
896.498	14138
896.619	14248
896.74	14172
896.861	14218
896.982	14583
897.103	14644
897.224	14518
897.345	14431
897.466	14301
897.587	14431
897.708	14594
897.828	14503
897.949	14431
898.07	14267
898.19	14374
898.311	14598
898.431	14610
898.552	14594
898.672	14476
898.792	14594
898.913	14640
899.033	14488
899.153	14427
899.273	14366
899.393	14442
899.513	14347
899.633	14355
899.753	14400
899.873	14305
899.993	14362
900.113	14377
900.232	14465
900.352	14381
900.472	14202
900.591	14240
900.711	14191
900.83	14263
900.95	14301
901.069	14358
901.189	14199
901.308	13970
901.427	13940
901.546	13860
901.665	14043
901.784	13974
901.904	13807
902.023	13609
902.141	13537
902.26	13449
902.379	13521
902.498	13445
902.617	13343
902.735	13483
902.854	13400
902.973	13445
903.091	13209
903.21	13282
903.328	13221
903.446	13141
903.565	13072
903.683	13145
903.801	12996
903.919	12981
904.038	13012
904.156	12871
904.274	12894
904.392	12856
904.51	12913
904.627	12886
904.745	12859
904.863	12859
904.981	12642
905.098	12601
905.216	12608
905.334	12559
905.451	12601
905.569	12593
905.686	12646
905.803	12555
905.921	12426
906.038	12494
906.155	12327
906.272	12277
906.389	12346
906.506	12220
906.623	12152
906.74	12152
906.857	12011
906.974	12148
907.091	12273
907.208	12262
907.324	12254
907.441	12091
907.557	11855
907.674	11893
907.79	11809
907.907	11893
908.023	11965
908.139	12007
908.256	11889
908.372	11901
908.488	11851
908.604	11695
908.72	11596
908.836	11573
908.952	11691
909.068	11752
909.184	11760
909.3	11665
909.415	11707
909.531	11722
909.647	11433
909.762	11444
909.878	11330
909.993	11379
910.108	11406
910.224	11455
910.339	11482
910.454	11292
910.57	11322
910.685	11189
910.8	11516
910.915	11486
911.03	11360
911.145	11094
911.259	11098
911.374	11102
911.489	11086
911.604	10946
911.718	10923
911.833	10873
911.947	10858
912.062	10725
912.176	10900
912.291	10968
912.405	10915
912.519	11166
912.633	11067
912.748	10938
912.862	10946
912.976	10805
913.09	10706
913.204	10725
913.318	10801
913.431	10877
913.545	10889
913.659	10915
913.772	10850
913.886	10653
914	10675
914.113	10782
914.226	10923
914.34	10786
914.453	10611
914.566	10706
914.68	10622
914.793	10607
914.906	10550
915.019	10306
915.132	10360
915.245	10402
915.358	10424
915.47	10436
915.583	10493
915.696	10455
915.809	10523
915.921	10531
916.034	10363
916.146	10402
916.259	10386
916.371	10398
916.483	10432
916.595	10329
916.708	10333
916.82	10337
916.932	10310
917.044	10314
917.156	10291
917.268	10173
917.38	10287
917.491	10284
917.603	10318
917.715	10325
917.826	10261
917.938	10162
918.049	10097
918.161	10276
918.272	10421
918.384	10329
918.495	10280
918.606	10067
918.717	10086
918.828	10192
918.939	10105
919.05	10040
919.161	9991
919.272	9884
919.383	9945
919.494	10154
919.604	10382
919.715	10154
919.826	10055
919.936	10112
920.047	10101
920.157	10200
920.267	10333
920.378	10223
920.488	10154
920.598	10268
920.708	10542
920.818	10310
920.928	10329
921.038	10508
921.148	10489
921.258	10162
921.368	10063
921.477	10055
921.587	9960
921.697	9934
921.806	10048
921.916	9903
922.025	9743
922.134	9698
922.244	9629
922.353	9781
922.462	9549
922.571	9553
922.68	9382
922.789	9340
922.898	9389
923.007	9363
923.116	9431
923.224	9397
923.333	9401
923.442	9302
923.55	9264
923.659	9275
923.767	9325
923.876	9230
923.984	9340
924.092	9207
924.201	9291
924.309	9294
924.417	9348
924.525	9188
924.633	9268
924.741	10131
924.849	9028
924.956	9268
925.064	9070
925.172	9032
925.279	9066
925.387	9074
925.494	9070
925.602	9222
925.709	9135
925.816	9001
925.924	9112
926.031	9097
926.138	9017
926.245	9104
926.352	8998
926.459	9165
926.566	9146
926.673	9112
926.779	8845
926.886	8910
926.993	8868
927.099	8792
927.206	8720
927.312	8750
927.419	8785
927.525	8845
927.631	8838
927.737	8686
927.843	8746
927.95	8602
928.056	8686
928.162	8667
928.267	8785
928.373	9249
928.479	8762
928.585	8564
928.69	8682
928.796	8674
928.901	8560
929.007	8427
929.112	8579
929.218	8552
929.323	8450
929.428	8476
929.533	8602
929.638	8488
929.743	8454
929.848	8625
929.953	8461
930.058	8400
930.163	8237
930.267	8244
930.372	8393
930.477	8259
930.581	8492
930.685	8275
930.79	8180
930.894	8259
930.998	8214
931.103	8339
931.207	8043
931.311	7944
931.415	7845
931.519	7708
931.623	7803
