Data from test_V78500241_2698.txt Node
Date: Fri Mar 25 14:52:30 CST 2022
User: usil
Spectrometer: V785-0024
Trigger mode: 0
Integration Time (sec): 4.000000E-1
Scans to average: 1
Nonlinearity correction enabled: false
Boxcar width: 0
Storing dark spectrum: false
XAxis mode: Wavelengths
Number of Pixels in Spectrum: 1024
>>>>>Begin Spectral Data<<<<<
801.071	21960
801.214	21915
801.356	21739
801.499	21488
801.641	21507
801.783	21473
801.926	21408
802.068	21306
802.211	21321
802.353	21188
802.496	20883
802.638	20899
802.78	20739
802.923	20777
803.065	20682
803.208	20625
803.35	20678
803.492	20743
803.635	20811
803.777	20609
803.919	20906
804.061	21112
804.204	20731
804.346	20587
804.488	20537
804.63	20689
804.773	20552
804.915	20598
805.057	20655
805.199	20571
805.341	20788
805.483	20682
805.626	20762
805.768	20552
805.91	20678
806.052	20724
806.194	20522
806.336	20705
806.478	20473
806.62	20571
806.762	20644
806.904	20861
807.046	20880
807.188	21081
807.33	20963
807.472	21039
807.614	20826
807.756	20842
807.898	20720
808.04	20705
808.182	20564
808.324	20575
808.465	20773
808.607	20952
808.749	20979
808.891	21096
809.033	21127
809.174	21043
809.316	20994
809.458	20971
809.6	20834
809.741	21005
809.883	21150
810.025	21169
810.166	21188
810.308	21173
810.45	21085
810.591	21009
810.733	20891
810.875	20743
811.016	20590
811.158	20609
811.299	20823
811.441	20758
811.582	20781
811.724	20731
811.865	20670
812.007	20663
812.148	20830
812.29	20857
812.431	20918
812.573	21062
812.714	21192
812.855	21173
812.997	21310
813.138	21443
813.279	21279
813.421	21241
813.562	21195
813.703	21093
813.845	20895
813.986	20587
814.127	20328
814.268	20347
814.41	20267
814.551	20252
814.692	20336
814.833	20100
814.974	20237
815.115	20309
815.256	20294
815.397	20092
815.539	20138
815.68	20081
815.821	20103
815.962	19967
816.103	19951
816.244	19902
816.385	19746
816.526	19746
816.666	19495
816.807	19362
816.948	19491
817.089	19639
817.23	19422
817.371	19552
817.512	19407
817.653	19434
817.793	19460
817.934	19415
818.075	19419
818.216	19316
818.356	19491
818.497	19266
818.638	19122
818.778	19050
818.919	19008
819.06	19061
819.2	19282
819.341	19270
819.481	19388
819.622	19533
819.762	19628
819.903	19514
820.043	19426
820.184	19384
820.324	19449
820.465	19449
820.605	19381
820.746	19400
820.886	19206
821.026	19301
821.167	19381
821.307	19426
821.447	19327
821.588	19312
821.728	19095
821.868	18939
822.008	18814
822.149	18810
822.289	18817
822.429	18437
822.569	18547
822.709	18490
822.849	18258
822.99	18380
823.13	18281
823.27	18319
823.41	18133
823.55	18011
823.69	18174
823.83	18129
823.97	18121
824.11	17958
824.25	17866
824.389	17889
824.529	18079
824.669	17870
824.809	17980
824.949	17935
825.089	18022
825.228	17843
825.368	17608
825.508	17786
825.648	17710
825.787	17691
825.927	17630
826.067	17543
826.206	17634
826.346	17608
826.485	17722
826.625	17596
826.765	17718
826.904	17619
827.044	17406
827.183	17505
827.323	17337
827.462	17410
827.601	17322
827.741	17322
827.88	17299
828.02	17235
828.159	17341
828.298	17383
828.437	17459
828.577	17360
828.716	17429
828.855	17391
828.994	17079
829.134	17075
829.273	17124
829.412	17143
829.551	16980
829.69	17109
829.829	17128
829.968	17204
830.107	17109
830.246	17223
830.385	17083
830.524	17014
830.663	16946
830.802	16812
830.941	16748
831.08	16717
831.219	16881
831.357	16717
831.496	16911
831.635	16816
831.774	16641
831.913	16618
832.051	16493
832.19	16531
832.329	16577
832.467	16443
832.606	16367
832.744	16371
832.883	16443
833.022	16413
833.16	16478
833.299	16573
833.437	16421
833.576	16565
833.714	16466
833.852	16565
833.991	16489
834.129	16565
834.267	16615
834.406	16489
834.544	16500
834.682	16402
834.821	16390
834.959	16641
835.097	16603
835.235	16596
835.373	16569
835.511	16466
835.65	16462
835.788	16219
835.926	16185
836.064	16223
836.202	16257
836.34	16390
836.478	16481
836.615	16318
836.753	16432
836.891	16474
837.029	16500
837.167	16443
837.305	16280
837.443	16284
837.58	16284
837.718	16379
837.856	16261
837.993	16287
838.131	16253
838.269	16200
838.406	16272
838.544	16169
838.681	16181
838.819	15964
838.956	15869
839.094	15736
839.231	15838
839.369	16036
839.506	16215
839.643	16093
839.781	15743
839.918	15720
840.055	15869
840.193	15804
840.33	15831
840.467	15797
840.604	15873
840.742	16059
840.879	15690
841.016	15808
841.153	15720
841.29	16048
841.427	15918
841.564	15804
841.701	15793
841.838	15926
841.975	15701
842.112	15854
842.249	15595
842.385	15603
842.522	15755
842.659	15568
842.796	15637
842.933	15553
843.069	15568
843.206	15603
843.343	15736
843.479	15584
843.616	15618
843.752	15454
843.889	15458
844.025	15530
844.162	15386
844.298	15603
844.435	15408
844.571	15340
844.708	15450
844.844	15572
844.98	15618
845.117	15370
845.253	15435
845.389	15237
845.525	15272
845.661	15264
845.798	15138
845.934	15218
846.07	15161
846.206	15245
846.342	15306
846.478	15127
846.614	14975
846.75	14861
846.886	14918
847.022	15039
847.158	15013
847.294	15001
847.429	15047
847.565	15047
847.701	15154
847.837	14743
847.972	14655
848.108	14788
848.244	14872
848.379	14590
848.515	14575
848.65	14663
848.786	14617
848.921	14625
849.057	14632
849.192	14602
849.328	14659
849.463	14617
849.598	14514
849.734	14457
849.869	14370
850.004	14396
850.14	14412
850.275	14412
850.41	14320
850.545	14298
850.68	14328
850.815	14377
850.95	14328
851.085	14476
851.22	14511
851.355	14317
851.49	14366
851.625	14377
851.76	14267
851.895	14210
852.03	14244
852.165	14237
852.299	14355
852.434	14427
852.569	14381
852.703	14370
852.838	14480
852.973	14522
853.107	14492
853.242	14317
853.376	14221
853.511	13989
853.645	14199
853.78	14294
853.914	14244
854.048	14077
854.183	14161
854.317	14180
854.451	14396
854.585	14176
854.72	14221
854.854	14240
854.988	14103
855.122	14187
855.256	14005
855.39	14199
855.524	14229
855.658	14370
855.792	14176
855.926	14218
856.06	14301
856.194	14336
856.327	14195
856.461	14218
856.595	14286
856.729	14221
856.862	14381
856.996	14320
857.13	14313
857.263	14339
857.397	14275
857.53	14199
857.664	14317
857.797	14339
857.931	14408
858.064	14286
858.197	14282
858.331	14199
858.464	14202
858.597	14100
858.731	14263
858.864	14191
858.997	14145
859.13	14256
859.263	14358
859.396	14351
859.529	14168
859.662	14172
859.795	14191
859.928	14142
860.061	14370
860.194	14377
860.327	14278
860.46	14172
860.592	14210
860.725	14393
860.858	14324
860.99	14145
861.123	14153
861.256	14176
861.388	14134
861.521	14819
861.653	14138
861.786	13940
861.918	14161
862.05	14221
862.183	14176
862.315	14126
862.447	14328
862.58	14130
862.712	14084
862.844	13887
862.976	14062
863.108	14092
863.24	14431
863.372	13887
863.504	14050
863.636	13974
863.768	14039
863.9	13921
864.032	13856
864.164	13967
864.296	14012
864.428	14180
864.559	14069
864.691	14092
864.823	14103
864.954	13970
865.086	14046
865.217	13993
865.349	13925
865.48	13963
865.612	14054
865.743	14107
865.875	13982
866.006	13906
866.137	14046
866.269	13871
866.4	13978
866.531	13841
866.662	13974
866.793	13849
866.924	13940
867.055	13993
867.186	13967
867.317	13913
867.448	13928
867.579	13856
867.71	13875
867.841	13852
867.972	14024
868.103	13967
868.233	13970
868.364	13970
868.495	14062
868.625	14187
868.756	14347
868.886	14180
869.017	14180
869.147	14282
869.278	14400
869.408	14206
869.539	14237
869.669	14275
869.799	14298
869.929	14328
870.06	14317
870.19	14571
870.32	14560
870.45	14568
870.58	14621
870.71	14796
870.84	14785
870.97	14594
871.1	14625
871.23	14868
871.36	14864
871.489	14613
871.619	14777
871.749	14807
871.879	14937
872.008	14914
872.138	14819
872.267	14735
872.397	14735
872.526	14746
872.656	14640
872.785	14674
872.915	14849
873.044	14868
873.173	14823
873.303	14895
873.432	14925
873.561	15039
873.69	14796
873.819	14933
873.948	14925
874.077	14971
874.206	14857
874.335	14925
874.464	15020
874.593	15150
874.722	15207
874.851	15199
874.979	15245
875.108	15279
875.237	15233
875.365	15081
875.494	15154
875.623	15272
875.751	15180
875.88	15237
876.008	15374
876.136	15401
876.265	15656
876.393	15781
876.521	15759
876.65	15682
876.778	15652
876.906	15530
877.034	15644
877.162	15603
877.29	15515
877.418	15652
877.546	15675
877.674	15557
877.802	15641
877.93	15549
878.058	15637
878.185	15523
878.313	15561
878.441	15614
878.568	15530
878.696	15561
878.824	15671
878.951	15709
879.079	15743
879.206	15926
879.333	15812
879.461	15732
879.588	15785
879.715	15781
879.842	15835
879.97	15732
880.097	15420
880.224	15428
880.351	15439
880.478	15500
880.605	15428
880.732	15477
880.859	15606
880.986	15584
881.112	15428
881.239	15507
881.366	15135
881.493	15161
881.619	15146
881.746	15112
881.872	15097
881.999	15108
882.125	15173
882.252	15161
882.378	15116
882.505	15351
882.631	15135
882.757	14941
882.883	14944
883.01	14944
883.136	14975
883.262	14739
883.388	14792
883.514	14963
883.64	14979
883.766	14842
883.892	14731
884.018	14819
884.143	14872
884.269	14971
884.395	14644
884.52	14636
884.646	14583
884.772	14659
884.897	14518
885.023	14762
885.148	14773
885.274	14834
885.399	14697
885.524	14594
885.65	14651
885.775	14629
885.9	14667
886.025	14686
886.15	14682
886.275	14587
886.4	14507
886.525	14564
886.65	14579
886.775	14648
886.9	14739
887.025	14788
887.149	14720
887.274	14587
887.399	14374
887.523	14450
887.648	14385
887.773	14419
887.897	14503
888.021	14530
888.146	14408
888.27	14465
888.395	14632
888.519	14564
888.643	14518
888.767	14465
888.891	14412
889.015	14347
889.139	14339
889.263	14214
889.387	14446
889.511	14602
889.635	14415
889.759	14298
889.883	14358
890.006	14317
890.13	14503
890.254	14290
890.377	14298
890.501	14161
890.624	14229
890.748	14237
890.871	13993
890.995	13944
891.118	13951
891.241	14027
891.364	14031
891.488	14187
891.611	14119
891.734	14054
891.857	14115
891.98	14161
892.103	14138
892.226	14062
892.349	14084
892.471	13883
892.594	14027
892.717	14073
892.839	14065
892.962	14062
893.085	14054
893.207	14020
893.33	13978
893.452	13921
893.575	14084
893.697	14024
893.819	14271
893.941	14286
894.064	14164
894.186	13951
894.308	13993
894.43	14183
894.552	14237
894.674	14199
894.796	14069
894.918	14100
895.04	14046
895.161	14240
895.283	14164
895.405	13989
895.526	14153
895.648	14221
895.769	14206
895.891	14214
896.012	14309
896.134	14225
896.255	14214
896.376	14172
896.498	14126
896.619	14214
896.74	14259
896.861	14294
896.982	14602
897.103	14693
897.224	14484
897.345	14454
897.466	14370
897.587	14495
897.708	14659
897.828	14465
897.949	14503
898.07	14374
898.19	14545
898.311	14648
898.431	14579
898.552	14617
898.672	14678
898.792	14655
898.913	14522
899.033	14465
899.153	14408
899.273	14404
899.393	14434
899.513	14526
899.633	14438
899.753	14370
899.873	14427
899.993	14530
900.113	14431
900.232	14404
900.352	14412
900.472	14290
900.591	14278
900.711	14301
900.83	14256
900.95	14427
901.069	14347
901.189	14248
901.308	13993
901.427	13993
901.546	13947
901.665	13993
901.784	13989
901.904	13753
902.023	13830
902.141	13685
902.26	13476
902.379	13578
902.498	13529
902.617	13540
902.735	13521
902.854	13457
902.973	13525
903.091	13282
903.21	13282
903.328	13171
903.446	13236
903.565	13080
903.683	13168
903.801	13042
903.919	13107
904.038	13095
904.156	12920
904.274	13004
904.392	12886
904.51	12878
904.627	12856
904.745	12977
904.863	12894
904.981	12734
905.098	12540
905.216	12662
905.334	12658
905.451	12642
905.569	12506
905.686	12688
905.803	12627
905.921	12414
906.038	12555
906.155	12456
906.272	12300
906.389	12372
906.506	12178
906.623	12140
906.74	12266
906.857	12022
906.974	12152
907.091	12281
907.208	12289
907.324	12289
907.441	12117
907.557	12102
907.674	11973
907.79	11904
907.907	11984
908.023	11935
908.139	11969
908.256	11950
908.372	11939
908.488	11840
908.604	11733
908.72	11718
908.836	11668
908.952	11653
909.068	11794
909.184	11882
909.3	11737
909.415	11809
909.531	11710
909.647	11573
909.762	11501
909.878	11539
909.993	11524
910.108	11398
910.224	11444
910.339	11512
910.454	11455
910.57	11337
910.685	11273
910.8	11520
910.915	11448
911.03	11322
911.145	11220
911.259	11136
911.374	11223
911.489	11159
911.604	11155
911.718	10942
911.833	10904
911.947	10889
912.062	10805
912.176	10976
912.291	10911
912.405	10953
912.519	11162
912.633	11117
912.748	11025
912.862	10999
912.976	10854
913.09	10607
913.204	10774
913.318	10839
913.431	10889
913.545	10923
913.659	10968
913.772	10831
913.886	10660
914	10660
914.113	10839
914.226	10790
914.34	10771
914.453	10691
914.566	10828
914.68	10675
914.793	10649
914.906	10512
915.019	10462
915.132	10440
915.245	10440
915.358	10386
915.47	10493
915.583	10443
915.696	10462
915.809	10618
915.921	10584
916.034	10459
916.146	10405
916.259	10322
916.371	10504
916.483	10512
916.595	10409
916.708	10367
916.82	10356
916.932	10375
917.044	10402
917.156	10386
917.268	10192
917.38	10344
917.491	10276
917.603	10337
917.715	10447
917.826	10405
917.938	10363
918.049	10173
918.161	10363
918.272	10421
918.384	10432
918.495	10276
918.606	10135
918.717	10048
918.828	10230
918.939	10147
919.05	10101
919.161	10082
919.272	9960
919.383	10040
919.494	10207
919.604	10371
919.715	10215
919.826	10093
919.936	10150
920.047	10234
920.157	10261
920.267	10413
920.378	10234
920.488	10207
920.598	10367
920.708	10535
920.818	10443
920.928	10306
921.038	10569
921.148	10504
921.258	10223
921.368	10120
921.477	10071
921.587	9941
921.697	9876
921.806	10055
921.916	9850
922.025	9755
922.134	9652
922.244	9766
922.353	9755
922.462	9656
922.571	9595
922.68	9485
922.789	9397
922.898	9496
923.007	9435
923.116	9481
923.224	9424
923.333	9481
923.442	9332
923.55	9283
923.659	9268
923.767	9420
923.876	9310
923.984	9355
924.092	9336
924.201	9283
924.309	9283
924.417	9344
924.525	9253
924.633	9199
924.741	10051
924.849	9085
924.956	9279
925.064	9112
925.172	8994
925.279	9104
925.387	9062
925.494	9203
925.602	9165
925.709	9211
925.816	9001
925.924	9089
926.031	9157
926.138	9123
926.245	9135
926.352	9039
926.459	9211
926.566	9253
926.673	9017
926.779	8967
926.886	8925
926.993	8769
927.099	8811
927.206	8796
927.312	8785
927.419	8811
927.525	8800
927.631	8849
927.737	8716
927.843	8743
927.95	8583
928.056	8792
928.162	8716
928.267	8724
928.373	9359
928.479	8819
928.585	8610
928.69	8739
928.796	8785
928.901	8613
929.007	8526
929.112	8617
929.218	8629
929.323	8564
929.428	8530
929.533	8640
929.638	8522
929.743	8518
929.848	8621
929.953	8423
930.058	8530
930.163	8271
930.267	8343
930.372	8461
930.477	8240
930.581	8583
930.685	8294
930.79	8183
930.894	8275
930.998	8214
931.103	8415
931.207	8046
931.311	7970
931.415	7898
931.519	7719
931.623	7738
