Data from test_V78500241_3394.txt Node
Date: Fri Mar 25 14:57:20 CST 2022
User: usil
Spectrometer: V785-0024
Trigger mode: 0
Integration Time (sec): 4.000000E-1
Scans to average: 1
Nonlinearity correction enabled: false
Boxcar width: 0
Storing dark spectrum: false
XAxis mode: Wavelengths
Number of Pixels in Spectrum: 1024
>>>>>Begin Spectral Data<<<<<
801.071	22055
801.214	21762
801.356	21500
801.499	21401
801.641	21310
801.783	21412
801.926	21332
802.068	21408
802.211	21047
802.353	21135
802.496	20910
802.638	20914
802.78	20697
802.923	20609
803.065	20632
803.208	20568
803.35	20575
803.492	20682
803.635	20712
803.777	20781
803.919	20773
804.061	20899
804.204	20731
804.346	20644
804.488	20473
804.63	20533
804.773	20454
804.915	20514
805.057	20545
805.199	20473
805.341	20625
805.483	20651
805.626	20568
805.768	20400
805.91	20518
806.052	20590
806.194	20575
806.336	20663
806.478	20606
806.62	20530
806.762	20590
806.904	20720
807.046	21047
807.188	20804
807.33	20815
807.472	20948
807.614	20739
807.756	20861
807.898	20682
808.04	20552
808.182	20492
808.324	20651
808.465	20537
808.607	20845
808.749	20823
808.891	20967
809.033	21047
809.174	20956
809.316	20853
809.458	20933
809.6	20872
809.741	20853
809.883	20963
810.025	21074
810.166	21009
810.308	21020
810.45	21005
810.591	20952
810.733	20648
810.875	20750
811.016	20560
811.158	20598
811.299	20765
811.441	20701
811.582	20777
811.724	20522
811.865	20625
812.007	20503
812.148	20686
812.29	20739
812.431	20834
812.573	20982
812.714	21104
812.855	21161
812.997	21275
813.138	21374
813.279	21188
813.421	21165
813.562	21009
813.703	20826
813.845	20746
813.986	20499
814.127	20256
814.268	20298
814.41	20328
814.551	20229
814.692	20347
814.833	20145
814.974	20065
815.115	20153
815.256	20096
815.397	20012
815.539	20065
815.68	19864
815.821	19944
815.962	19928
816.103	19928
816.244	19738
816.385	19643
816.526	19666
816.666	19518
816.807	19327
816.948	19491
817.089	19434
817.23	19358
817.371	19343
817.512	19324
817.653	19316
817.793	19255
817.934	19251
818.075	19331
818.216	19320
818.356	19377
818.497	19114
818.638	18954
818.778	19000
818.919	18947
819.06	19008
819.2	19183
819.341	19259
819.481	19247
819.622	19304
819.762	19430
819.903	19567
820.043	19381
820.184	19301
820.324	19339
820.465	19396
820.605	19312
820.746	19274
820.886	19183
821.026	19236
821.167	19183
821.307	19289
821.447	19247
821.588	19221
821.728	19019
821.868	18840
822.008	18795
822.149	18669
822.289	18635
822.429	18456
822.569	18376
822.709	18445
822.849	18224
822.99	18197
823.13	18201
823.27	18167
823.41	18182
823.55	17927
823.69	17996
823.83	17942
823.97	17889
824.11	17756
824.25	17729
824.389	17821
824.529	17805
824.669	17840
824.809	17897
824.949	17813
825.089	17897
825.228	17737
825.368	17600
825.508	17543
825.648	17657
825.787	17585
825.927	17634
826.067	17501
826.206	17501
826.346	17532
826.485	17570
826.625	17482
826.765	17611
826.904	17516
827.044	17444
827.183	17296
827.323	17235
827.462	17376
827.601	17220
827.741	17227
827.88	17220
828.02	17212
828.159	17254
828.298	17277
828.437	17387
828.577	17159
828.716	17337
828.855	17193
828.994	17033
829.134	17056
829.273	17064
829.412	16915
829.551	16942
829.69	17075
829.829	17022
829.968	17060
830.107	17022
830.246	17071
830.385	16911
830.524	16892
830.663	16793
830.802	16801
830.941	16603
831.08	16630
831.219	16649
831.357	16801
831.496	16869
831.635	16637
831.774	16580
831.913	16447
832.051	16440
832.19	16512
832.329	16421
832.467	16333
832.606	16257
832.744	16306
832.883	16268
833.022	16318
833.16	16474
833.299	16424
833.437	16367
833.576	16455
833.714	16341
833.852	16314
833.991	16367
834.129	16436
834.267	16394
834.406	16314
834.544	16470
834.682	16421
834.821	16424
834.959	16622
835.097	16325
835.235	16428
835.373	16398
835.511	16390
835.65	16390
835.788	16314
835.926	16109
836.064	16109
836.202	16192
836.34	16226
836.478	16390
836.615	16386
836.753	16341
836.891	16447
837.029	16386
837.167	16261
837.305	16207
837.443	16139
837.58	16044
837.718	16215
837.856	16188
837.993	16249
838.131	16128
838.269	16097
838.406	16162
838.544	16086
838.681	15865
838.819	15865
838.956	15774
839.094	15644
839.231	15816
839.369	15884
839.506	16116
839.643	15949
839.781	15766
839.918	15705
840.055	15751
840.193	15766
840.33	15747
840.467	15793
840.604	15717
840.742	15972
840.879	15625
841.016	15694
841.153	15618
841.29	15880
841.427	15770
841.564	15755
841.701	15762
841.838	15797
841.975	15614
842.112	15648
842.249	15576
842.385	15492
842.522	15690
842.659	15492
842.796	15496
842.933	15622
843.069	15485
843.206	15447
843.343	15622
843.479	15549
843.616	15553
843.752	15439
843.889	15340
844.025	15450
844.162	15302
844.298	15477
844.435	15302
844.571	15256
844.708	15408
844.844	15500
844.98	15454
845.117	15435
845.253	15264
845.389	15176
845.525	15241
845.661	15245
845.798	15081
845.934	15195
846.07	15066
846.206	15157
846.342	15135
846.478	15195
846.614	14960
846.75	14895
846.886	14883
847.022	14906
847.158	14883
847.294	14998
847.429	14887
847.565	14876
847.701	15089
847.837	14648
847.972	14537
848.108	14765
848.244	14754
848.379	14571
848.515	14370
848.65	14404
848.786	14423
848.921	14415
849.057	14651
849.192	14571
849.328	14511
849.463	14556
849.598	14412
849.734	14347
849.869	14431
850.004	14248
850.14	14328
850.275	14233
850.41	14305
850.545	14290
850.68	14259
850.815	14244
850.95	14240
851.085	14377
851.22	14381
851.355	14313
851.49	14282
851.625	14206
851.76	14214
851.895	14145
852.03	14100
852.165	14298
852.299	14176
852.434	14385
852.569	14225
852.703	14309
852.838	14377
852.973	14415
853.107	14275
853.242	14256
853.376	14290
853.511	13963
853.645	14088
853.78	14221
853.914	14195
854.048	14100
854.183	14016
854.317	14138
854.451	14271
854.585	14081
854.72	14058
854.854	14126
854.988	14062
855.122	14180
855.256	13963
855.39	14176
855.524	14240
855.658	14172
855.792	14210
855.926	14126
856.06	14267
856.194	14290
856.327	14123
856.461	14123
856.595	14039
856.729	14218
856.862	14294
856.996	14206
857.13	14225
857.263	14278
857.397	14244
857.53	14164
857.664	14199
857.797	14248
857.931	14290
858.064	14199
858.197	14168
858.331	14187
858.464	14069
858.597	14084
858.731	14145
858.864	14157
858.997	14115
859.13	14183
859.263	14237
859.396	14278
859.529	14149
859.662	14081
859.795	14214
859.928	14187
860.061	14454
860.194	14317
860.327	14187
860.46	14134
860.592	14374
860.725	14259
860.858	14309
860.99	14103
861.123	14058
861.256	14073
861.388	14126
861.521	14887
861.653	14024
861.786	14039
861.918	14050
862.05	14065
862.183	14084
862.315	14202
862.447	14225
862.58	14119
862.712	14005
862.844	13921
862.976	14046
863.108	14016
863.24	14438
863.372	13894
863.504	13936
863.636	13898
863.768	14039
863.9	14046
864.032	13928
864.164	13868
864.296	13951
864.428	14065
864.559	13986
864.691	14062
864.823	13982
864.954	14058
865.086	14149
865.217	13860
865.349	13906
865.48	13944
865.612	13970
865.743	14039
865.875	13925
866.006	13944
866.137	13997
866.269	14008
866.4	13940
866.531	13875
866.662	13776
866.793	13917
866.924	13864
867.055	13947
867.186	13932
867.317	13849
867.448	13864
867.579	13837
867.71	13803
867.841	13788
867.972	13993
868.103	14062
868.233	13925
868.364	13951
868.495	14073
868.625	14214
868.756	14339
868.886	14168
869.017	14176
869.147	14290
869.278	14324
869.408	14202
869.539	14077
869.669	14259
869.799	14233
869.929	14332
870.06	14256
870.19	14503
870.32	14526
870.45	14606
870.58	14667
870.71	14610
870.84	14716
870.97	14541
871.1	14541
871.23	14777
871.36	14739
871.489	14682
871.619	14796
871.749	14720
871.879	14826
872.008	14918
872.138	14826
872.267	14849
872.397	14674
872.526	14571
872.656	14560
872.785	14640
872.915	14823
873.044	14975
873.173	14826
873.303	14861
873.432	14937
873.561	14967
873.69	14792
873.819	14880
873.948	15005
874.077	14883
874.206	14804
874.335	14845
874.464	15028
874.593	15203
874.722	15127
874.851	15180
874.979	15070
875.108	15268
875.237	15157
875.365	15108
875.494	15089
875.623	15233
875.751	15135
875.88	15192
876.008	15329
876.136	15351
876.265	15576
876.393	15759
876.521	15610
876.65	15671
876.778	15625
876.906	15618
877.034	15504
877.162	15523
877.29	15534
877.418	15648
877.546	15656
877.674	15515
877.802	15591
877.93	15641
878.058	15462
878.185	15507
878.313	15580
878.441	15561
878.568	15462
878.696	15492
878.824	15686
878.951	15629
879.079	15713
879.206	15888
879.333	15637
879.461	15538
879.588	15720
879.715	15835
879.842	15895
879.97	15648
880.097	15428
880.224	15408
880.351	15416
880.478	15443
880.605	15485
880.732	15447
880.859	15736
880.986	15401
881.112	15530
881.239	15321
881.366	15154
881.493	15097
881.619	15062
881.746	15074
881.872	15097
881.999	15017
882.125	15017
882.252	15154
882.378	15180
882.505	15275
882.631	14967
882.757	14941
882.883	14902
883.01	14876
883.136	14800
883.262	14697
883.388	14823
883.514	14861
883.64	14960
883.766	14861
883.892	14765
884.018	14708
884.143	14868
884.269	15028
884.395	14571
884.52	14617
884.646	14651
884.772	14621
884.897	14454
885.023	14587
885.148	14663
885.274	14838
885.399	14701
885.524	14670
885.65	14613
885.775	14651
885.9	14590
886.025	14727
886.15	14731
886.275	14552
886.4	14537
886.525	14590
886.65	14549
886.775	14545
886.9	14682
887.025	14823
887.149	14590
887.274	14431
887.399	14370
887.523	14415
887.648	14358
887.773	14370
887.897	14499
888.021	14522
888.146	14434
888.27	14549
888.395	14575
888.519	14484
888.643	14457
888.767	14564
888.891	14389
889.015	14282
889.139	14415
889.263	14214
889.387	14298
889.511	14537
889.635	14526
889.759	14267
889.883	14286
890.006	14343
890.13	14431
890.254	14240
890.377	14324
890.501	14134
890.624	14073
890.748	14229
890.871	14005
890.995	13978
891.118	13993
891.241	14027
891.364	14035
891.488	14096
891.611	13963
891.734	14046
891.857	14027
891.98	13974
892.103	14050
892.226	14107
892.349	14020
892.471	13879
892.594	13997
892.717	14069
892.839	14035
892.962	14001
893.085	14058
893.207	13982
893.33	13868
893.452	13864
893.575	14096
893.697	14058
893.819	14168
893.941	14214
894.064	14084
894.186	14027
894.308	13951
894.43	14103
894.552	14259
894.674	14187
894.796	14016
894.918	14035
895.04	14115
895.161	14168
895.283	14115
895.405	14130
895.526	14123
895.648	14161
895.769	14191
895.891	14145
896.012	14195
896.134	14164
896.255	14168
896.376	14183
896.498	14282
896.619	14183
896.74	14221
896.861	14252
896.982	14526
897.103	14659
897.224	14457
897.345	14530
897.466	14358
897.587	14408
897.708	14629
897.828	14640
897.949	14404
898.07	14343
898.19	14370
898.311	14674
898.431	14480
898.552	14518
898.672	14693
898.792	14613
898.913	14583
899.033	14526
899.153	14385
899.273	14324
899.393	14358
899.513	14366
899.633	14454
899.753	14480
899.873	14381
899.993	14461
900.113	14396
900.232	14434
900.352	14408
900.472	14320
900.591	14195
900.711	14336
900.83	14145
900.95	14313
901.069	14290
901.189	14107
901.308	13963
901.427	13860
901.546	13906
901.665	13970
901.784	13963
901.904	13784
902.023	13666
902.141	13533
902.26	13468
902.379	13559
902.498	13419
902.617	13434
902.735	13491
902.854	13396
902.973	13422
903.091	13221
903.21	13209
903.328	13225
903.446	13179
903.565	13095
903.683	13118
903.801	12951
903.919	12985
904.038	13023
904.156	12878
904.274	12985
904.392	12867
904.51	12817
904.627	12810
904.745	12909
904.863	12882
904.981	12707
905.098	12513
905.216	12525
905.334	12642
905.451	12665
905.569	12612
905.686	12563
905.803	12631
905.921	12410
906.038	12395
906.155	12437
906.272	12292
906.389	12266
906.506	12152
906.623	12148
906.74	12213
906.857	12041
906.974	12053
907.091	12232
907.208	12285
907.324	12205
907.441	12117
907.557	11935
907.674	11885
907.79	11832
907.907	11878
908.023	11920
908.139	11996
908.256	11912
908.372	11779
908.488	11863
908.604	11661
908.72	11608
908.836	11668
908.952	11566
909.068	11714
909.184	11874
909.3	11786
909.415	11783
909.531	11707
909.647	11471
909.762	11497
909.878	11452
909.993	11482
910.108	11395
910.224	11455
910.339	11467
910.454	11376
910.57	11299
910.685	11227
910.8	11486
910.915	11436
911.03	11299
911.145	11181
911.259	11193
911.374	11159
911.489	11052
911.604	11075
911.718	10923
911.833	10919
911.947	10835
912.062	10656
912.176	10957
912.291	11010
912.405	10949
912.519	11094
912.633	11067
912.748	11045
912.862	10946
912.976	10736
913.09	10786
913.204	10759
913.318	10736
913.431	10896
913.545	10885
913.659	10896
913.772	10862
913.886	10687
914	10645
914.113	10763
914.226	10778
914.34	10778
914.453	10565
914.566	10763
914.68	10550
914.793	10611
914.906	10455
915.019	10360
915.132	10318
915.245	10443
915.358	10390
915.47	10459
915.583	10432
915.696	10508
915.809	10546
915.921	10649
916.034	10424
916.146	10322
916.259	10371
916.371	10417
916.483	10432
916.595	10287
916.708	10375
916.82	10348
916.932	10344
917.044	10394
917.156	10246
917.268	10253
917.38	10234
917.491	10215
917.603	10314
917.715	10348
917.826	10367
917.938	10280
918.049	10101
918.161	10234
918.272	10352
918.384	10375
918.495	10295
918.606	10116
918.717	10040
918.828	10101
918.939	10162
919.05	10055
919.161	10051
919.272	9903
919.383	10036
919.494	10185
919.604	10421
919.715	10200
919.826	10090
919.936	10044
920.047	10276
920.157	10162
920.267	10382
920.378	10188
920.488	10101
920.598	10344
920.708	10554
920.818	10329
920.928	10318
921.038	10550
921.148	10459
921.258	10211
921.368	10086
921.477	10078
921.587	10017
921.697	9922
921.806	10002
921.916	9808
922.025	9656
922.134	9663
922.244	9686
922.353	9759
922.462	9549
922.571	9564
922.68	9405
922.789	9348
922.898	9439
923.007	9393
923.116	9477
923.224	9336
923.333	9397
923.442	9340
923.55	9264
923.659	9321
923.767	9428
923.876	9287
923.984	9378
924.092	9112
924.201	9283
924.309	9245
924.417	9249
924.525	9195
924.633	9127
924.741	10169
924.849	9074
924.956	9260
925.064	9005
925.172	9032
925.279	9001
925.387	9138
925.494	9066
925.602	9230
925.709	9146
925.816	9039
925.924	9138
926.031	9176
926.138	9066
926.245	9123
926.352	9032
926.459	9165
926.566	9146
926.673	9039
926.779	8986
926.886	8929
926.993	8842
927.099	8800
927.206	8773
927.312	8708
927.419	8830
927.525	8819
927.631	8895
927.737	8716
927.843	8678
927.95	8545
928.056	8651
928.162	8743
928.267	8758
928.373	9382
928.479	8788
928.585	8598
928.69	8705
928.796	8735
928.901	8648
929.007	8514
929.112	8594
929.218	8571
929.323	8514
929.428	8438
929.533	8682
929.638	8457
929.743	8492
929.848	8571
929.953	8492
930.058	8412
930.163	8336
930.267	8320
930.372	8454
930.477	8317
930.581	8537
930.685	8389
930.79	8263
930.894	8336
930.998	8225
931.103	8320
931.207	8016
931.311	8081
931.415	7925
931.519	7723
931.623	7799
