Data from test_V78500241_3314.txt Node
Date: Fri Mar 25 14:56:47 CST 2022
User: usil
Spectrometer: V785-0024
Trigger mode: 0
Integration Time (sec): 4.000000E-1
Scans to average: 1
Nonlinearity correction enabled: false
Boxcar width: 0
Storing dark spectrum: false
XAxis mode: Wavelengths
Number of Pixels in Spectrum: 1024
>>>>>Begin Spectral Data<<<<<
801.071	21926
801.214	21903
801.356	21561
801.499	21466
801.641	21367
801.783	21310
801.926	21462
802.068	21302
802.211	21233
802.353	21123
802.496	20971
802.638	20853
802.78	20842
802.923	20746
803.065	20541
803.208	20708
803.35	20708
803.492	20773
803.635	20743
803.777	20594
803.919	20678
804.061	20895
804.204	20560
804.346	20571
804.488	20568
804.63	20530
804.773	20556
804.915	20629
805.057	20724
805.199	20552
805.341	20606
805.483	20693
805.626	20446
805.768	20480
805.91	20484
806.052	20625
806.194	20473
806.336	20606
806.478	20594
806.62	20488
806.762	20537
806.904	20826
807.046	21009
807.188	20952
807.33	20849
807.472	20864
807.614	20800
807.756	20735
807.898	20705
808.04	20693
808.182	20609
808.324	20629
808.465	20644
808.607	20826
808.749	20933
808.891	20944
809.033	21089
809.174	20902
809.316	20739
809.458	20811
809.6	20819
809.741	21028
809.883	20902
810.025	21032
810.166	21077
810.308	21089
810.45	20967
810.591	20929
810.733	20731
810.875	20686
811.016	20613
811.158	20568
811.299	20716
811.441	20777
811.582	20815
811.724	20629
811.865	20663
812.007	20556
812.148	20678
812.29	20727
812.431	20777
812.573	21051
812.714	21077
812.855	21203
812.997	21218
813.138	21382
813.279	21207
813.421	21237
813.562	21093
813.703	20899
813.845	20800
813.986	20609
814.127	20210
814.268	20263
814.41	20282
814.551	20157
814.692	20400
814.833	20138
814.974	20168
815.115	20142
815.256	20024
815.397	20126
815.539	20031
815.68	19887
815.821	19951
815.962	19913
816.103	19906
816.244	19852
816.385	19765
816.526	19609
816.666	19540
816.807	19304
816.948	19419
817.089	19346
817.23	19449
817.371	19213
817.512	19377
817.653	19335
817.793	19209
817.934	19320
818.075	19324
818.216	19289
818.356	19282
818.497	19285
818.638	19046
818.778	19027
818.919	18985
819.06	19183
819.2	19175
819.341	19232
819.481	19266
819.622	19457
819.762	19510
819.903	19384
820.043	19324
820.184	19168
820.324	19301
820.465	19434
820.605	19339
820.746	19384
820.886	19145
821.026	19358
821.167	19282
821.307	19324
821.447	19266
821.588	19206
821.728	19000
821.868	18928
822.008	18791
822.149	18757
822.289	18608
822.429	18445
822.569	18422
822.709	18418
822.849	18308
822.99	18228
823.13	18270
823.27	18136
823.41	18171
823.55	18030
823.69	18140
823.83	18095
823.97	17954
824.11	17859
824.25	17745
824.389	17923
824.529	17836
824.669	17813
824.809	17961
824.949	17931
825.089	17802
825.228	17748
825.368	17680
825.508	17570
825.648	17543
825.787	17596
825.927	17608
826.067	17535
826.206	17535
826.346	17551
826.485	17619
826.625	17543
826.765	17767
826.904	17589
827.044	17425
827.183	17364
827.323	17318
827.462	17376
827.601	17356
827.741	17334
827.88	17334
828.02	17098
828.159	17353
828.298	17261
828.437	17395
828.577	17197
828.716	17395
828.855	17200
828.994	17060
829.134	17075
829.273	16953
829.412	17037
829.551	17041
829.69	17014
829.829	17102
829.968	17242
830.107	17174
830.246	17052
830.385	17003
830.524	16908
830.663	16896
830.802	16911
830.941	16733
831.08	16630
831.219	16694
831.357	16748
831.496	16824
831.635	16641
831.774	16599
831.913	16542
832.051	16459
832.19	16432
832.329	16527
832.467	16428
832.606	16375
832.744	16455
832.883	16325
833.022	16325
833.16	16337
833.299	16314
833.437	16386
833.576	16409
833.714	16443
833.852	16489
833.991	16409
834.129	16478
834.267	16455
834.406	16341
834.544	16455
834.682	16379
834.821	16500
834.959	16584
835.097	16344
835.235	16470
835.373	16497
835.511	16558
835.65	16223
835.788	16234
835.926	16120
836.064	16002
836.202	16211
836.34	16398
836.478	16363
836.615	16261
836.753	16329
836.891	16337
837.029	16443
837.167	16223
837.305	16265
837.443	16211
837.58	16177
837.718	16295
837.856	16257
837.993	16143
838.131	16207
838.269	16105
838.406	16238
838.544	16169
838.681	15941
838.819	15941
838.956	15736
839.094	15751
839.231	15816
839.369	15975
839.506	16082
839.643	16040
839.781	15895
839.918	15770
840.055	15804
840.193	15812
840.33	15637
840.467	15789
840.604	15732
840.742	15941
840.879	15606
841.016	15713
841.153	15644
841.29	15869
841.427	15804
841.564	15884
841.701	15808
841.838	15690
841.975	15717
842.112	15698
842.249	15629
842.385	15561
842.522	15724
842.659	15504
842.796	15542
842.933	15614
843.069	15568
843.206	15538
843.343	15561
843.479	15557
843.616	15561
843.752	15344
843.889	15294
844.025	15389
844.162	15313
844.298	15283
844.435	15374
844.571	15279
844.708	15405
844.844	15530
844.98	15462
845.117	15412
845.253	15287
845.389	15256
845.525	15302
845.661	15203
845.798	15146
845.934	15176
846.07	15138
846.206	15150
846.342	15233
846.478	15093
846.614	14944
846.75	14941
846.886	14830
847.022	15028
847.158	14982
847.294	14857
847.429	14895
847.565	14921
847.701	15097
847.837	14632
847.972	14625
848.108	14678
848.244	14678
848.379	14617
848.515	14514
848.65	14514
848.786	14503
848.921	14473
849.057	14530
849.192	14560
849.328	14640
849.463	14590
849.598	14511
849.734	14358
849.869	14385
850.004	14263
850.14	14225
850.275	14301
850.41	14183
850.545	14259
850.68	14218
850.815	14305
850.95	14214
851.085	14469
851.22	14366
851.355	14256
851.49	14259
851.625	14172
851.76	14195
851.895	14123
852.03	14199
852.165	14183
852.299	14256
852.434	14324
852.569	14225
852.703	14202
852.838	14339
852.973	14366
853.107	14446
853.242	14153
853.376	14058
853.511	14016
853.645	14107
853.78	14320
853.914	14092
854.048	14149
854.183	14092
854.317	14138
854.451	14298
854.585	14240
854.72	14103
854.854	14176
854.988	14119
855.122	14180
855.256	13902
855.39	14138
855.524	14199
855.658	14183
855.792	14278
855.926	14298
856.06	14191
856.194	14176
856.327	14229
856.461	14069
856.595	14088
856.729	14191
856.862	14221
856.996	14305
857.13	14332
857.263	14218
857.397	14259
857.53	14138
857.664	14206
857.797	14244
857.931	14317
858.064	14252
858.197	14278
858.331	14096
858.464	14092
858.597	13955
858.731	14199
858.864	14191
858.997	14088
859.13	14134
859.263	14180
859.396	14240
859.529	14115
859.662	14149
859.795	14039
859.928	14237
860.061	14271
860.194	14298
860.327	14176
860.46	14218
860.592	14240
860.725	14237
860.858	14218
860.99	14176
861.123	13978
861.256	14115
861.388	14103
861.521	14979
861.653	14027
861.786	13986
861.918	14062
862.05	14024
862.183	14081
862.315	14119
862.447	14142
862.58	14024
862.712	13898
862.844	13906
862.976	14111
863.108	14005
863.24	14332
863.372	13826
863.504	13868
863.636	13963
863.768	13947
863.9	13887
864.032	13784
864.164	13906
864.296	13993
864.428	13974
864.559	14069
864.691	14016
864.823	13967
864.954	14054
865.086	14016
865.217	13898
865.349	13909
865.48	13947
865.612	13944
865.743	14062
865.875	13856
866.006	13852
866.137	13944
866.269	13864
866.4	13868
866.531	13746
866.662	13940
866.793	13841
866.924	13894
867.055	13887
867.186	13841
867.317	13906
867.448	13712
867.579	13879
867.71	13894
867.841	13852
867.972	13902
868.103	13928
868.233	13967
868.364	13887
868.495	13951
868.625	14103
868.756	14244
868.886	14054
869.017	14134
869.147	14195
869.278	14252
869.408	14218
869.539	14084
869.669	14221
869.799	14237
869.929	14301
870.06	14229
870.19	14495
870.32	14385
870.45	14533
870.58	14537
870.71	14788
870.84	14777
870.97	14526
871.1	14564
871.23	14724
871.36	14727
871.489	14724
871.619	14697
871.749	14727
871.879	14807
872.008	14899
872.138	14743
872.267	14731
872.397	14724
872.526	14674
872.656	14537
872.785	14632
872.915	14724
873.044	14857
873.173	14800
873.303	14842
873.432	14823
873.561	14891
873.69	14902
873.819	14781
873.948	14975
874.077	14815
874.206	14739
874.335	14857
874.464	14975
874.593	15150
874.722	15028
874.851	15249
874.979	15173
875.108	15138
875.237	15138
875.365	15074
875.494	15100
875.623	15138
875.751	15036
875.88	15195
876.008	15218
876.136	15389
876.265	15523
876.393	15644
876.521	15580
876.65	15618
876.778	15629
876.906	15504
877.034	15481
877.162	15625
877.29	15610
877.418	15591
877.546	15564
877.674	15538
877.802	15507
877.93	15557
878.058	15435
878.185	15378
878.313	15507
878.441	15564
878.568	15405
878.696	15431
878.824	15717
878.951	15599
879.079	15736
879.206	15842
879.333	15766
879.461	15580
879.588	15568
879.715	15759
879.842	15861
879.97	15614
880.097	15405
880.224	15408
880.351	15401
880.478	15397
880.605	15245
880.732	15408
880.859	15698
880.986	15359
881.112	15466
881.239	15329
881.366	15287
881.493	15074
881.619	15089
881.746	15119
881.872	15100
881.999	14967
882.125	15066
882.252	15157
882.378	15043
882.505	15169
882.631	14921
882.757	14872
882.883	14800
883.01	14834
883.136	14682
883.262	14769
883.388	14674
883.514	14914
883.64	14899
883.766	14834
883.892	14640
884.018	14750
884.143	14819
884.269	14941
884.395	14682
884.52	14552
884.646	14560
884.772	14473
884.897	14442
885.023	14560
885.148	14708
885.274	14705
885.399	14674
885.524	14636
885.65	14537
885.775	14564
885.9	14556
886.025	14762
886.15	14735
886.275	14503
886.4	14568
886.525	14480
886.65	14533
886.775	14549
886.9	14575
887.025	14785
887.149	14621
887.274	14419
887.399	14480
887.523	14434
887.648	14313
887.773	14324
887.897	14518
888.021	14423
888.146	14396
888.27	14587
888.395	14499
888.519	14442
888.643	14480
888.767	14469
888.891	14336
889.015	14172
889.139	14286
889.263	14259
889.387	14408
889.511	14492
889.635	14465
889.759	14157
889.883	14256
890.006	14267
890.13	14332
890.254	14180
890.377	14256
890.501	14161
890.624	14058
890.748	14077
890.871	13974
890.995	13947
891.118	13906
891.241	13936
891.364	13989
891.488	14065
891.611	13993
891.734	13989
891.857	14058
891.98	14008
892.103	14058
892.226	13974
892.349	13959
892.471	13788
892.594	13932
892.717	14035
892.839	13837
892.962	13970
893.085	13970
893.207	14035
893.33	13871
893.452	13955
893.575	14024
893.697	14008
893.819	14187
893.941	14286
894.064	14145
894.186	14008
894.308	13951
894.43	14073
894.552	14237
894.674	14172
894.796	13890
894.918	14035
895.04	14016
895.161	14199
895.283	14100
895.405	14069
895.526	14103
895.648	14062
895.769	14065
895.891	14164
896.012	14240
896.134	14263
896.255	14119
896.376	14100
896.498	14172
896.619	14195
896.74	14157
896.861	14267
896.982	14454
897.103	14651
897.224	14412
897.345	14419
897.466	14377
897.587	14347
897.708	14533
897.828	14511
897.949	14400
898.07	14294
898.19	14362
898.311	14571
898.431	14415
898.552	14556
898.672	14530
898.792	14587
898.913	14610
899.033	14457
899.153	14385
899.273	14187
899.393	14408
899.513	14320
899.633	14374
899.753	14317
899.873	14454
899.993	14492
900.113	14400
900.232	14412
900.352	14446
900.472	14275
900.591	14252
900.711	14282
900.83	14119
900.95	14362
901.069	14309
901.189	14183
901.308	14088
901.427	13906
901.546	13811
901.665	13947
901.784	13936
901.904	13753
902.023	13776
902.141	13537
902.26	13430
902.379	13544
902.498	13575
902.617	13502
902.735	13544
902.854	13525
902.973	13381
903.091	13179
903.21	13194
903.328	13221
903.446	13187
903.565	13080
903.683	13042
903.801	12909
903.919	13012
904.038	13053
904.156	12951
904.274	12932
904.392	12806
904.51	12791
904.627	12833
904.745	12905
904.863	12935
904.981	12646
905.098	12494
905.216	12555
905.334	12585
905.451	12528
905.569	12517
905.686	12646
905.803	12551
905.921	12433
906.038	12525
906.155	12372
906.272	12194
906.389	12353
906.506	12114
906.623	12133
906.74	12083
906.857	12041
906.974	12049
907.091	12201
907.208	12323
907.324	12152
907.441	12068
907.557	11973
907.674	11904
907.79	11889
907.907	11832
908.023	11984
908.139	11885
908.256	11904
908.372	11805
908.488	11802
908.604	11630
908.72	11570
908.836	11615
908.952	11608
909.068	11691
909.184	11722
909.3	11653
909.415	11604
909.531	11714
909.647	11452
909.762	11414
909.878	11444
909.993	11417
910.108	11414
910.224	11326
910.339	11440
910.454	11356
910.57	11307
910.685	11223
910.8	11547
910.915	11433
911.03	11303
911.145	11113
911.259	11064
911.374	11227
911.489	11140
911.604	11083
911.718	10915
911.833	10953
911.947	10805
912.062	10774
912.176	10839
912.291	10873
912.405	10782
912.519	10991
912.633	11231
912.748	10980
912.862	10908
912.976	10759
913.09	10668
913.204	10740
913.318	10805
913.431	10801
913.545	10900
913.659	10866
913.772	10759
913.886	10675
914	10649
914.113	10755
914.226	10778
914.34	10816
914.453	10645
914.566	10778
914.68	10569
914.793	10580
914.906	10402
915.019	10318
915.132	10398
915.245	10379
915.358	10348
915.47	10447
915.583	10424
915.696	10588
915.809	10622
915.921	10580
916.034	10360
916.146	10348
916.259	10352
916.371	10523
916.483	10440
916.595	10295
916.708	10341
916.82	10333
916.932	10249
917.044	10337
917.156	10265
917.268	10143
917.38	10249
917.491	10242
917.603	10253
917.715	10318
917.826	10405
917.938	10230
918.049	10105
918.161	10219
918.272	10485
918.384	10413
918.495	10249
918.606	10112
918.717	10051
918.828	10116
918.939	10116
919.05	10029
919.161	10051
919.272	9956
919.383	9949
919.494	10147
919.604	10291
919.715	10090
919.826	10093
919.936	10086
920.047	10204
920.157	10131
920.267	10310
920.378	10124
920.488	10131
920.598	10253
920.708	10413
920.818	10318
920.928	10352
921.038	10538
921.148	10459
921.258	10207
921.368	10109
921.477	9994
921.587	10067
921.697	9819
921.806	10010
921.916	9945
922.025	9724
922.134	9797
922.244	9652
922.353	9690
922.462	9580
922.571	9564
922.68	9439
922.789	9355
922.898	9393
923.007	9416
923.116	9447
923.224	9382
923.333	9382
923.442	9374
923.55	9241
923.659	9241
923.767	9367
923.876	9253
923.984	9310
924.092	9203
924.201	9306
924.309	9253
924.417	9241
924.525	9222
924.633	9367
924.741	10116
924.849	9089
924.956	9260
925.064	9028
925.172	8895
925.279	8971
925.387	9097
925.494	9058
925.602	9230
925.709	9199
925.816	8998
925.924	9077
926.031	9195
926.138	9123
926.245	9077
926.352	9009
926.459	9180
926.566	9180
926.673	9074
926.779	8948
926.886	8902
926.993	8826
927.099	8823
927.206	8754
927.312	8735
927.419	8857
927.525	8811
927.631	8807
927.737	8743
927.843	8758
927.95	8636
928.056	8716
928.162	8693
928.267	8785
928.373	9378
928.479	8842
928.585	8530
928.69	8735
928.796	8697
928.901	8651
929.007	8492
929.112	8629
929.218	8545
929.323	8568
929.428	8545
929.533	8689
929.638	8454
929.743	8518
929.848	8613
929.953	8541
930.058	8419
930.163	8320
930.267	8320
930.372	8499
930.477	8271
930.581	8549
930.685	8324
930.79	8191
930.894	8328
930.998	8210
931.103	8366
931.207	8111
931.311	7944
931.415	7925
931.519	7784
931.623	7742
