Data from test_V78500241_663.txt Node
Date: Fri Mar 25 14:38:20 CST 2022
User: usil
Spectrometer: V785-0024
Trigger mode: 0
Integration Time (sec): 4.000000E-1
Scans to average: 1
Nonlinearity correction enabled: false
Boxcar width: 0
Storing dark spectrum: false
XAxis mode: Wavelengths
Number of Pixels in Spectrum: 1024
>>>>>Begin Spectral Data<<<<<
801.071	28211
801.214	28109
801.356	27736
801.499	27774
801.641	27545
801.783	27583
801.926	27466
802.068	27363
802.211	27367
802.353	27218
802.496	26967
802.638	27001
802.78	27009
802.923	27020
803.065	27013
803.208	26929
803.35	27135
803.492	27119
803.635	27081
803.777	27089
803.919	27203
804.061	27454
804.204	27237
804.346	27188
804.488	27199
804.63	27226
804.773	27195
804.915	27405
805.057	27416
805.199	27439
805.341	27561
805.483	27603
805.626	27732
805.768	27682
805.91	27873
806.052	28002
806.194	28040
806.336	28443
806.478	28341
806.62	28470
806.762	28885
806.904	29254
807.046	29847
807.188	30087
807.33	30399
807.472	30905
807.614	31677
807.756	32336
807.898	33610
808.04	34900
808.182	36817
808.324	39393
808.465	42243
808.607	45488
808.749	48258
808.891	49795
809.033	49788
809.174	48467
809.316	45751
809.458	42277
809.6	39055
809.741	36574
809.883	34356
810.025	33199
810.166	32103
810.308	31228
810.45	30338
810.591	30174
810.733	29627
810.875	29235
811.016	28972
811.158	28702
811.299	28786
811.441	28615
811.582	28474
811.724	28181
811.865	28090
812.007	27880
812.148	27994
812.29	27930
812.431	27876
812.573	27956
812.714	27975
812.855	28002
812.997	28382
813.138	28284
813.279	28067
813.421	27975
813.562	27804
813.703	27618
813.845	27549
813.986	27214
814.127	27161
814.268	26880
814.41	26937
814.551	26777
814.692	26826
814.833	26716
814.974	26621
815.115	26625
815.256	26541
815.397	26457
815.539	26358
815.68	26377
815.821	26225
815.962	26317
816.103	26328
816.244	26062
816.385	26077
816.526	26005
816.666	25803
816.807	25757
816.948	25746
817.089	25845
817.23	25514
817.371	25575
817.512	25567
817.653	25632
817.793	25586
817.934	25590
818.075	25472
818.216	25605
818.356	25362
818.497	25327
818.638	25251
818.778	25209
818.919	25175
819.06	25289
819.2	25228
819.341	25521
819.481	25476
819.622	25521
819.762	25670
819.903	25586
820.043	25491
820.184	25518
820.324	25434
820.465	25510
820.605	25537
820.746	25411
820.886	25118
821.026	25244
821.167	25278
821.307	25354
821.447	25259
821.588	25122
821.728	24943
821.868	24817
822.008	24517
822.149	24665
822.289	24601
822.429	24441
822.569	24277
822.709	24262
822.849	23935
822.99	24152
823.13	24087
823.27	24133
823.41	23893
823.55	23870
823.69	23786
823.83	23855
823.97	23790
824.11	23619
824.25	23619
824.389	23604
824.529	23611
824.669	23634
824.809	23722
824.949	23745
825.089	23627
825.228	23368
825.368	23474
825.508	23372
825.648	23379
825.787	23474
825.927	23417
826.067	23258
826.206	23402
826.346	23410
826.485	23493
826.625	23223
826.765	23501
826.904	23486
827.044	23193
827.183	23197
827.323	23029
827.462	23140
827.601	22972
827.741	23022
827.88	23025
828.02	22908
828.159	23025
828.298	23102
828.437	22957
828.577	23003
828.716	23079
828.855	22987
828.994	22881
829.134	22713
829.273	22786
829.412	22683
829.551	22702
829.69	22736
829.829	22763
829.968	22771
830.107	22725
830.246	22713
830.385	22615
830.524	22523
830.663	22428
830.802	22421
830.941	22394
831.08	22169
831.219	22462
831.357	22394
831.496	22516
831.635	22421
831.774	22226
831.913	22230
832.051	22192
832.19	22166
832.329	22306
832.467	22086
832.606	22093
832.744	22169
832.883	22287
833.022	22196
833.16	22360
833.299	22417
833.437	22649
833.576	22713
833.714	22854
833.852	23098
833.991	23083
834.129	23318
834.267	23170
834.406	23242
834.544	23090
834.682	22820
834.821	22824
834.959	22930
835.097	22569
835.235	22497
835.373	22527
835.511	22333
835.65	22238
835.788	22143
835.926	21892
836.064	21686
836.202	21720
836.34	21880
836.478	21892
836.615	21930
836.753	21781
836.891	21838
837.029	21816
837.167	21751
837.305	21652
837.443	21743
837.58	21564
837.718	21728
837.856	21583
837.993	21561
838.131	21770
838.269	21424
838.406	21428
838.544	21386
838.681	21268
838.819	21264
838.956	21070
839.094	20880
839.231	21089
839.369	21211
839.506	21401
839.643	21222
839.781	21036
839.918	20899
840.055	21032
840.193	21017
840.33	21001
840.467	20937
840.604	20986
840.742	21249
840.879	20994
841.016	20883
841.153	20891
841.29	21176
841.427	20967
841.564	20933
841.701	20998
841.838	20853
841.975	20861
842.112	20842
842.249	20872
842.385	20823
842.522	20941
842.659	20921
842.796	20876
842.933	20872
843.069	20754
843.206	20842
843.343	20899
843.479	20899
843.616	21009
843.752	20754
843.889	20705
844.025	20941
844.162	20982
844.298	21047
844.435	21165
844.571	21389
844.708	21618
844.844	22093
844.98	22531
845.117	23041
845.253	23973
845.389	25753
845.525	29083
845.661	34786
845.798	41315
845.934	46082
846.07	47980
846.206	46557
846.342	42091
846.478	35535
846.614	29836
846.75	26202
846.886	24152
847.022	22752
847.158	21861
847.294	21397
847.429	21161
847.565	20933
847.701	20906
847.837	20381
847.972	20115
848.108	20275
848.244	20069
848.379	19951
848.515	19788
848.65	19811
848.786	19811
848.921	19803
849.057	19868
849.192	19734
849.328	19742
849.463	19723
849.598	19628
849.734	19658
849.869	19453
850.004	19384
850.14	19384
850.275	19362
850.41	19244
850.545	19289
850.68	19339
850.815	19358
850.95	19312
851.085	19613
851.22	19491
851.355	19339
851.49	19388
851.625	19324
851.76	19304
851.895	19289
852.03	19190
852.165	19384
852.299	19491
852.434	19407
852.569	19392
852.703	19346
852.838	19457
852.973	19594
853.107	19567
853.242	19476
853.376	19403
853.511	19346
853.645	19422
853.78	19594
853.914	19426
854.048	19533
854.183	19552
854.317	19590
854.451	19772
854.585	19632
854.72	19514
854.854	19647
854.988	19407
855.122	19445
855.256	19373
855.39	19510
855.524	19381
855.658	19422
855.792	19289
855.926	19304
856.06	19312
856.194	19480
856.327	19259
856.461	19114
856.595	19187
856.729	19148
856.862	19285
856.996	19175
857.13	19240
857.263	19198
857.397	19202
857.53	19069
857.664	19228
857.797	19213
857.931	19251
858.064	19156
858.197	19160
858.331	19046
858.464	19061
858.597	18840
858.731	19038
858.864	19095
858.997	18939
859.13	19076
859.263	19072
859.396	19057
859.529	18935
859.662	19023
859.795	18981
859.928	19091
860.061	19126
860.194	19206
860.327	19061
860.46	18985
860.592	19171
860.725	19164
860.858	19057
860.99	19004
861.123	19000
861.256	18989
861.388	19034
861.521	19571
861.653	18776
861.786	18795
861.918	18894
862.05	18829
862.183	18989
862.315	18943
862.447	19122
862.58	18939
862.712	18840
862.844	18688
862.976	18829
863.108	18757
863.24	18970
863.372	18719
863.504	18623
863.636	18688
863.768	18776
863.9	18745
864.032	18635
864.164	18547
864.296	18639
864.428	18817
864.559	18749
864.691	18696
864.823	18703
864.954	18696
865.086	18566
865.217	18669
865.349	18578
865.48	18555
865.612	18616
865.743	18650
865.875	18532
866.006	18464
866.137	18589
866.269	18486
866.4	18540
866.531	18559
866.662	18494
866.793	18555
866.924	18494
867.055	18506
867.186	18623
867.317	18460
867.448	18418
867.579	18479
867.71	18410
867.841	18403
867.972	18582
868.103	18517
868.233	18593
868.364	18547
868.495	18601
868.625	18688
868.756	18913
868.886	18719
869.017	18772
869.147	18901
869.278	18939
869.408	18890
869.539	18840
869.669	18810
869.799	18776
869.929	18981
870.06	18932
870.19	19183
870.32	19103
870.45	19122
870.58	19236
870.71	19232
870.84	19381
870.97	19285
871.1	19251
871.23	19460
871.36	19514
871.489	19320
871.619	19529
871.749	19392
871.879	19556
872.008	19655
872.138	19597
872.267	19552
872.397	19396
872.526	19445
872.656	19354
872.785	19468
872.915	19563
873.044	19753
873.173	19723
873.303	19788
873.432	19666
873.561	19738
873.69	19864
873.819	19868
873.948	19818
874.077	19791
874.206	19883
874.335	19883
874.464	19970
874.593	20172
874.722	20054
874.851	20396
874.979	20298
875.108	20328
875.237	20271
875.365	20240
875.494	20427
875.623	20488
875.751	20484
875.88	20450
876.008	20762
876.136	20689
876.265	21020
876.393	21135
876.521	21233
876.65	21275
876.778	21211
876.906	21226
877.034	21146
877.162	21507
877.29	21405
877.418	21553
877.546	21629
877.674	21705
877.802	21831
877.93	21964
878.058	22154
878.185	22299
878.313	22653
878.441	22968
878.568	23170
878.696	23805
878.824	24471
878.951	25601
879.079	27055
879.206	29044
879.333	31133
879.461	32746
879.588	33770
879.715	33918
879.842	32826
879.97	31076
880.097	29041
880.224	27496
880.351	26404
880.478	25594
880.605	24905
880.732	24540
880.859	24623
880.986	24380
881.112	24057
881.239	23977
881.366	23752
881.493	23752
881.619	23604
881.746	23760
881.872	23646
881.999	23771
882.125	23737
882.252	23771
882.378	23946
882.505	24018
882.631	23687
882.757	23752
882.883	23798
883.01	23809
883.136	23608
883.262	23611
883.388	23566
883.514	23718
883.64	23608
883.766	23623
883.892	23429
884.018	23429
884.143	23703
884.269	23608
884.395	23269
884.52	23334
884.646	23406
884.772	23235
884.897	23292
885.023	23353
885.148	23364
885.274	23531
885.399	23307
885.524	23208
885.65	23075
885.775	22896
885.9	22679
886.025	22713
886.15	22611
886.275	22447
886.4	22070
886.525	22173
886.65	21823
886.775	21850
886.9	21903
887.025	21800
887.149	21629
887.274	21321
887.399	21176
887.523	21062
887.648	20952
887.773	20868
887.897	21009
888.021	20899
888.146	20655
888.27	20800
888.395	20857
888.519	20743
888.643	20560
888.767	20579
888.891	20442
889.015	20324
889.139	20309
889.263	20161
889.387	20423
889.511	20355
889.635	20191
889.759	20073
889.883	20081
890.006	19982
890.13	20100
890.254	19803
890.377	19890
890.501	19628
890.624	19635
890.748	19723
890.871	19559
890.995	19487
891.118	19255
891.241	19373
891.364	19335
891.488	19377
891.611	19266
891.734	19274
891.857	19217
891.98	19164
892.103	19175
892.226	19187
892.349	19168
892.471	18817
892.594	19027
892.717	18954
892.839	18920
892.962	18985
893.085	18970
893.207	18958
893.33	18745
893.452	18753
893.575	18935
893.697	18806
893.819	18821
893.941	18924
894.064	18890
894.186	18604
894.308	18563
894.43	18776
894.552	18783
894.674	18658
894.796	18525
894.918	18566
895.04	18509
895.161	18627
895.283	18604
895.405	18437
895.526	18502
895.648	18445
895.769	18540
895.891	18532
896.012	18536
896.134	18563
896.255	18437
896.376	18479
896.498	18479
896.619	18475
896.74	18452
896.861	18532
896.982	18745
897.103	18894
897.224	18677
897.345	18692
897.466	18589
897.587	18604
897.708	18768
897.828	18688
897.949	18570
898.07	18528
898.19	18635
898.311	18612
898.431	18570
898.552	18650
898.672	18707
898.792	18764
898.913	18517
899.033	18509
899.153	18338
899.273	18384
899.393	18311
899.513	18376
899.633	18388
899.753	18334
899.873	18369
899.993	18365
900.113	18380
900.232	18456
900.352	18407
900.472	18114
900.591	18083
900.711	18216
900.83	18155
900.95	18243
901.069	18289
901.189	18129
901.308	17870
901.427	17802
901.546	17687
901.665	17752
901.784	17733
901.904	17699
902.023	17383
902.141	17372
902.26	17292
902.379	17322
902.498	17277
902.617	17181
902.735	17170
902.854	17159
902.973	17090
903.091	16919
903.21	16809
903.328	16752
903.446	16645
903.565	16679
903.683	16630
903.801	16527
903.919	16637
904.038	16596
904.156	16341
904.274	16497
904.392	16352
904.51	16318
904.627	16363
904.745	16519
904.863	16432
904.981	16135
905.098	15953
905.216	16071
905.334	16093
905.451	16090
905.569	15797
905.686	15964
905.803	15964
905.921	15701
906.038	15892
906.155	15797
906.272	15641
906.389	15663
906.506	15469
906.623	15504
906.74	15450
906.857	15378
906.974	15420
907.091	15576
907.208	15606
907.324	15534
907.441	15359
907.557	15275
907.674	15108
907.79	15131
907.907	15093
908.023	15211
908.139	15157
908.256	15074
908.372	15199
908.488	15047
908.604	14952
908.72	14887
908.836	14883
908.952	14788
909.068	14933
909.184	14982
909.3	14918
909.415	14941
909.531	14872
909.647	14712
909.762	14625
909.878	14549
909.993	14629
910.108	14552
910.224	14579
910.339	14579
910.454	14499
910.57	14518
910.685	14393
910.8	14697
910.915	14606
911.03	14476
911.145	14309
911.259	14278
911.374	14237
911.489	14183
911.604	14195
911.718	13940
911.833	14050
911.947	13944
912.062	13814
912.176	13959
912.291	14001
912.405	13955
912.519	14206
912.633	14164
912.748	14043
912.862	14024
912.976	13822
913.09	13719
913.204	13765
913.318	13898
913.431	13978
913.545	13902
913.659	13936
913.772	13704
913.886	13742
914	13674
914.113	13765
914.226	13868
914.34	13811
914.453	13613
914.566	13772
914.68	13655
914.793	13628
914.906	13407
915.019	13369
915.132	13396
915.245	13308
915.358	13400
915.47	13381
915.583	13400
915.696	13445
915.809	13495
915.921	13609
916.034	13274
916.146	13289
916.259	13384
916.371	13365
916.483	13381
916.595	13350
916.708	13377
916.82	13362
916.932	13274
917.044	13308
917.156	13236
917.268	13175
917.38	13278
917.491	13118
917.603	13202
917.715	13225
917.826	13232
917.938	13053
918.049	12947
918.161	13023
918.272	13221
918.384	13099
918.495	13076
918.606	13015
918.717	12920
918.828	12837
918.939	12939
919.05	12795
919.161	12905
919.272	12684
919.383	12852
919.494	12894
919.604	13156
919.715	12894
919.826	12856
919.936	12897
920.047	13000
920.157	12848
920.267	13099
920.378	12859
920.488	12875
920.598	13000
920.708	13133
920.818	13053
920.928	12966
921.038	13114
921.148	13114
921.258	12817
921.368	12749
921.477	12563
921.587	12593
921.697	12498
921.806	12681
921.916	12475
922.025	12338
922.134	12300
922.244	12224
922.353	12311
922.462	12068
922.571	12060
922.68	11942
922.789	11889
922.898	12011
923.007	11840
923.116	11893
923.224	11893
923.333	11828
923.442	11726
923.55	11710
923.659	11741
923.767	11889
923.876	11680
923.984	11802
924.092	11623
924.201	11672
924.309	11707
924.417	11718
924.525	11600
924.633	11676
924.741	12540
924.849	11444
924.956	11611
925.064	11440
925.172	11368
925.279	11459
925.387	11490
925.494	11414
925.602	11535
925.709	11448
925.816	11330
925.924	11292
926.031	11512
926.138	11330
926.245	11440
926.352	11349
926.459	11417
926.566	11474
926.673	11322
926.779	11193
926.886	11216
926.993	11098
927.099	11037
927.206	10987
927.312	10934
927.419	11086
927.525	11075
927.631	11124
927.737	10995
927.843	10869
927.95	10797
928.056	10881
928.162	10927
928.267	10938
928.373	11433
928.479	11041
928.585	10740
928.69	10869
928.796	10904
928.901	10752
929.007	10630
929.112	10831
929.218	10752
929.323	10664
929.428	10615
929.533	10740
929.638	10683
929.743	10668
929.848	10653
929.953	10656
930.058	10558
930.163	10291
930.267	10390
930.372	10481
930.477	10398
930.581	10535
930.685	10386
930.79	10268
930.894	10272
930.998	10268
931.103	10428
931.207	10105
931.311	9998
931.415	9922
931.519	9720
931.623	9660
