Data from test_V78500241_3674.txt Node
Date: Fri Mar 25 14:59:18 CST 2022
User: usil
Spectrometer: V785-0024
Trigger mode: 0
Integration Time (sec): 4.000000E-1
Scans to average: 1
Nonlinearity correction enabled: false
Boxcar width: 0
Storing dark spectrum: false
XAxis mode: Wavelengths
Number of Pixels in Spectrum: 1024
>>>>>Begin Spectral Data<<<<<
801.071	21823
801.214	21888
801.356	21564
801.499	21648
801.641	21249
801.783	21226
801.926	21447
802.068	21237
802.211	21233
802.353	21119
802.496	20937
802.638	20762
802.78	20731
802.923	20739
803.065	20568
803.208	20568
803.35	20640
803.492	20686
803.635	20625
803.777	20674
803.919	20708
804.061	20982
804.204	20609
804.346	20347
804.488	20522
804.63	20606
804.773	20499
804.915	20564
805.057	20598
805.199	20450
805.341	20613
805.483	20621
805.626	20708
805.768	20446
805.91	20446
806.052	20613
806.194	20427
806.336	20670
806.478	20507
806.62	20404
806.762	20484
806.904	20701
807.046	21013
807.188	20887
807.33	20834
807.472	20899
807.614	20777
807.756	20762
807.898	20613
808.04	20602
808.182	20541
808.324	20507
808.465	20765
808.607	20921
808.749	20963
808.891	20925
809.033	20967
809.174	20925
809.316	20853
809.458	20941
809.6	20811
809.741	20876
809.883	20941
810.025	21093
810.166	21020
810.308	21001
810.45	21039
810.591	21005
810.733	20823
810.875	20739
811.016	20629
811.158	20518
811.299	20678
811.441	20777
811.582	20781
811.724	20568
811.865	20712
812.007	20579
812.148	20648
812.29	20708
812.431	20830
812.573	20861
812.714	21047
812.855	21100
812.997	21150
813.138	21401
813.279	21344
813.421	21127
813.562	21089
813.703	20899
813.845	20667
813.986	20480
814.127	20309
814.268	20210
814.41	20210
814.551	20145
814.692	20225
814.833	20157
814.974	20176
815.115	20096
815.256	20069
815.397	20172
815.539	19989
815.68	19967
815.821	19841
815.962	20008
816.103	19750
816.244	19753
816.385	19647
816.526	19704
816.666	19495
816.807	19297
816.948	19343
817.089	19422
817.23	19388
817.371	19339
817.512	19369
817.653	19225
817.793	19301
817.934	19312
818.075	19362
818.216	19202
818.356	19145
818.497	19065
818.638	19027
818.778	18939
818.919	18928
819.06	18985
819.2	19061
819.341	19240
819.481	19118
819.622	19339
819.762	19502
819.903	19506
820.043	19343
820.184	19411
820.324	19282
820.465	19388
820.605	19194
820.746	19225
820.886	19034
821.026	19209
821.167	19175
821.307	19293
821.447	19274
821.588	19221
821.728	19057
821.868	18779
822.008	18623
822.149	18654
822.289	18722
822.429	18517
822.569	18403
822.709	18311
822.849	18247
822.99	18205
823.13	18144
823.27	18133
823.41	17908
823.55	17916
823.69	17961
823.83	17927
823.97	17859
824.11	17748
824.25	17619
824.389	17771
824.529	17798
824.669	17855
824.809	17923
824.949	17931
825.089	17832
825.228	17668
825.368	17585
825.508	17630
825.648	17585
825.787	17539
825.927	17558
826.067	17497
826.206	17490
826.346	17497
826.485	17524
826.625	17547
826.765	17699
826.904	17581
827.044	17311
827.183	17303
827.323	17311
827.462	17330
827.601	17273
827.741	17250
827.88	17265
828.02	17223
828.159	17311
828.298	17307
828.437	17372
828.577	17223
828.716	17353
828.855	17330
828.994	17045
829.134	17045
829.273	16987
829.412	16968
829.551	16972
829.69	17025
829.829	17071
829.968	17064
830.107	17113
830.246	16946
830.385	16961
830.524	16915
830.663	16869
830.802	16736
830.941	16588
831.08	16596
831.219	16607
831.357	16607
831.496	16706
831.635	16656
831.774	16569
831.913	16493
832.051	16398
832.19	16337
832.329	16394
832.467	16310
832.606	16226
832.744	16299
832.883	16272
833.022	16230
833.16	16295
833.299	16318
833.437	16242
833.576	16405
833.714	16360
833.852	16398
833.991	16417
834.129	16455
834.267	16478
834.406	16325
834.544	16428
834.682	16432
834.821	16314
834.959	16527
835.097	16363
835.235	16470
835.373	16333
835.511	16413
835.65	16341
835.788	16394
835.926	16086
836.064	16032
836.202	16173
836.34	16314
836.478	16367
836.615	16333
836.753	16329
836.891	16329
837.029	16314
837.167	16322
837.305	16173
837.443	16124
837.58	16181
837.718	16356
837.856	16249
837.993	16128
838.131	16173
838.269	16204
838.406	16059
838.544	16055
838.681	15892
838.819	15831
838.956	15713
839.094	15663
839.231	15709
839.369	15876
839.506	16101
839.643	15949
839.781	15633
839.918	15614
840.055	15713
840.193	15785
840.33	15629
840.467	15762
840.604	15743
840.742	15915
840.879	15542
841.016	15633
841.153	15759
841.29	15876
841.427	15789
841.564	15732
841.701	15720
841.838	15682
841.975	15625
842.112	15671
842.249	15496
842.385	15492
842.522	15660
842.659	15530
842.796	15511
842.933	15488
843.069	15450
843.206	15485
843.343	15557
843.479	15561
843.616	15530
843.752	15272
843.889	15249
844.025	15523
844.162	15294
844.298	15450
844.435	15256
844.571	15252
844.708	15306
844.844	15504
844.98	15443
845.117	15348
845.253	15275
845.389	15188
845.525	15272
845.661	15176
845.798	15055
845.934	15176
846.07	15074
846.206	15176
846.342	15344
846.478	15058
846.614	14967
846.75	14826
846.886	14891
847.022	14956
847.158	14948
847.294	14883
847.429	14914
847.565	14857
847.701	15123
847.837	14655
847.972	14644
848.108	14667
848.244	14708
848.379	14537
848.515	14541
848.65	14423
848.786	14522
848.921	14495
849.057	14602
849.192	14579
849.328	14503
849.463	14518
849.598	14442
849.734	14431
849.869	14389
850.004	14294
850.14	14298
850.275	14320
850.41	14138
850.545	14187
850.68	14221
850.815	14237
850.95	14142
851.085	14545
851.22	14282
851.355	14191
851.49	14180
851.625	14252
851.76	14267
851.895	14123
852.03	14035
852.165	14267
852.299	14275
852.434	14252
852.569	14240
852.703	14248
852.838	14343
852.973	14476
853.107	14404
853.242	14290
853.376	14050
853.511	14012
853.645	14092
853.78	14183
853.914	14103
854.048	14001
854.183	14065
854.317	14161
854.451	14294
854.585	14199
854.72	14062
854.854	14221
854.988	14084
855.122	14016
855.256	13997
855.39	14111
855.524	14187
855.658	14153
855.792	14065
855.926	14187
856.06	14225
856.194	14244
856.327	14126
856.461	14039
856.595	14050
856.729	14020
856.862	14134
856.996	14157
857.13	14214
857.263	14214
857.397	14221
857.53	14062
857.664	14142
857.797	14168
857.931	14248
858.064	14054
858.197	14252
858.331	14035
858.464	14187
858.597	13955
858.731	14123
858.864	14088
858.997	14096
859.13	14168
859.263	14180
859.396	14218
859.529	14073
859.662	14142
859.795	14001
859.928	14142
860.061	14259
860.194	14237
860.327	14157
860.46	14180
860.592	14206
860.725	14263
860.858	14214
860.99	14172
861.123	14046
861.256	14016
861.388	14240
861.521	14823
861.653	14043
861.786	13959
861.918	13902
862.05	14027
862.183	14107
862.315	14065
862.447	14176
862.58	14031
862.712	13811
862.844	13852
862.976	13875
863.108	13928
863.24	14313
863.372	13765
863.504	13928
863.636	13932
863.768	13921
863.9	13902
864.032	13841
864.164	13818
864.296	13959
864.428	14073
864.559	13978
864.691	14012
864.823	13963
864.954	13947
865.086	13982
865.217	13917
865.349	13826
865.48	13906
865.612	13883
865.743	14016
865.875	13894
866.006	13856
866.137	13837
866.269	13822
866.4	13864
866.531	13799
866.662	13685
866.793	13864
866.924	13860
867.055	13890
867.186	13928
867.317	13811
867.448	13799
867.579	13845
867.71	13830
867.841	13803
867.972	13890
868.103	13909
868.233	13879
868.364	13940
868.495	13963
868.625	14126
868.756	14168
868.886	14084
869.017	14142
869.147	14195
869.278	14286
869.408	14214
869.539	14088
869.669	14149
869.799	14153
869.929	14237
870.06	14408
870.19	14412
870.32	14457
870.45	14492
870.58	14549
870.71	14617
870.84	14598
870.97	14602
871.1	14526
871.23	14773
871.36	14682
871.489	14598
871.619	14735
871.749	14708
871.879	14807
872.008	14842
872.138	14693
872.267	14735
872.397	14670
872.526	14602
872.656	14465
872.785	14552
872.915	14811
873.044	14815
873.173	14845
873.303	14800
873.432	14735
873.561	14891
873.69	14750
873.819	14773
873.948	14864
874.077	14861
874.206	14800
874.335	14693
874.464	14853
874.593	15119
874.722	15093
874.851	15058
874.979	15150
875.108	15089
875.237	15093
875.365	15009
875.494	15058
875.623	15176
875.751	15009
875.88	15089
876.008	15306
876.136	15408
876.265	15469
876.393	15652
876.521	15530
876.65	15622
876.778	15591
876.906	15534
877.034	15534
877.162	15477
877.29	15500
877.418	15428
877.546	15473
877.674	15412
877.802	15519
877.93	15481
878.058	15424
878.185	15351
878.313	15553
878.441	15564
878.568	15317
878.696	15412
878.824	15515
878.951	15603
879.079	15682
879.206	15823
879.333	15717
879.461	15549
879.588	15572
879.715	15694
879.842	15793
879.97	15549
880.097	15412
880.224	15336
880.351	15329
880.478	15374
880.605	15260
880.732	15313
880.859	15660
880.986	15401
881.112	15397
881.239	15283
881.366	15241
881.493	15119
881.619	15039
881.746	15104
881.872	15081
881.999	14971
882.125	15024
882.252	15135
882.378	15039
882.505	15214
882.631	14948
882.757	14853
882.883	14952
883.01	14868
883.136	14815
883.262	14739
883.388	14678
883.514	14781
883.64	14929
883.766	14800
883.892	14697
884.018	14629
884.143	14868
884.269	14956
884.395	14655
884.52	14476
884.646	14549
884.772	14568
884.897	14377
885.023	14526
885.148	14716
885.274	14727
885.399	14594
885.524	14560
885.65	14560
885.775	14659
885.9	14556
886.025	14701
886.15	14640
886.275	14526
886.4	14541
886.525	14533
886.65	14370
886.775	14415
886.9	14689
887.025	14758
887.149	14503
887.274	14450
887.399	14339
887.523	14385
887.648	14339
887.773	14263
887.897	14465
888.021	14358
888.146	14423
888.27	14480
888.395	14571
888.519	14438
888.643	14526
888.767	14492
888.891	14286
889.015	14172
889.139	14282
889.263	14229
889.387	14320
889.511	14450
889.635	14389
889.759	14202
889.883	14153
890.006	14282
890.13	14400
890.254	14305
890.377	14164
890.501	14081
890.624	14111
890.748	14157
890.871	13959
890.995	13944
891.118	13906
891.241	13951
891.364	13887
891.488	14054
891.611	13845
891.734	13947
891.857	14092
891.98	13955
892.103	13967
892.226	14020
892.349	13902
892.471	13784
892.594	13970
892.717	13921
892.839	14016
892.962	13947
893.085	13997
893.207	13986
893.33	13845
893.452	13978
893.575	14008
893.697	13967
893.819	14244
893.941	14164
894.064	14084
894.186	13986
894.308	13898
894.43	14062
894.552	14153
894.674	14126
894.796	13944
894.918	13951
895.04	14031
895.161	14145
895.283	14050
895.405	14020
895.526	14062
895.648	14016
895.769	14119
895.891	14092
896.012	14153
896.134	14259
896.255	14073
896.376	14054
896.498	14134
896.619	14195
896.74	14244
896.861	14134
896.982	14480
897.103	14651
897.224	14556
897.345	14377
897.466	14339
897.587	14446
897.708	14473
897.828	14412
897.949	14396
898.07	14142
898.19	14408
898.311	14518
898.431	14446
898.552	14438
898.672	14530
898.792	14590
898.913	14568
899.033	14381
899.153	14278
899.273	14317
899.393	14328
899.513	14309
899.633	14301
899.753	14298
899.873	14263
899.993	14404
900.113	14252
900.232	14404
900.352	14313
900.472	14275
900.591	14153
900.711	14248
900.83	14103
900.95	14355
901.069	14244
901.189	14164
901.308	13970
901.427	13818
901.546	13826
901.665	13830
901.784	13906
901.904	13818
902.023	13734
902.141	13578
902.26	13480
902.379	13563
902.498	13476
902.617	13460
902.735	13411
902.854	13403
902.973	13354
903.091	13145
903.21	13194
903.328	13225
903.446	13099
903.565	13072
903.683	13095
903.801	12882
903.919	12977
904.038	13012
904.156	12859
904.274	12844
904.392	12863
904.51	12901
904.627	12871
904.745	12821
904.863	12875
904.981	12684
905.098	12494
905.216	12585
905.334	12547
905.451	12540
905.569	12437
905.686	12555
905.803	12509
905.921	12292
906.038	12441
906.155	12353
906.272	12311
906.389	12266
906.506	12159
906.623	12178
906.74	12087
906.857	11973
906.974	12045
907.091	12205
907.208	12213
907.324	12194
907.441	11958
907.557	11889
907.674	11882
907.79	11851
907.907	11893
908.023	11882
908.139	11859
908.256	11859
908.372	11863
908.488	11767
908.604	11649
908.72	11585
908.836	11653
908.952	11543
909.068	11657
909.184	11794
909.3	11604
909.415	11703
909.531	11604
909.647	11463
909.762	11398
909.878	11410
909.993	11356
910.108	11452
910.224	11326
910.339	11433
910.454	11277
910.57	11277
910.685	11220
910.8	11543
910.915	11486
911.03	11280
911.145	11094
911.259	11143
911.374	11064
911.489	11033
911.604	11003
911.718	10850
911.833	10885
911.947	10725
912.062	10691
912.176	10771
912.291	10866
912.405	10835
912.519	11056
912.633	11155
912.748	10930
912.862	10900
912.976	10790
913.09	10653
913.204	10630
913.318	10786
913.431	10854
913.545	10771
913.659	10889
913.772	10763
913.886	10645
914	10546
914.113	10755
914.226	10839
914.34	10668
914.453	10558
914.566	10733
914.68	10641
914.793	10618
914.906	10394
915.019	10371
915.132	10333
915.245	10306
915.358	10379
915.47	10455
915.583	10451
915.696	10481
915.809	10546
915.921	10478
916.034	10402
916.146	10261
916.259	10242
916.371	10367
916.483	10451
916.595	10306
916.708	10322
916.82	10287
916.932	10306
917.044	10325
917.156	10227
917.268	10249
917.38	10234
917.491	10238
917.603	10196
917.715	10276
917.826	10310
917.938	10253
918.049	10067
918.161	10234
918.272	10291
918.384	10291
918.495	10344
918.606	10097
918.717	10017
918.828	10101
918.939	10166
919.05	10051
919.161	10086
919.272	9915
919.383	9991
919.494	10120
919.604	10310
919.715	10097
919.826	10010
919.936	10131
920.047	10124
920.157	10128
920.267	10227
920.378	10154
920.488	10067
920.598	10329
920.708	10398
920.818	10310
920.928	10223
921.038	10504
921.148	10443
921.258	10128
921.368	10135
921.477	9998
921.587	9998
921.697	9869
921.806	9991
921.916	9915
922.025	9766
922.134	9724
922.244	9610
922.353	9682
922.462	9591
922.571	9561
922.68	9378
922.789	9370
922.898	9374
923.007	9272
923.116	9481
923.224	9367
923.333	9374
923.442	9226
923.55	9249
923.659	9260
923.767	9329
923.876	9195
923.984	9321
924.092	9180
924.201	9241
924.309	9287
924.417	9260
924.525	9211
924.633	9245
924.741	9941
924.849	9047
924.956	9138
925.064	9097
925.172	8929
925.279	9070
925.387	9081
925.494	9074
925.602	9161
925.709	9081
925.816	9017
925.924	8986
926.031	9192
926.138	9032
926.245	9055
926.352	8952
926.459	9036
926.566	9131
926.673	8982
926.779	8872
926.886	8861
926.993	8750
927.099	8743
927.206	8739
927.312	8697
927.419	8769
927.525	8739
927.631	8815
927.737	8720
927.843	8663
927.95	8545
928.056	8640
928.162	8667
928.267	8708
928.373	9176
928.479	8769
928.585	8484
928.69	8651
928.796	8663
928.901	8560
929.007	8454
929.112	8590
929.218	8568
929.323	8434
929.428	8495
929.533	8636
929.638	8374
929.743	8488
929.848	8533
929.953	8457
930.058	8381
930.163	8267
930.267	8279
930.372	8336
930.477	8191
930.581	8484
930.685	8309
930.79	8149
930.894	8237
930.998	8183
931.103	8271
931.207	7986
931.311	7871
931.415	7967
931.519	7639
931.623	7674
