Data from test_V78500241_3650.txt Node
Date: Fri Mar 25 14:59:08 CST 2022
User: usil
Spectrometer: V785-0024
Trigger mode: 0
Integration Time (sec): 4.000000E-1
Scans to average: 1
Nonlinearity correction enabled: false
Boxcar width: 0
Storing dark spectrum: false
XAxis mode: Wavelengths
Number of Pixels in Spectrum: 1024
>>>>>Begin Spectral Data<<<<<
801.071	21873
801.214	21823
801.356	21473
801.499	21507
801.641	21230
801.783	21294
801.926	21313
802.068	21207
802.211	21123
802.353	21085
802.496	20849
802.638	20788
802.78	20762
802.923	20632
803.065	20530
803.208	20454
803.35	20564
803.492	20663
803.635	20754
803.777	20598
803.919	20663
804.061	20944
804.204	20644
804.346	20541
804.488	20568
804.63	20556
804.773	20613
804.915	20434
805.057	20609
805.199	20465
805.341	20632
805.483	20587
805.626	20568
805.768	20328
805.91	20537
806.052	20583
806.194	20488
806.336	20537
806.478	20495
806.62	20450
806.762	20678
806.904	20686
807.046	20891
807.188	20788
807.33	20857
807.472	20834
807.614	20807
807.756	20667
807.898	20617
808.04	20556
808.182	20644
808.324	20461
808.465	20617
808.607	20682
808.749	20868
808.891	20986
809.033	20986
809.174	20944
809.316	20899
809.458	20887
809.6	20849
809.741	20857
809.883	20933
810.025	20963
810.166	20994
810.308	20823
810.45	20925
810.591	20906
810.733	20716
810.875	20716
811.016	20461
811.158	20492
811.299	20632
811.441	20735
811.582	20739
811.724	20598
811.865	20625
812.007	20541
812.148	20621
812.29	20583
812.431	20785
812.573	20967
812.714	20906
812.855	21138
812.997	21169
813.138	21294
813.279	21138
813.421	21100
813.562	20883
813.703	20853
813.845	20804
813.986	20427
814.127	20320
814.268	20259
814.41	20263
814.551	20065
814.692	20016
814.833	20024
814.974	20065
815.115	20157
815.256	19909
815.397	20035
815.539	19967
815.68	19860
815.821	19845
815.962	19921
816.103	19807
816.244	19761
816.385	19529
816.526	19521
816.666	19426
816.807	19327
816.948	19343
817.089	19343
817.23	19384
817.371	19297
817.512	19293
817.653	19228
817.793	19362
817.934	19190
818.075	19384
818.216	19206
818.356	19194
818.497	19053
818.638	19004
818.778	19015
818.919	18920
819.06	19008
819.2	19012
819.341	19050
819.481	19027
819.622	19373
819.762	19502
819.903	19472
820.043	19392
820.184	19343
820.324	19236
820.465	19331
820.605	19270
820.746	19247
820.886	18943
821.026	19312
821.167	19282
821.307	19274
821.447	19088
821.588	19069
821.728	18920
821.868	18768
822.008	18719
822.149	18669
822.289	18612
822.429	18490
822.569	18426
822.709	18327
822.849	18152
822.99	18152
823.13	18102
823.27	18076
823.41	17927
823.55	17893
823.69	17984
823.83	18011
823.97	17885
824.11	17775
824.25	17714
824.389	17733
824.529	17798
824.669	17760
824.809	17752
824.949	17737
825.089	17710
825.228	17790
825.368	17486
825.508	17493
825.648	17509
825.787	17524
825.927	17543
826.067	17463
826.206	17543
826.346	17638
826.485	17497
826.625	17391
826.765	17676
826.904	17653
827.044	17307
827.183	17235
827.323	17067
827.462	17292
827.601	17151
827.741	17151
827.88	17269
828.02	17113
828.159	17189
828.298	17322
828.437	17261
828.577	17090
828.716	17341
828.855	17193
828.994	17006
829.134	16900
829.273	17048
829.412	17113
829.551	16915
829.69	17018
829.829	17018
829.968	17048
830.107	16999
830.246	16991
830.385	17010
830.524	16828
830.663	16778
830.802	16721
830.941	16603
831.08	16565
831.219	16622
831.357	16603
831.496	16809
831.635	16641
831.774	16542
831.913	16443
832.051	16356
832.19	16367
832.329	16424
832.467	16348
832.606	16257
832.744	16249
832.883	16246
833.022	16207
833.16	16276
833.299	16280
833.437	16356
833.576	16375
833.714	16367
833.852	16398
833.991	16360
834.129	16409
834.267	16413
834.406	16363
834.544	16478
834.682	16348
834.821	16337
834.959	16504
835.097	16322
835.235	16360
835.373	16276
835.511	16504
835.65	16223
835.788	16200
835.926	16059
836.064	16025
836.202	16128
836.34	16265
836.478	16352
836.615	16128
836.753	16276
836.891	16375
837.029	16230
837.167	16287
837.305	16204
837.443	16097
837.58	16154
837.718	16249
837.856	16211
837.993	16101
838.131	16181
838.269	16032
838.406	16150
838.544	15987
838.681	15873
838.819	15876
838.956	15701
839.094	15694
839.231	15724
839.369	15899
839.506	16116
839.643	15838
839.781	15698
839.918	15679
840.055	15766
840.193	15781
840.33	15694
840.467	15728
840.604	15728
840.742	16029
840.879	15622
841.016	15618
841.153	15709
841.29	15869
841.427	15675
841.564	15812
841.701	15873
841.838	15690
841.975	15625
842.112	15595
842.249	15424
842.385	15534
842.522	15637
842.659	15496
842.796	15462
842.933	15473
843.069	15481
843.206	15504
843.343	15682
843.479	15572
843.616	15591
843.752	15291
843.889	15233
844.025	15408
844.162	15203
844.298	15393
844.435	15230
844.571	15195
844.708	15359
844.844	15412
844.98	15439
845.117	15374
845.253	15211
845.389	15214
845.525	15169
845.661	15180
845.798	15119
845.934	15150
846.07	14998
846.206	15157
846.342	15173
846.478	15119
846.614	14857
846.75	14830
846.886	14861
847.022	14967
847.158	14811
847.294	14834
847.429	14933
847.565	14868
847.701	14975
847.837	14598
847.972	14583
848.108	14765
848.244	14716
848.379	14545
848.515	14450
848.65	14434
848.786	14495
848.921	14454
849.057	14583
849.192	14571
849.328	14492
849.463	14347
849.598	14362
849.734	14408
849.869	14366
850.004	14259
850.14	14301
850.275	14248
850.41	14168
850.545	14172
850.68	14168
850.815	14256
850.95	14267
851.085	14358
851.22	14320
851.355	14183
851.49	14157
851.625	14145
851.76	14305
851.895	14088
852.03	14054
852.165	14214
852.299	14320
852.434	14343
852.569	14183
852.703	14355
852.838	14358
852.973	14324
853.107	14545
853.242	14229
853.376	14138
853.511	14039
853.645	14016
853.78	14187
853.914	14096
854.048	14130
854.183	14001
854.317	14084
854.451	14259
854.585	14020
854.72	14119
854.854	14073
854.988	14073
855.122	14016
855.256	13925
855.39	14039
855.524	14164
855.658	14161
855.792	14096
855.926	14180
856.06	14088
856.194	14161
856.327	14100
856.461	14001
856.595	14031
856.729	14062
856.862	14210
856.996	14107
857.13	14225
857.263	14149
857.397	14267
857.53	14138
857.664	14092
857.797	14126
857.931	14275
858.064	14039
858.197	14244
858.331	14126
858.464	14153
858.597	14088
858.731	14058
858.864	14107
858.997	14100
859.13	14111
859.263	14092
859.396	14168
859.529	14043
859.662	14039
859.795	14073
859.928	14187
860.061	14267
860.194	14248
860.327	14084
860.46	14111
860.592	14195
860.725	14240
860.858	14149
860.99	14081
861.123	14008
861.256	14081
861.388	14065
861.521	14842
861.653	14016
861.786	13883
861.918	13928
862.05	14001
862.183	13909
862.315	14107
862.447	14115
862.58	14077
862.712	13879
862.844	13890
862.976	13955
863.108	13986
863.24	14244
863.372	13753
863.504	13811
863.636	13894
863.768	13902
863.9	13860
864.032	13807
864.164	13795
864.296	13947
864.428	14005
864.559	14039
864.691	13993
864.823	14024
864.954	13921
865.086	13868
865.217	13932
865.349	13833
865.48	13902
865.612	13963
865.743	14008
865.875	13890
866.006	13864
866.137	13883
866.269	13826
866.4	13864
866.531	13811
866.662	13780
866.793	13944
866.924	13868
867.055	13868
867.186	13841
867.317	13822
867.448	13849
867.579	13894
867.71	13784
867.841	13879
867.972	13944
868.103	13856
868.233	13761
868.364	14020
868.495	13993
868.625	14100
868.756	14187
868.886	13951
869.017	14134
869.147	14180
869.278	14221
869.408	14157
869.539	14130
869.669	14153
869.799	14138
869.929	14240
870.06	14210
870.19	14465
870.32	14423
870.45	14473
870.58	14541
870.71	14594
870.84	14625
870.97	14457
871.1	14495
871.23	14697
871.36	14754
871.489	14606
871.619	14716
871.749	14712
871.879	14754
872.008	14815
872.138	14754
872.267	14716
872.397	14537
872.526	14473
872.656	14583
872.785	14518
872.915	14693
873.044	14891
873.173	14762
873.303	14773
873.432	14781
873.561	14842
873.69	14701
873.819	14792
873.948	14891
874.077	14876
874.206	14811
874.335	14777
874.464	14998
874.593	15005
874.722	15017
874.851	15104
874.979	15116
875.108	15180
875.237	15055
875.365	15032
875.494	14967
875.623	15199
875.751	15070
875.88	15089
876.008	15230
876.136	15302
876.265	15591
876.393	15728
876.521	15549
876.65	15591
876.778	15542
876.906	15439
877.034	15507
877.162	15485
877.29	15397
877.418	15519
877.546	15538
877.674	15549
877.802	15526
877.93	15515
878.058	15386
878.185	15439
878.313	15526
878.441	15485
878.568	15351
878.696	15504
878.824	15580
878.951	15557
879.079	15656
879.206	15873
879.333	15686
879.461	15526
879.588	15618
879.715	15789
879.842	15766
879.97	15656
880.097	15363
880.224	15355
880.351	15370
880.478	15405
880.605	15279
880.732	15321
880.859	15576
880.986	15386
881.112	15302
881.239	15252
881.366	15192
881.493	15097
881.619	15058
881.746	15043
881.872	15070
881.999	14982
882.125	14929
882.252	15055
882.378	15047
882.505	15127
882.631	14998
882.757	14895
882.883	14921
883.01	14796
883.136	14830
883.262	14781
883.388	14651
883.514	14868
883.64	14849
883.766	14792
883.892	14678
884.018	14625
884.143	14914
884.269	14986
884.395	14648
884.52	14511
884.646	14556
884.772	14492
884.897	14374
885.023	14556
885.148	14735
885.274	14632
885.399	14697
885.524	14613
885.65	14552
885.775	14469
885.9	14514
886.025	14739
886.15	14613
886.275	14518
886.4	14377
886.525	14507
886.65	14415
886.775	14442
886.9	14648
887.025	14716
887.149	14560
887.274	14412
887.399	14347
887.523	14404
887.648	14366
887.773	14282
887.897	14621
888.021	14457
888.146	14301
888.27	14587
888.395	14446
888.519	14473
888.643	14431
888.767	14511
888.891	14370
889.015	14240
889.139	14237
889.263	14244
889.387	14362
889.511	14385
889.635	14404
889.759	14244
889.883	14294
890.006	14229
890.13	14343
890.254	14252
890.377	14237
890.501	14073
890.624	14100
890.748	14111
890.871	13887
890.995	13986
891.118	13887
891.241	13947
891.364	13997
891.488	14012
891.611	13955
891.734	13944
891.857	13959
891.98	13928
892.103	14024
892.226	14024
892.349	13936
892.471	13830
892.594	13883
892.717	13928
892.839	13967
892.962	13959
893.085	13986
893.207	13974
893.33	13818
893.452	13894
893.575	14035
893.697	13970
893.819	14069
893.941	14180
894.064	14119
894.186	14024
894.308	14012
894.43	14229
894.552	14126
894.674	14096
894.796	13967
894.918	14035
895.04	13955
895.161	14145
895.283	14065
895.405	14008
895.526	14092
895.648	14176
895.769	14058
895.891	14180
896.012	14237
896.134	14229
896.255	14130
896.376	14115
896.498	14313
896.619	14088
896.74	14069
896.861	14229
896.982	14533
897.103	14701
897.224	14522
897.345	14408
897.466	14343
897.587	14419
897.708	14583
897.828	14461
897.949	14396
898.07	14286
898.19	14423
898.311	14522
898.431	14537
898.552	14492
898.672	14511
898.792	14674
898.913	14533
899.033	14427
899.153	14358
899.273	14381
899.393	14381
899.513	14393
899.633	14362
899.753	14423
899.873	14313
899.993	14457
900.113	14343
900.232	14438
900.352	14377
900.472	14252
900.591	14187
900.711	14244
900.83	14138
900.95	14324
901.069	14366
901.189	14092
901.308	13913
901.427	13868
901.546	13963
901.665	13845
901.784	13860
901.904	13750
902.023	13856
902.141	13521
902.26	13460
902.379	13586
902.498	13533
902.617	13411
902.735	13476
902.854	13483
902.973	13373
903.091	13232
903.21	13198
903.328	13221
903.446	13118
903.565	13076
903.683	13027
903.801	12996
903.919	13061
904.038	13019
904.156	12886
904.274	12905
904.392	12802
904.51	12798
904.627	12859
904.745	12886
904.863	12924
904.981	12631
905.098	12536
905.216	12574
905.334	12582
905.451	12578
905.569	12498
905.686	12654
905.803	12521
905.921	12422
906.038	12399
906.155	12357
906.272	12258
906.389	12319
906.506	12144
906.623	12190
906.74	12087
906.857	12057
906.974	12019
907.091	12262
907.208	12319
907.324	12270
907.441	12049
907.557	11870
907.674	11893
907.79	11859
907.907	11897
908.023	11916
908.139	11935
908.256	11832
908.372	11813
908.488	11802
908.604	11695
908.72	11672
908.836	11668
908.952	11672
909.068	11653
909.184	11771
909.3	11646
909.415	11672
909.531	11653
909.647	11444
909.762	11414
909.878	11433
909.993	11463
910.108	11421
910.224	11383
910.339	11440
910.454	11303
910.57	11322
910.685	11181
910.8	11497
910.915	11391
911.03	11284
911.145	11170
911.259	11162
911.374	11140
911.489	11071
911.604	10919
911.718	10824
911.833	10938
911.947	10831
912.062	10786
912.176	10831
912.291	10991
912.405	10927
912.519	11006
912.633	11086
912.748	10881
912.862	10892
912.976	10835
913.09	10679
913.204	10721
913.318	10740
913.431	10946
913.545	10896
913.659	10923
913.772	10828
913.886	10622
914	10626
914.113	10793
914.226	10839
914.34	10744
914.453	10618
914.566	10733
914.68	10634
914.793	10558
914.906	10459
915.019	10318
915.132	10299
915.245	10367
915.358	10413
915.47	10363
915.583	10440
915.696	10485
915.809	10683
915.921	10565
916.034	10485
916.146	10299
916.259	10466
916.371	10402
916.483	10440
916.595	10344
916.708	10398
916.82	10344
916.932	10363
917.044	10341
917.156	10379
917.268	10227
917.38	10173
917.491	10306
917.603	10181
917.715	10329
917.826	10268
917.938	10158
918.049	10147
918.161	10204
918.272	10413
918.384	10402
918.495	10227
918.606	10078
918.717	10093
918.828	10143
918.939	10139
919.05	10048
919.161	10051
919.272	9907
919.383	10013
919.494	10177
919.604	10398
919.715	10169
919.826	10010
919.936	10109
920.047	10287
920.157	10154
920.267	10375
920.378	10227
920.488	10116
920.598	10333
920.708	10504
920.818	10284
920.928	10268
921.038	10500
921.148	10417
921.258	10257
921.368	10055
921.477	10090
921.587	9983
921.697	9819
921.806	9960
921.916	9926
922.025	9759
922.134	9781
922.244	9717
922.353	9793
922.462	9705
922.571	9504
922.68	9431
922.789	9370
922.898	9412
923.007	9367
923.116	9477
923.224	9359
923.333	9412
923.442	9302
923.55	9256
923.659	9313
923.767	9378
923.876	9302
923.984	9351
924.092	9287
924.201	9249
924.309	9283
924.417	9218
924.525	9211
924.633	9264
924.741	9941
924.849	9024
924.956	9135
925.064	9043
925.172	8990
925.279	9077
925.387	9047
925.494	9097
925.602	9180
925.709	9211
925.816	9020
925.924	9058
926.031	9154
926.138	9127
926.245	9119
926.352	9036
926.459	9214
926.566	9260
926.673	9039
926.779	8899
926.886	8925
926.993	8800
927.099	8781
927.206	8674
927.312	8807
927.419	8891
927.525	8887
927.631	8811
927.737	8686
927.843	8655
927.95	8579
928.056	8701
928.162	8701
928.267	8727
928.373	9249
928.479	8792
928.585	8492
928.69	8705
928.796	8697
928.901	8564
929.007	8442
929.112	8655
929.218	8594
929.323	8499
929.428	8488
929.533	8632
929.638	8415
929.743	8526
929.848	8587
929.953	8431
930.058	8336
930.163	8199
930.267	8279
930.372	8419
930.477	8263
930.581	8446
930.685	8317
930.79	8191
930.894	8183
930.998	8161
931.103	8358
931.207	8016
931.311	7947
931.415	7871
931.519	7803
931.623	7723
