Data from test_V78500241_1833.txt Node
Date: Fri Mar 25 14:46:28 CST 2022
User: usil
Spectrometer: V785-0024
Trigger mode: 0
Integration Time (sec): 4.000000E-1
Scans to average: 1
Nonlinearity correction enabled: false
Boxcar width: 0
Storing dark spectrum: false
XAxis mode: Wavelengths
Number of Pixels in Spectrum: 1024
>>>>>Begin Spectral Data<<<<<
801.071	22090
801.214	22063
801.356	21827
801.499	21663
801.641	21603
801.783	21572
801.926	21542
802.068	21420
802.211	21344
802.353	21260
802.496	21180
802.638	21001
802.78	21058
802.923	20975
803.065	20826
803.208	20826
803.35	20853
803.492	20982
803.635	20986
803.777	20887
803.919	20979
804.061	21127
804.204	20899
804.346	20773
804.488	20727
804.63	20834
804.773	20762
804.915	20663
805.057	20899
805.199	20853
805.341	20727
805.483	20830
805.626	20758
805.768	20838
805.91	20792
806.052	20773
806.194	20648
806.336	20910
806.478	20872
806.62	20629
806.762	20899
806.904	20925
807.046	21184
807.188	21108
807.33	21024
807.472	21260
807.614	20986
807.756	21108
807.898	20967
808.04	20754
808.182	20807
808.324	20823
808.465	20876
808.607	21013
808.749	21119
808.891	21287
809.033	21214
809.174	21275
809.316	21199
809.458	21161
809.6	21043
809.741	21119
809.883	21222
810.025	21306
810.166	21233
810.308	21294
810.45	21329
810.591	21165
810.733	21017
810.875	20937
811.016	20853
811.158	20826
811.299	20986
811.441	21020
811.582	21001
811.724	20872
811.865	20902
812.007	20952
812.148	20754
812.29	20982
812.431	21024
812.573	21161
812.714	21287
812.855	21435
812.997	21530
813.138	21656
813.279	21564
813.421	21462
813.562	21359
813.703	21233
813.845	20986
813.986	20826
814.127	20571
814.268	20564
814.41	20507
814.551	20507
814.692	20541
814.833	20461
814.974	20457
815.115	20533
815.256	20336
815.397	20332
815.539	20305
815.68	20221
815.821	20119
815.962	20275
816.103	20263
816.244	20065
816.385	19993
816.526	19913
816.666	19727
816.807	19620
816.948	19731
817.089	19814
817.23	19708
817.371	19590
817.512	19586
817.653	19563
817.793	19506
817.934	19575
818.075	19506
818.216	19605
818.356	19635
818.497	19381
818.638	19278
818.778	19365
818.919	19346
819.06	19354
819.2	19407
819.341	19430
819.481	19533
819.622	19590
819.762	19780
819.903	19750
820.043	19613
820.184	19655
820.324	19506
820.465	19681
820.605	19575
820.746	19495
820.886	19472
821.026	19556
821.167	19563
821.307	19662
821.447	19559
821.588	19327
821.728	19343
821.868	19221
822.008	19053
822.149	18996
822.289	19065
822.429	18749
822.569	18711
822.709	18760
822.849	18608
822.99	18570
823.13	18384
823.27	18384
823.41	18270
823.55	18205
823.69	18239
823.83	18277
823.97	18155
824.11	18110
824.25	18011
824.389	18007
824.529	18102
824.669	18076
824.809	18159
824.949	18045
825.089	18064
825.228	18114
825.368	17832
825.508	17920
825.648	17805
825.787	17901
825.927	17980
826.067	17836
826.206	17817
826.346	17817
826.485	17897
826.625	17855
826.765	17863
826.904	17786
827.044	17646
827.183	17554
827.323	17573
827.462	17600
827.601	17509
827.741	17554
827.88	17493
828.02	17539
828.159	17463
828.298	17478
828.437	17486
828.577	17482
828.716	17684
828.855	17455
828.994	17261
829.134	17311
829.273	17280
829.412	17239
829.551	17254
829.69	17216
829.829	17212
829.968	17372
830.107	17288
830.246	17280
830.385	17303
830.524	17189
830.663	17086
830.802	17010
830.941	16892
831.08	16896
831.219	17003
831.357	16965
831.496	17090
831.635	16869
831.774	16816
831.913	16782
832.051	16592
832.19	16748
832.329	16755
832.467	16721
832.606	16611
832.744	16584
832.883	16558
833.022	16603
833.16	16584
833.299	16668
833.437	16607
833.576	16603
833.714	16702
833.852	16721
833.991	16592
834.129	16755
834.267	16702
834.406	16733
834.544	16675
834.682	16672
834.821	16573
834.959	16824
835.097	16702
835.235	16675
835.373	16713
835.511	16607
835.65	16527
835.788	16519
835.926	16356
836.064	16402
836.202	16322
836.34	16558
836.478	16668
836.615	16421
836.753	16615
836.891	16641
837.029	16641
837.167	16592
837.305	16489
837.443	16459
837.58	16352
837.718	16577
837.856	16531
837.993	16352
838.131	16367
838.269	16295
838.406	16379
838.544	16360
838.681	16268
838.819	16223
838.956	15994
839.094	15983
839.231	16051
839.369	16048
839.506	16356
839.643	16291
839.781	15930
839.918	15953
840.055	15983
840.193	16021
840.33	15915
840.467	15808
840.604	16093
840.742	16188
840.879	15899
841.016	15915
841.153	15926
841.29	16105
841.427	16002
841.564	16055
841.701	15972
841.838	15975
841.975	15903
842.112	15838
842.249	15785
842.385	15732
842.522	15915
842.659	15766
842.796	15781
842.933	15800
843.069	15675
843.206	15808
843.343	15865
843.479	15778
843.616	15819
843.752	15553
843.889	15549
844.025	15686
844.162	15538
844.298	15705
844.435	15507
844.571	15523
844.708	15618
844.844	15610
844.98	15694
845.117	15679
845.253	15500
845.389	15431
845.525	15431
845.661	15469
845.798	15340
845.934	15416
846.07	15199
846.206	15412
846.342	15519
846.478	15367
846.614	15211
846.75	15055
846.886	15127
847.022	15230
847.158	15169
847.294	15249
847.429	15108
847.565	15055
847.701	15275
847.837	14933
847.972	14887
848.108	15013
848.244	14921
848.379	14796
848.515	14746
848.65	14754
848.786	14746
848.921	14830
849.057	14800
849.192	14724
849.328	14762
849.463	14724
849.598	14743
849.734	14678
849.869	14644
850.004	14457
850.14	14442
850.275	14537
850.41	14419
850.545	14442
850.68	14461
850.815	14507
850.95	14389
851.085	14590
851.22	14587
851.355	14438
851.49	14431
851.625	14480
851.76	14457
851.895	14396
852.03	14324
852.165	14408
852.299	14499
852.434	14568
852.569	14537
852.703	14507
852.838	14556
852.973	14583
853.107	14560
853.242	14408
853.376	14313
853.511	14229
853.645	14328
853.78	14476
853.914	14339
854.048	14358
854.183	14324
854.317	14434
854.451	14446
854.585	14286
854.72	14339
854.854	14442
854.988	14282
855.122	14328
855.256	14271
855.39	14309
855.524	14457
855.658	14370
855.792	14461
855.926	14275
856.06	14336
856.194	14533
856.327	14355
856.461	14301
856.595	14244
856.729	14252
856.862	14495
856.996	14244
857.13	14438
857.263	14442
857.397	14473
857.53	14366
857.664	14366
857.797	14427
857.931	14415
858.064	14294
858.197	14552
858.331	14355
858.464	14358
858.597	14100
858.731	14415
858.864	14248
858.997	14317
859.13	14355
859.263	14351
859.396	14423
859.529	14320
859.662	14351
859.795	14259
859.928	14465
860.061	14560
860.194	14564
860.327	14412
860.46	14366
860.592	14530
860.725	14450
860.858	14514
860.99	14374
861.123	14294
861.256	14309
861.388	14294
861.521	15009
861.653	14244
861.786	14107
861.918	14256
862.05	14309
862.183	14400
862.315	14290
862.447	14446
862.58	14336
862.712	14142
862.844	14062
862.976	14290
863.108	14301
863.24	14473
863.372	14050
863.504	14096
863.636	14149
863.768	14252
863.9	14202
864.032	14069
864.164	14092
864.296	14229
864.428	14248
864.559	14221
864.691	14206
864.823	14218
864.954	14157
865.086	14157
865.217	14103
865.349	14062
865.48	14062
865.612	14278
865.743	14282
865.875	14123
866.006	14103
866.137	14100
866.269	14084
866.4	14046
866.531	14100
866.662	14020
866.793	14050
866.924	14065
867.055	14191
867.186	14046
867.317	14100
867.448	14111
867.579	14187
867.71	14027
867.841	13997
867.972	14210
868.103	14172
868.233	14191
868.364	14103
868.495	14134
868.625	14339
868.756	14469
868.886	14199
869.017	14298
869.147	14499
869.278	14457
869.408	14389
869.539	14427
869.669	14473
869.799	14362
869.929	14488
870.06	14560
870.19	14724
870.32	14735
870.45	14686
870.58	14785
870.71	14960
870.84	14800
870.97	14769
871.1	14765
871.23	14914
871.36	14925
871.489	14792
871.619	14956
871.749	14960
871.879	15020
872.008	15131
872.138	14925
872.267	14941
872.397	14887
872.526	14792
872.656	14769
872.785	14861
872.915	15028
873.044	15081
873.173	14960
873.303	14982
873.432	14994
873.561	15108
873.69	15001
873.819	15017
873.948	15150
874.077	15043
874.206	15081
874.335	15089
874.464	15039
874.593	15302
874.722	15226
874.851	15382
874.979	15344
875.108	15431
875.237	15252
875.365	15241
875.494	15291
875.623	15313
875.751	15252
875.88	15393
876.008	15454
876.136	15568
876.265	15819
876.393	15819
876.521	15800
876.65	15778
876.778	15812
876.906	15705
877.034	15610
877.162	15751
877.29	15732
877.418	15819
877.546	15705
877.674	15682
877.802	15694
877.93	15724
878.058	15606
878.185	15663
878.313	15667
878.441	15751
878.568	15648
878.696	15641
878.824	15713
878.951	15835
879.079	15956
879.206	16032
879.333	15857
879.461	15827
879.588	15804
879.715	15922
879.842	15987
879.97	15819
880.097	15641
880.224	15603
880.351	15584
880.478	15644
880.605	15568
880.732	15652
880.859	15762
880.986	15679
881.112	15618
881.239	15428
881.366	15325
881.493	15256
881.619	15203
881.746	15329
881.872	15321
881.999	15142
882.125	15260
882.252	15344
882.378	15310
882.505	15393
882.631	15249
882.757	15039
882.883	15112
883.01	15119
883.136	14921
883.262	14857
883.388	14929
883.514	15055
883.64	15119
883.766	15062
883.892	14842
884.018	15005
884.143	15123
884.269	15173
884.395	14792
884.52	14762
884.646	14743
884.772	14708
884.897	14648
885.023	14811
885.148	14804
885.274	14914
885.399	14895
885.524	14773
885.65	14785
885.775	14750
885.9	14727
886.025	14880
886.15	14807
886.275	14712
886.4	14651
886.525	14731
886.65	14720
886.775	14727
886.9	14918
887.025	14910
887.149	14727
887.274	14625
887.399	14480
887.523	14648
887.648	14621
887.773	14575
887.897	14705
888.021	14765
888.146	14514
888.27	14606
888.395	14750
888.519	14735
888.643	14655
888.767	14670
888.891	14480
889.015	14442
889.139	14446
889.263	14419
889.387	14583
889.511	14613
889.635	14549
889.759	14408
889.883	14431
890.006	14431
890.13	14587
890.254	14328
890.377	14377
890.501	14267
890.624	14271
890.748	14362
890.871	14214
890.995	14100
891.118	14077
891.241	14126
891.364	14202
891.488	14305
891.611	14180
891.734	14035
891.857	14290
891.98	14191
892.103	14252
892.226	14142
892.349	14157
892.471	13970
892.594	14138
892.717	14145
892.839	14187
892.962	14092
893.085	14134
893.207	14176
893.33	14103
893.452	14092
893.575	14221
893.697	14103
893.819	14252
893.941	14347
894.064	14324
894.186	14119
894.308	14138
894.43	14256
894.552	14374
894.674	14267
894.796	14183
894.918	14195
895.04	14244
895.161	14358
895.283	14221
895.405	14244
895.526	14202
895.648	14233
895.769	14256
895.891	14332
896.012	14286
896.134	14381
896.255	14347
896.376	14267
896.498	14298
896.619	14396
896.74	14324
896.861	14427
896.982	14705
897.103	14823
897.224	14697
897.345	14503
897.466	14587
897.587	14655
897.708	14674
897.828	14701
897.949	14659
898.07	14431
898.19	14552
898.311	14792
898.431	14598
898.552	14648
898.672	14716
898.792	14762
898.913	14739
899.033	14613
899.153	14549
899.273	14457
899.393	14590
899.513	14518
899.633	14568
899.753	14587
899.873	14415
899.993	14522
900.113	14549
900.232	14598
900.352	14366
900.472	14438
900.591	14332
900.711	14434
900.83	14271
900.95	14469
901.069	14457
901.189	14275
901.308	14180
901.427	13974
901.546	14161
901.665	14218
901.784	14134
901.904	13936
902.023	13860
902.141	13700
902.26	13651
902.379	13715
902.498	13620
902.617	13658
902.735	13670
902.854	13590
902.973	13567
903.091	13312
903.21	13263
903.328	13377
903.446	13308
903.565	13232
903.683	13263
903.801	13076
903.919	13171
904.038	13137
904.156	12977
904.274	13080
904.392	12981
904.51	13031
904.627	12989
904.745	12993
904.863	13034
904.981	12787
905.098	12673
905.216	12719
905.334	12741
905.451	12711
905.569	12681
905.686	12734
905.803	12722
905.921	12532
906.038	12566
906.155	12551
906.272	12391
906.389	12525
906.506	12353
906.623	12232
906.74	12270
906.857	12197
906.974	12155
907.091	12391
907.208	12475
907.324	12304
907.441	12228
907.557	12057
907.674	12087
907.79	11904
907.907	11954
908.023	12026
908.139	12060
908.256	12007
908.372	11988
908.488	12079
908.604	11805
908.72	11798
908.836	11836
908.952	11718
909.068	11851
909.184	11866
909.3	11851
909.415	11843
909.531	11840
909.647	11558
909.762	11551
909.878	11623
909.993	11611
910.108	11554
910.224	11573
910.339	11589
910.454	11501
910.57	11463
910.685	11296
910.8	11577
910.915	11573
911.03	11493
911.145	11269
911.259	11307
911.374	11277
911.489	11155
911.604	11060
911.718	11048
911.833	10999
911.947	10949
912.062	10869
912.176	11071
912.291	11048
912.405	11052
912.519	11315
912.633	11204
912.748	11136
912.862	11033
912.976	10942
913.09	10786
913.204	10774
913.318	10972
913.431	11090
913.545	10972
913.659	11029
913.772	10908
913.886	10847
914	10778
914.113	10831
914.226	10877
914.34	10877
914.453	10691
914.566	10820
914.68	10782
914.793	10721
914.906	10599
915.019	10535
915.132	10497
915.245	10519
915.358	10538
915.47	10558
915.583	10637
915.696	10577
915.809	10668
915.921	10618
916.034	10508
916.146	10428
916.259	10478
916.371	10546
916.483	10493
916.595	10360
916.708	10451
916.82	10481
916.932	10447
917.044	10485
917.156	10436
917.268	10386
917.38	10405
917.491	10348
917.603	10367
917.715	10360
917.826	10478
917.938	10352
918.049	10246
918.161	10402
918.272	10535
918.384	10519
918.495	10417
918.606	10215
918.717	10204
918.828	10261
918.939	10238
919.05	10162
919.161	10192
919.272	10093
919.383	10086
919.494	10246
919.604	10386
919.715	10348
919.826	10139
919.936	10204
920.047	10363
920.157	10265
920.267	10417
920.378	10310
920.488	10196
920.598	10455
920.708	10611
920.818	10417
920.928	10470
921.038	10584
921.148	10554
921.258	10341
921.368	10227
921.477	10063
921.587	10162
921.697	9987
921.806	10215
921.916	10017
922.025	9857
922.134	9823
922.244	9660
922.353	9778
922.462	9671
922.571	9652
922.68	9507
922.789	9511
922.898	9526
923.007	9450
923.116	9477
923.224	9485
923.333	9530
923.442	9382
923.55	9408
923.659	9332
923.767	9447
923.876	9340
923.984	9458
924.092	9321
924.201	9283
924.309	9382
924.417	9401
924.525	9310
924.633	9359
924.741	10200
924.849	9108
924.956	9302
925.064	9184
925.172	9074
925.279	9097
925.387	9165
925.494	9188
925.602	9294
925.709	9192
925.816	9089
925.924	9161
926.031	9275
926.138	9135
926.245	9233
926.352	9108
926.459	9214
926.566	9192
926.673	9093
926.779	8979
926.886	9039
926.993	8956
927.099	8834
927.206	8777
927.312	8792
927.419	8933
927.525	8883
927.631	8986
927.737	8773
927.843	8731
927.95	8629
928.056	8670
928.162	8834
928.267	8815
928.373	9306
928.479	8914
928.585	8670
928.69	8754
928.796	8819
928.901	8659
929.007	8545
929.112	8670
929.218	8564
929.323	8629
929.428	8579
929.533	8716
929.638	8583
929.743	8503
929.848	8644
929.953	8537
930.058	8461
930.163	8385
930.267	8332
930.372	8507
930.477	8313
930.581	8587
930.685	8454
930.79	8313
930.894	8336
930.998	8298
931.103	8461
931.207	8081
931.311	8088
931.415	7951
931.519	7788
931.623	7811
