Data from test_V78500241_2742.txt Node
Date: Fri Mar 25 14:52:48 CST 2022
User: usil
Spectrometer: V785-0024
Trigger mode: 0
Integration Time (sec): 4.000000E-1
Scans to average: 1
Nonlinearity correction enabled: false
Boxcar width: 0
Storing dark spectrum: false
XAxis mode: Wavelengths
Number of Pixels in Spectrum: 1024
>>>>>Begin Spectral Data<<<<<
801.071	22048
801.214	22055
801.356	21675
801.499	21572
801.641	21473
801.783	21504
801.926	21534
802.068	21408
802.211	21348
802.353	21275
802.496	21001
802.638	20990
802.78	20872
802.923	20807
803.065	20705
803.208	20629
803.35	20773
803.492	20925
803.635	20781
803.777	20800
803.919	20815
804.061	21100
804.204	20796
804.346	20777
804.488	20735
804.63	20697
804.773	20564
804.915	20682
805.057	20621
805.199	20629
805.341	20769
805.483	20777
805.626	20667
805.768	20564
805.91	20617
806.052	20739
806.194	20625
806.336	20758
806.478	20629
806.62	20625
806.762	20724
806.904	20899
807.046	21036
807.188	20883
807.33	21017
807.472	21119
807.614	20834
807.756	20933
807.898	20727
808.04	20788
808.182	20769
808.324	20712
808.465	20743
808.607	20804
808.749	21013
808.891	21116
809.033	21287
809.174	21024
809.316	21009
809.458	21070
809.6	20941
809.741	21131
809.883	20979
810.025	21256
810.166	21138
810.308	21188
810.45	21173
810.591	20967
810.733	20842
810.875	20887
811.016	20739
811.158	20640
811.299	20800
811.441	20891
811.582	20857
811.724	20720
811.865	20849
812.007	20754
812.148	20739
812.29	20838
812.431	20952
812.573	21043
812.714	21176
812.855	21260
812.997	21310
813.138	21511
813.279	21363
813.421	21306
813.562	21268
813.703	20998
813.845	20975
813.986	20613
814.127	20549
814.268	20385
814.41	20370
814.551	20332
814.692	20396
814.833	20237
814.974	20290
815.115	20298
815.256	20237
815.397	20199
815.539	20176
815.68	20058
815.821	19986
815.962	20062
816.103	19986
816.244	19887
816.385	19765
816.526	19833
816.666	19643
816.807	19419
816.948	19468
817.089	19487
817.23	19529
817.371	19502
817.512	19434
817.653	19445
817.793	19369
817.934	19430
818.075	19411
818.216	19460
818.356	19453
818.497	19171
818.638	19114
818.778	19148
818.919	19027
819.06	19152
819.2	19194
819.341	19335
819.481	19316
819.622	19422
819.762	19689
819.903	19582
820.043	19499
820.184	19426
820.324	19514
820.465	19506
820.605	19411
820.746	19354
820.886	19270
821.026	19407
821.167	19270
821.307	19369
821.447	19335
821.588	19240
821.728	19080
821.868	18989
822.008	18867
822.149	18817
822.289	18753
822.429	18642
822.569	18494
822.709	18525
822.849	18319
822.99	18350
823.13	18361
823.27	18262
823.41	18235
823.55	18136
823.69	18087
823.83	18148
823.97	18106
824.11	17897
824.25	17882
824.389	17946
824.529	17935
824.669	17935
824.809	17935
824.949	17992
825.089	17950
825.228	17950
825.368	17707
825.508	17786
825.648	17798
825.787	17726
825.927	17752
826.067	17676
826.206	17684
826.346	17661
826.485	17802
826.625	17752
826.765	17764
826.904	17832
827.044	17512
827.183	17440
827.323	17220
827.462	17581
827.601	17379
827.741	17372
827.88	17364
828.02	17258
828.159	17341
828.298	17429
828.437	17509
828.577	17337
828.716	17467
828.855	17292
828.994	17124
829.134	17090
829.273	17102
829.412	17174
829.551	17056
829.69	17151
829.829	17067
829.968	17231
830.107	17273
830.246	17178
830.385	17086
830.524	17037
830.663	17086
830.802	16839
830.941	16752
831.08	16660
831.219	16915
831.357	16805
831.496	16927
831.635	16740
831.774	16679
831.913	16713
832.051	16607
832.19	16481
832.329	16550
832.467	16440
832.606	16390
832.744	16356
832.883	16493
833.022	16443
833.16	16382
833.299	16478
833.437	16504
833.576	16546
833.714	16550
833.852	16649
833.991	16554
834.129	16626
834.267	16493
834.406	16626
834.544	16573
834.682	16512
834.821	16470
834.959	16675
835.097	16402
835.235	16546
835.373	16736
835.511	16558
835.65	16417
835.788	16375
835.926	16272
836.064	16185
836.202	16322
836.34	16455
836.478	16474
836.615	16455
836.753	16440
836.891	16485
837.029	16440
837.167	16325
837.305	16348
837.443	16356
837.58	16306
837.718	16386
837.856	16398
837.993	16219
838.131	16268
838.269	16249
838.406	16188
838.544	16204
838.681	16029
838.819	15960
838.956	15865
839.094	15930
839.231	15876
839.369	16002
839.506	16291
839.643	16051
839.781	15850
839.918	15819
840.055	15915
840.193	15762
840.33	15713
840.467	15835
840.604	15911
840.742	16101
840.879	15747
841.016	15770
841.153	15766
841.29	15964
841.427	15903
841.564	15945
841.701	15865
841.838	15880
841.975	15720
842.112	15838
842.249	15637
842.385	15610
842.522	15861
842.659	15679
842.796	15584
842.933	15625
843.069	15591
843.206	15641
843.343	15698
843.479	15701
843.616	15709
843.752	15454
843.889	15386
844.025	15488
844.162	15454
844.298	15580
844.435	15435
844.571	15386
844.708	15435
844.844	15538
844.98	15572
845.117	15504
845.253	15348
845.389	15378
845.525	15348
845.661	15412
845.798	15207
845.934	15302
846.07	15165
846.206	15332
846.342	15351
846.478	15150
846.614	15119
846.75	15032
846.886	14944
847.022	15100
847.158	14986
847.294	15104
847.429	15043
847.565	14979
847.701	15142
847.837	14769
847.972	14777
848.108	14792
848.244	14895
848.379	14648
848.515	14545
848.65	14492
848.786	14556
848.921	14590
849.057	14758
849.192	14743
849.328	14670
849.463	14560
849.598	14492
849.734	14492
849.869	14495
850.004	14355
850.14	14446
850.275	14434
850.41	14282
850.545	14328
850.68	14313
850.815	14355
850.95	14237
851.085	14552
851.22	14358
851.355	14396
851.49	14286
851.625	14229
851.76	14294
851.895	14164
852.03	14149
852.165	14328
852.299	14404
852.434	14438
852.569	14377
852.703	14332
852.838	14389
852.973	14499
853.107	14499
853.242	14290
853.376	14278
853.511	14172
853.645	14107
853.78	14415
853.914	14298
854.048	14218
854.183	14202
854.317	14229
854.451	14408
854.585	14259
854.72	14244
854.854	14309
854.988	14145
855.122	14126
855.256	14103
855.39	14237
855.524	14259
855.658	14237
855.792	14317
855.926	14320
856.06	14271
856.194	14381
856.327	14237
856.461	14199
856.595	14199
856.729	14199
856.862	14183
856.996	14240
857.13	14343
857.263	14362
857.397	14381
857.53	14218
857.664	14256
857.797	14343
857.931	14271
858.064	14244
858.197	14412
858.331	14244
858.464	14164
858.597	14092
858.731	14259
858.864	14172
858.997	14225
859.13	14347
859.263	14252
859.396	14290
859.529	14313
859.662	14161
859.795	14259
859.928	14336
860.061	14450
860.194	14385
860.327	14267
860.46	14214
860.592	14381
860.725	14415
860.858	14377
860.99	14233
861.123	14058
861.256	14187
861.388	14267
861.521	14880
861.653	14103
861.786	14065
861.918	14119
862.05	14077
862.183	14180
862.315	14221
862.447	14244
862.58	14149
862.712	13970
862.844	13959
862.976	14107
863.108	14065
863.24	14476
863.372	13997
863.504	13982
863.636	14024
863.768	14054
863.9	14077
864.032	14024
864.164	13887
864.296	14050
864.428	14103
864.559	14195
864.691	14081
864.823	14073
864.954	14016
865.086	14046
865.217	13993
865.349	13963
865.48	13959
865.612	13993
865.743	14012
865.875	14001
866.006	13982
866.137	14005
866.269	13982
866.4	13997
866.531	13986
866.662	13902
866.793	13898
866.924	14024
867.055	13967
867.186	13932
867.317	13913
867.448	13917
867.579	14024
867.71	13883
867.841	13921
867.972	14027
868.103	14054
868.233	14012
868.364	14020
868.495	14046
868.625	14278
868.756	14282
868.886	14240
869.017	14206
869.147	14381
869.278	14320
869.408	14267
869.539	14225
869.669	14347
869.799	14168
869.929	14396
870.06	14313
870.19	14579
870.32	14556
870.45	14598
870.58	14682
870.71	14705
870.84	14670
870.97	14602
871.1	14613
871.23	14891
871.36	14826
871.489	14785
871.619	14796
871.749	14834
871.879	14853
872.008	14952
872.138	14906
872.267	14838
872.397	14712
872.526	14754
872.656	14731
872.785	14853
872.915	14830
873.044	14994
873.173	14765
873.303	14925
873.432	14975
873.561	14937
873.69	14944
873.819	14918
873.948	14998
874.077	14925
874.206	14902
874.335	14990
874.464	14990
874.593	15188
874.722	15116
874.851	15249
874.979	15233
875.108	15245
875.237	15146
875.365	15077
875.494	15165
875.623	15317
875.751	15150
875.88	15348
876.008	15405
876.136	15454
876.265	15606
876.393	15743
876.521	15713
876.65	15755
876.778	15591
876.906	15641
877.034	15538
877.162	15553
877.29	15595
877.418	15686
877.546	15625
877.674	15511
877.802	15534
877.93	15675
878.058	15553
878.185	15477
878.313	15568
878.441	15603
878.568	15447
878.696	15629
878.824	15580
878.951	15686
879.079	15804
879.206	15975
879.333	15778
879.461	15633
879.588	15724
879.715	15781
879.842	15911
879.97	15667
880.097	15485
880.224	15473
880.351	15530
880.478	15511
880.605	15488
880.732	15477
880.859	15701
880.986	15584
881.112	15473
881.239	15412
881.366	15260
881.493	15268
881.619	15123
881.746	15116
881.872	15165
881.999	15154
882.125	15146
882.252	15146
882.378	15116
882.505	15256
882.631	15100
882.757	14853
882.883	15070
883.01	14948
883.136	14815
883.262	14895
883.388	14804
883.514	15013
883.64	15058
883.766	14929
883.892	14861
884.018	14792
884.143	14986
884.269	15051
884.395	14762
884.52	14682
884.646	14651
884.772	14594
884.897	14587
885.023	14708
885.148	14758
885.274	14849
885.399	14705
885.524	14735
885.65	14667
885.775	14769
885.9	14621
886.025	14792
886.15	14701
886.275	14708
886.4	14560
886.525	14648
886.65	14625
886.775	14564
886.9	14765
887.025	14887
887.149	14606
887.274	14507
887.399	14450
887.523	14408
887.648	14408
887.773	14503
887.897	14476
888.021	14549
888.146	14423
888.27	14571
888.395	14617
888.519	14530
888.643	14560
888.767	14526
888.891	14385
889.015	14336
889.139	14374
889.263	14267
889.387	14537
889.511	14617
889.635	14473
889.759	14328
889.883	14298
890.006	14324
890.13	14469
890.254	14259
890.377	14301
890.501	14126
890.624	14195
890.748	14142
890.871	14145
890.995	14077
891.118	13928
891.241	14043
891.364	14126
891.488	14142
891.611	14043
891.734	14035
891.857	14153
891.98	14065
892.103	14073
892.226	14100
892.349	14058
892.471	13841
892.594	14005
892.717	14016
892.839	14039
892.962	13970
893.085	14081
893.207	14046
893.33	13974
893.452	13898
893.575	14187
893.697	13997
893.819	14180
893.941	14233
894.064	14244
894.186	13967
894.308	14005
894.43	14168
894.552	14233
894.674	14214
894.796	13963
894.918	14164
895.04	14100
895.161	14134
895.283	14168
895.405	14016
895.526	14187
895.648	14183
895.769	14153
895.891	14290
896.012	14324
896.134	14278
896.255	14214
896.376	14259
896.498	14210
896.619	14301
896.74	14225
896.861	14339
896.982	14590
897.103	14727
897.224	14507
897.345	14480
897.466	14355
897.587	14461
897.708	14632
897.828	14461
897.949	14446
898.07	14446
898.19	14495
898.311	14720
898.431	14556
898.552	14579
898.672	14644
898.792	14621
898.913	14629
899.033	14571
899.153	14389
899.273	14305
899.393	14499
899.513	14389
899.633	14469
899.753	14396
899.873	14362
899.993	14457
900.113	14389
900.232	14450
900.352	14427
900.472	14366
900.591	14202
900.711	14355
900.83	14180
900.95	14450
901.069	14317
901.189	14317
901.308	14024
901.427	13967
901.546	13921
901.665	14012
901.784	13978
901.904	13856
902.023	13746
902.141	13578
902.26	13594
902.379	13605
902.498	13624
902.617	13487
902.735	13514
902.854	13529
902.973	13480
903.091	13335
903.21	13255
903.328	13255
903.446	13209
903.565	13095
903.683	13160
903.801	13019
903.919	13175
904.038	13023
904.156	12985
904.274	13031
904.392	13008
904.51	12939
904.627	12871
904.745	12996
904.863	13031
904.981	12760
905.098	12635
905.216	12536
905.334	12631
905.451	12631
905.569	12597
905.686	12608
905.803	12707
905.921	12445
906.038	12540
906.155	12494
906.272	12311
906.389	12319
906.506	12273
906.623	12167
906.74	12205
906.857	12083
906.974	12152
907.091	12289
907.208	12334
907.324	12228
907.441	12194
907.557	11931
907.674	11969
907.79	11874
907.907	11965
908.023	11954
908.139	11973
908.256	11973
908.372	11866
908.488	11882
908.604	11767
908.72	11783
908.836	11729
908.952	11570
909.068	11752
909.184	11794
909.3	11726
909.415	11790
909.531	11775
909.647	11448
909.762	11524
909.878	11463
909.993	11440
910.108	11471
910.224	11452
910.339	11448
910.454	11429
910.57	11341
910.685	11326
910.8	11509
910.915	11440
911.03	11421
911.145	11162
911.259	11056
911.374	11075
911.489	11132
911.604	11113
911.718	10946
911.833	10942
911.947	10896
912.062	10714
912.176	10972
912.291	10930
912.405	10999
912.519	11155
912.633	11086
912.748	11048
912.862	10984
912.976	10816
913.09	10736
913.204	10721
913.318	10816
913.431	10919
913.545	10923
913.659	10919
913.772	10759
913.886	10714
914	10744
914.113	10771
914.226	10824
914.34	10778
914.453	10584
914.566	10778
914.68	10645
914.793	10691
914.906	10447
915.019	10447
915.132	10386
915.245	10421
915.358	10394
915.47	10402
915.583	10470
915.696	10508
915.809	10596
915.921	10607
916.034	10421
916.146	10417
916.259	10310
916.371	10596
916.483	10455
916.595	10371
916.708	10485
916.82	10394
916.932	10447
917.044	10390
917.156	10360
917.268	10215
917.38	10303
917.491	10227
917.603	10257
917.715	10333
917.826	10375
917.938	10344
918.049	10215
918.161	10299
918.272	10417
918.384	10390
918.495	10303
918.606	10219
918.717	10071
918.828	10181
918.939	10204
919.05	10059
919.161	10158
919.272	9918
919.383	10051
919.494	10181
919.604	10382
919.715	10082
919.826	10147
919.936	10154
920.047	10215
920.157	10173
920.267	10287
920.378	10265
920.488	10192
920.598	10318
920.708	10558
920.818	10462
920.928	10443
921.038	10558
921.148	10500
921.258	10257
921.368	10090
921.477	10074
921.587	10013
921.697	9964
921.806	10143
921.916	9975
922.025	9774
922.134	9778
922.244	9679
922.353	9785
922.462	9686
922.571	9629
922.68	9435
922.789	9481
922.898	9397
923.007	9386
923.116	9530
923.224	9370
923.333	9450
923.442	9325
923.55	9245
923.659	9382
923.767	9458
923.876	9306
923.984	9401
924.092	9272
924.201	9222
924.309	9332
924.417	9363
924.525	9188
924.633	9272
924.741	9987
924.849	9150
924.956	9268
925.064	9070
925.172	9043
925.279	9043
925.387	9097
925.494	9112
925.602	9283
925.709	9230
925.816	9089
925.924	9135
926.031	9203
926.138	9097
926.245	9161
926.352	9009
926.459	9157
926.566	9188
926.673	9058
926.779	9032
926.886	8910
926.993	8834
927.099	8811
927.206	8834
927.312	8826
927.419	8796
927.525	8826
927.631	8880
927.737	8708
927.843	8705
927.95	8663
928.056	8655
928.162	8750
928.267	8769
928.373	9382
928.479	8769
928.585	8617
928.69	8670
928.796	8769
928.901	8655
929.007	8549
929.112	8667
929.218	8640
929.323	8511
929.428	8587
929.533	8712
929.638	8457
929.743	8526
929.848	8613
929.953	8545
930.058	8389
930.163	8286
930.267	8294
930.372	8408
930.477	8286
930.581	8522
930.685	8408
930.79	8180
930.894	8313
930.998	8199
931.103	8415
931.207	8020
931.311	7993
931.415	7925
931.519	7780
931.623	7712
