Data from test_V78500241_2860.txt Node
Date: Fri Mar 25 14:53:37 CST 2022
User: usil
Spectrometer: V785-0024
Trigger mode: 0
Integration Time (sec): 4.000000E-1
Scans to average: 1
Nonlinearity correction enabled: false
Boxcar width: 0
Storing dark spectrum: false
XAxis mode: Wavelengths
Number of Pixels in Spectrum: 1024
>>>>>Begin Spectral Data<<<<<
801.071	22131
801.214	21945
801.356	21804
801.499	21629
801.641	21603
801.783	21526
801.926	21561
802.068	21393
802.211	21367
802.353	21302
802.496	21123
802.638	20883
802.78	20990
802.923	20921
803.065	20735
803.208	20693
803.35	20712
803.492	20811
803.635	20956
803.777	20838
803.919	20826
804.061	21142
804.204	20838
804.346	20735
804.488	20667
804.63	20849
804.773	20621
804.915	20655
805.057	20891
805.199	20735
805.341	20804
805.483	20765
805.626	20731
805.768	20731
805.91	20796
806.052	20754
806.194	20587
806.336	20933
806.478	20667
806.62	20575
806.762	20724
806.904	20979
807.046	21123
807.188	21074
807.33	21017
807.472	21024
807.614	20899
807.756	20929
807.898	20853
808.04	20804
808.182	20609
808.324	20819
808.465	20796
808.607	20963
808.749	21028
808.891	21165
809.033	21146
809.174	21047
809.316	21032
809.458	21135
809.6	20967
809.741	21119
809.883	20986
810.025	21222
810.166	21283
810.308	21203
810.45	21093
810.591	21074
810.733	20982
810.875	20876
811.016	20804
811.158	20739
811.299	20773
811.441	20853
811.582	20960
811.724	20781
811.865	20667
812.007	20758
812.148	20788
812.29	20838
812.431	21013
812.573	21165
812.714	21188
812.855	21283
812.997	21386
813.138	21519
813.279	21526
813.421	21336
813.562	21249
813.703	21173
813.845	20994
813.986	20693
814.127	20568
814.268	20396
814.41	20400
814.551	20248
814.692	20484
814.833	20370
814.974	20271
815.115	20317
815.256	20183
815.397	20138
815.539	20267
815.68	20122
815.821	20062
815.962	20202
816.103	19997
816.244	20077
816.385	19871
816.526	19784
816.666	19685
816.807	19586
816.948	19514
817.089	19548
817.23	19525
817.371	19540
817.512	19514
817.653	19483
817.793	19388
817.934	19415
818.075	19540
818.216	19540
818.356	19487
818.497	19335
818.638	19171
818.778	19247
818.919	19175
819.06	19168
819.2	19426
819.341	19331
819.481	19472
819.622	19537
819.762	19620
819.903	19552
820.043	19525
820.184	19453
820.324	19422
820.465	19594
820.605	19578
820.746	19525
820.886	19346
821.026	19453
821.167	19422
821.307	19403
821.447	19411
821.588	19396
821.728	19118
821.868	19038
822.008	18833
822.149	18833
822.289	18871
822.429	18608
822.569	18559
822.709	18612
822.849	18403
822.99	18414
823.13	18327
823.27	18300
823.41	18129
823.55	18125
823.69	18273
823.83	18114
823.97	18117
824.11	17923
824.25	17885
824.389	17927
824.529	17931
824.669	17920
824.809	18030
824.949	17920
825.089	17939
825.228	17977
825.368	17832
825.508	17840
825.648	17707
825.787	17729
825.927	17653
826.067	17642
826.206	17642
826.346	17741
826.485	17817
826.625	17653
826.765	17836
826.904	17798
827.044	17459
827.183	17486
827.323	17383
827.462	17478
827.601	17398
827.741	17440
827.88	17391
828.02	17341
828.159	17356
828.298	17436
828.437	17326
828.577	17296
828.716	17497
828.855	17387
828.994	17223
829.134	17212
829.273	17197
829.412	17067
829.551	17140
829.69	17109
829.829	17128
829.968	17254
830.107	17090
830.246	17269
830.385	17048
830.524	17048
830.663	16938
830.802	16866
830.941	16740
831.08	16801
831.219	16923
831.357	16778
831.496	17014
831.635	16767
831.774	16774
831.913	16721
832.051	16672
832.19	16531
832.329	16698
832.467	16500
832.606	16421
832.744	16436
832.883	16424
833.022	16417
833.16	16371
833.299	16485
833.437	16504
833.576	16485
833.714	16523
833.852	16538
833.991	16599
834.129	16569
834.267	16592
834.406	16603
834.544	16462
834.682	16504
834.821	16542
834.959	16767
835.097	16459
835.235	16531
835.373	16516
835.511	16519
835.65	16386
835.788	16424
835.926	16295
836.064	16211
836.202	16249
836.34	16478
836.478	16466
836.615	16481
836.753	16436
836.891	16478
837.029	16523
837.167	16447
837.305	16310
837.443	16390
837.58	16211
837.718	16268
837.856	16196
837.993	16310
838.131	16314
838.269	16280
838.406	16215
838.544	16246
838.681	15987
838.819	15975
838.956	15915
839.094	15850
839.231	15861
839.369	15979
839.506	16226
839.643	16063
839.781	15907
839.918	15762
840.055	15911
840.193	15865
840.33	15785
840.467	15789
840.604	15907
840.742	16105
840.879	15682
841.016	15728
841.153	15755
841.29	15953
841.427	15857
841.564	15857
841.701	15816
841.838	15850
841.975	15614
842.112	15770
842.249	15633
842.385	15580
842.522	15739
842.659	15667
842.796	15504
842.933	15622
843.069	15561
843.206	15564
843.343	15618
843.479	15641
843.616	15561
843.752	15378
843.889	15386
844.025	15591
844.162	15359
844.298	15488
844.435	15500
844.571	15416
844.708	15412
844.844	15545
844.98	15622
845.117	15481
845.253	15393
845.389	15249
845.525	15321
845.661	15256
845.798	15165
845.934	15226
846.07	15157
846.206	15203
846.342	15287
846.478	15131
846.614	15055
846.75	15020
846.886	14849
847.022	15005
847.158	14948
847.294	14899
847.429	15077
847.565	14929
847.701	15184
847.837	14769
847.972	14644
848.108	14777
848.244	14765
848.379	14602
848.515	14537
848.65	14598
848.786	14476
848.921	14670
849.057	14708
849.192	14598
849.328	14533
849.463	14564
849.598	14499
849.734	14514
849.869	14537
850.004	14282
850.14	14446
850.275	14343
850.41	14282
850.545	14229
850.68	14309
850.815	14343
850.95	14309
851.085	14503
851.22	14442
851.355	14355
851.49	14343
851.625	14366
851.76	14271
851.895	14282
852.03	14214
852.165	14244
852.299	14324
852.434	14389
852.569	14404
852.703	14454
852.838	14343
852.973	14518
853.107	14431
853.242	14317
853.376	14218
853.511	14142
853.645	14149
853.78	14229
853.914	14176
854.048	14199
854.183	14043
854.317	14229
854.451	14434
854.585	14244
854.72	14172
854.854	14256
854.988	14130
855.122	14145
855.256	14115
855.39	14199
855.524	14267
855.658	14240
855.792	14221
855.926	14199
856.06	14176
856.194	14355
856.327	14115
856.461	14206
856.595	14149
856.729	14187
856.862	14347
856.996	14134
857.13	14237
857.263	14157
857.397	14317
857.53	14172
857.664	14309
857.797	14343
857.931	14381
858.064	14343
858.197	14248
858.331	14206
858.464	14161
858.597	13997
858.731	14202
858.864	14256
858.997	14123
859.13	14157
859.263	14248
859.396	14294
859.529	14126
859.662	14161
859.795	14168
859.928	14161
860.061	14298
860.194	14385
860.327	14240
860.46	14153
860.592	14298
860.725	14267
860.858	14324
860.99	14206
861.123	14054
861.256	14145
861.388	14153
861.521	14594
861.653	14020
861.786	14005
861.918	14172
862.05	14176
862.183	14218
862.315	14176
862.447	14240
862.58	14145
862.712	14024
862.844	13970
862.976	14012
863.108	14111
863.24	14503
863.372	13890
863.504	14088
863.636	13917
863.768	14084
863.9	13993
864.032	13947
864.164	13921
864.296	14046
864.428	14054
864.559	14031
864.691	14172
864.823	14054
864.954	14111
865.086	13967
865.217	14027
865.349	13928
865.48	14046
865.612	14016
865.743	14157
865.875	13894
866.006	13986
866.137	13890
866.269	13978
866.4	14005
866.531	13868
866.662	13898
866.793	13871
866.924	13936
867.055	14069
867.186	13967
867.317	13909
867.448	13795
867.579	13986
867.71	13925
867.841	13887
867.972	14024
868.103	13902
868.233	13967
868.364	14012
868.495	14073
868.625	14244
868.756	14396
868.886	14142
869.017	14168
869.147	14301
869.278	14320
869.408	14229
869.539	14278
869.669	14324
869.799	14317
869.929	14313
870.06	14324
870.19	14503
870.32	14552
870.45	14568
870.58	14610
870.71	14804
870.84	14765
870.97	14659
871.1	14648
871.23	14838
871.36	14796
871.489	14743
871.619	14765
871.749	14876
871.879	14842
872.008	14921
872.138	14880
872.267	14834
872.397	14674
872.526	14621
872.656	14594
872.785	14686
872.915	14842
873.044	14937
873.173	14731
873.303	14948
873.432	14891
873.561	14944
873.69	14891
873.819	14838
873.948	14963
874.077	14971
874.206	14910
874.335	14895
874.464	15005
874.593	15077
874.722	15138
874.851	15218
874.979	15207
875.108	15218
875.237	15047
875.365	15039
875.494	15142
875.623	15214
875.751	15150
875.88	15294
876.008	15287
876.136	15374
876.265	15614
876.393	15835
876.521	15606
876.65	15671
876.778	15538
876.906	15549
877.034	15557
877.162	15526
877.29	15595
877.418	15599
877.546	15686
877.674	15580
877.802	15644
877.93	15534
878.058	15618
878.185	15439
878.313	15519
878.441	15705
878.568	15462
878.696	15576
878.824	15603
878.951	15663
879.079	15747
879.206	15842
879.333	15827
879.461	15641
879.588	15690
879.715	15808
879.842	15846
879.97	15682
880.097	15454
880.224	15488
880.351	15363
880.478	15538
880.605	15393
880.732	15435
880.859	15698
880.986	15420
881.112	15466
881.239	15367
881.366	15077
881.493	15165
881.619	15165
881.746	15127
881.872	15157
881.999	15062
882.125	15104
882.252	15195
882.378	15127
882.505	15199
882.631	15005
882.757	14975
882.883	15039
883.01	14982
883.136	14773
883.262	14785
883.388	14769
883.514	14880
883.64	14971
883.766	14861
883.892	14697
884.018	14655
884.143	14823
884.269	14956
884.395	14712
884.52	14575
884.646	14670
884.772	14537
884.897	14522
885.023	14697
885.148	14708
885.274	14773
885.399	14746
885.524	14705
885.65	14629
885.775	14659
885.9	14594
886.025	14735
886.15	14720
886.275	14514
886.4	14469
886.525	14613
886.65	14564
886.775	14590
886.9	14636
887.025	14937
887.149	14625
887.274	14381
887.399	14492
887.523	14492
887.648	14355
887.773	14374
887.897	14541
888.021	14438
888.146	14469
888.27	14552
888.395	14511
888.519	14469
888.643	14583
888.767	14461
888.891	14461
889.015	14256
889.139	14320
889.263	14408
889.387	14450
889.511	14503
889.635	14381
889.759	14374
889.883	14423
890.006	14396
890.13	14450
890.254	14259
890.377	14290
890.501	14092
890.624	14119
890.748	14153
890.871	14142
890.995	14050
891.118	13932
891.241	13928
891.364	13993
891.488	14164
891.611	13986
891.734	13993
891.857	14115
891.98	14062
892.103	14142
892.226	14024
892.349	13951
892.471	13913
892.594	14016
892.717	14031
892.839	13982
892.962	13986
893.085	14073
893.207	14103
893.33	13849
893.452	13974
893.575	14183
893.697	14039
893.819	14237
893.941	14332
894.064	14282
894.186	13978
894.308	14012
894.43	14164
894.552	14176
894.674	14123
894.796	13936
894.918	14027
895.04	14092
895.161	14065
895.283	14164
895.405	14046
895.526	14153
895.648	14164
895.769	14138
895.891	14286
896.012	14267
896.134	14267
896.255	14210
896.376	14225
896.498	14214
896.619	14195
896.74	14202
896.861	14317
896.982	14549
897.103	14617
897.224	14526
897.345	14495
897.466	14427
897.587	14396
897.708	14670
897.828	14522
897.949	14419
898.07	14347
898.19	14442
898.311	14602
898.431	14511
898.552	14556
898.672	14602
898.792	14568
898.913	14537
899.033	14400
899.153	14495
899.273	14309
899.393	14385
899.513	14351
899.633	14358
899.753	14503
899.873	14263
899.993	14545
900.113	14396
900.232	14393
900.352	14434
900.472	14240
900.591	14183
900.711	14305
900.83	14233
900.95	14267
901.069	14412
901.189	14218
901.308	13940
901.427	13986
901.546	13951
901.665	14058
901.784	13902
901.904	13826
902.023	13708
902.141	13548
902.26	13457
902.379	13613
902.498	13510
902.617	13403
902.735	13544
902.854	13453
902.973	13529
903.091	13209
903.21	13255
903.328	13251
903.446	13217
903.565	13168
903.683	13103
903.801	13027
903.919	13103
904.038	13156
904.156	12966
904.274	12905
904.392	12886
904.51	12928
904.627	12939
904.745	12939
904.863	13015
904.981	12719
905.098	12639
905.216	12681
905.334	12650
905.451	12597
905.569	12654
905.686	12730
905.803	12684
905.921	12471
906.038	12570
906.155	12506
906.272	12365
906.389	12384
906.506	12327
906.623	12220
906.74	12136
906.857	12136
906.974	12155
907.091	12273
907.208	12353
907.324	12330
907.441	12201
907.557	11984
907.674	12049
907.79	11912
907.907	11923
908.023	12064
908.139	12053
908.256	11882
908.372	11893
908.488	11802
908.604	11779
908.72	11741
908.836	11718
908.952	11661
909.068	11695
909.184	11840
909.3	11821
909.415	11809
909.531	11733
909.647	11585
909.762	11551
909.878	11452
909.993	11566
910.108	11490
910.224	11512
910.339	11535
910.454	11387
910.57	11349
910.685	11269
910.8	11608
910.915	11482
911.03	11410
911.145	11269
911.259	11220
911.374	11212
911.489	11189
911.604	11075
911.718	10957
911.833	10961
911.947	10881
912.062	10839
912.176	10927
912.291	10984
912.405	10984
912.519	11204
912.633	11197
912.748	11121
912.862	10995
912.976	10885
913.09	10733
913.204	10847
913.318	10854
913.431	10885
913.545	10968
913.659	10984
913.772	10908
913.886	10771
914	10634
914.113	10862
914.226	10816
914.34	10812
914.453	10630
914.566	10778
914.68	10698
914.793	10634
914.906	10489
915.019	10462
915.132	10405
915.245	10474
915.358	10443
915.47	10451
915.583	10402
915.696	10531
915.809	10607
915.921	10622
916.034	10481
916.146	10413
916.259	10371
916.371	10531
916.483	10417
916.595	10424
916.708	10413
916.82	10424
916.932	10405
917.044	10360
917.156	10352
917.268	10329
917.38	10356
917.491	10268
917.603	10329
917.715	10447
917.826	10436
917.938	10299
918.049	10238
918.161	10268
918.272	10478
918.384	10417
918.495	10337
918.606	10227
918.717	10093
918.828	10143
918.939	10177
919.05	10051
919.161	10181
919.272	9926
919.383	10105
919.494	10238
919.604	10413
919.715	10196
919.826	10147
919.936	10147
920.047	10234
920.157	10143
920.267	10436
920.378	10318
920.488	10188
920.598	10405
920.708	10519
920.818	10398
920.928	10421
921.038	10569
921.148	10485
921.258	10211
921.368	10219
921.477	10002
921.587	10105
921.697	9930
921.806	10143
921.916	9930
922.025	9747
922.134	9774
922.244	9774
922.353	9770
922.462	9568
922.571	9580
922.68	9496
922.789	9458
922.898	9397
923.007	9401
923.116	9504
923.224	9431
923.333	9424
923.442	9313
923.55	9325
923.659	9393
923.767	9431
923.876	9348
923.984	9408
924.092	9294
924.201	9268
924.309	9310
924.417	9283
924.525	9226
924.633	9310
924.741	10177
924.849	9116
924.956	9260
925.064	9188
925.172	8990
925.279	9077
925.387	9104
925.494	9123
925.602	9211
925.709	9226
925.816	9112
925.924	9100
926.031	9211
926.138	9127
926.245	9127
926.352	9055
926.459	9161
926.566	9192
926.673	9062
926.779	8998
926.886	8967
926.993	8853
927.099	8849
927.206	8811
927.312	8777
927.419	8918
927.525	8819
927.631	8864
927.737	8804
927.843	8781
927.95	8602
928.056	8697
928.162	8735
928.267	8868
928.373	9195
928.479	8804
928.585	8632
928.69	8727
928.796	8777
928.901	8640
929.007	8533
929.112	8598
929.218	8629
929.323	8480
929.428	8518
929.533	8644
929.638	8537
929.743	8545
929.848	8583
929.953	8530
930.058	8476
930.163	8328
930.267	8275
930.372	8454
930.477	8279
930.581	8465
930.685	8431
930.79	8263
930.894	8267
930.998	8320
931.103	8434
931.207	8092
931.311	7970
931.415	7936
931.519	7750
931.623	7826
