Data from test_V78500241_2552.txt Node
Date: Fri Mar 25 14:51:29 CST 2022
User: usil
Spectrometer: V785-0024
Trigger mode: 0
Integration Time (sec): 4.000000E-1
Scans to average: 1
Nonlinearity correction enabled: false
Boxcar width: 0
Storing dark spectrum: false
XAxis mode: Wavelengths
Number of Pixels in Spectrum: 1024
>>>>>Begin Spectral Data<<<<<
801.071	22154
801.214	21930
801.356	21709
801.499	21542
801.641	21466
801.783	21393
801.926	21336
802.068	21344
802.211	21298
802.353	21112
802.496	20975
802.638	20971
802.78	20948
802.923	20921
803.065	20716
803.208	20785
803.35	20602
803.492	20811
803.635	20902
803.777	20739
803.919	20781
804.061	21119
804.204	20864
804.346	20640
804.488	20629
804.63	20720
804.773	20560
804.915	20579
805.057	20724
805.199	20659
805.341	20667
805.483	20716
805.626	20743
805.768	20621
805.91	20621
806.052	20655
806.194	20537
806.336	20811
806.478	20590
806.62	20625
806.762	20629
806.904	20743
807.046	21066
807.188	20838
807.33	20994
807.472	20952
807.614	20815
807.756	20800
807.898	20765
808.04	20670
808.182	20785
808.324	20838
808.465	20636
808.607	20811
808.749	21001
808.891	21131
809.033	21222
809.174	21108
809.316	21036
809.458	20979
809.6	20963
809.741	21009
809.883	20994
810.025	21104
810.166	21192
810.308	21100
810.45	21020
810.591	20994
810.733	20948
810.875	20842
811.016	20655
811.158	20655
811.299	20830
811.441	20849
811.582	20963
811.724	20739
811.865	20739
812.007	20712
812.148	20724
812.29	20842
812.431	20895
812.573	21047
812.714	21146
812.855	21291
812.997	21428
813.138	21435
813.279	21367
813.421	21154
813.562	21230
813.703	21074
813.845	20891
813.986	20663
814.127	20644
814.268	20465
814.41	20404
814.551	20328
814.692	20332
814.833	20202
814.974	20275
815.115	20259
815.256	20145
815.397	20172
815.539	20153
815.68	19986
815.821	20073
815.962	20092
816.103	20088
816.244	19833
816.385	19712
816.526	19677
816.666	19776
816.807	19491
816.948	19597
817.089	19575
817.23	19495
817.371	19582
817.512	19407
817.653	19533
817.793	19377
817.934	19335
818.075	19419
818.216	19464
818.356	19381
818.497	19244
818.638	19137
818.778	19091
818.919	19038
819.06	19331
819.2	19285
819.341	19308
819.481	19346
819.622	19483
819.762	19731
819.903	19605
820.043	19460
820.184	19304
820.324	19396
820.465	19487
820.605	19422
820.746	19358
820.886	19259
821.026	19483
821.167	19346
821.307	19457
821.447	19476
821.588	19263
821.728	19236
821.868	19072
822.008	18859
822.149	18852
822.289	18829
822.429	18494
822.569	18574
822.709	18418
822.849	18372
822.99	18285
823.13	18277
823.27	18285
823.41	18117
823.55	18178
823.69	18053
823.83	18140
823.97	18019
824.11	17992
824.25	17889
824.389	17988
824.529	18038
824.669	17878
824.809	18007
824.949	18026
825.089	17954
825.228	17878
825.368	17779
825.508	17630
825.648	17764
825.787	17783
825.927	17794
826.067	17676
826.206	17619
826.346	17737
826.485	17653
826.625	17668
826.765	17824
826.904	17638
827.044	17474
827.183	17414
827.323	17326
827.462	17425
827.601	17402
827.741	17410
827.88	17337
828.02	17258
828.159	17356
828.298	17303
828.437	17440
828.577	17360
828.716	17497
828.855	17372
828.994	17254
829.134	17071
829.273	17235
829.412	17109
829.551	17086
829.69	17143
829.829	17216
829.968	17181
830.107	17189
830.246	17113
830.385	17166
830.524	17029
830.663	17018
830.802	16839
830.941	16854
831.08	16805
831.219	16828
831.357	16828
831.496	17033
831.635	16691
831.774	16592
831.913	16641
832.051	16561
832.19	16432
832.329	16626
832.467	16478
832.606	16447
832.744	16405
832.883	16428
833.022	16462
833.16	16440
833.299	16546
833.437	16455
833.576	16538
833.714	16550
833.852	16512
833.991	16462
834.129	16668
834.267	16569
834.406	16569
834.544	16531
834.682	16569
834.821	16405
834.959	16664
835.097	16527
835.235	16546
835.373	16569
835.511	16618
835.65	16417
835.788	16382
835.926	16371
836.064	16238
836.202	16261
836.34	16428
836.478	16485
836.615	16402
836.753	16546
836.891	16436
837.029	16481
837.167	16424
837.305	16394
837.443	16295
837.58	16162
837.718	16386
837.856	16280
837.993	16177
838.131	16257
838.269	16276
838.406	16249
838.544	16234
838.681	15975
838.819	15949
838.956	15892
839.094	15835
839.231	15998
839.369	15930
839.506	16303
839.643	16116
839.781	15823
839.918	15827
840.055	15823
840.193	15922
840.33	15854
840.467	15842
840.604	15968
840.742	16105
840.879	15736
841.016	15778
841.153	15762
841.29	15953
841.427	15854
841.564	15941
841.701	15934
841.838	15785
841.975	15816
842.112	15793
842.249	15732
842.385	15694
842.522	15869
842.659	15644
842.796	15622
842.933	15610
843.069	15568
843.206	15526
843.343	15701
843.479	15606
843.616	15648
843.752	15397
843.889	15496
844.025	15580
844.162	15370
844.298	15644
844.435	15348
844.571	15401
844.708	15553
844.844	15523
844.98	15603
845.117	15515
845.253	15351
845.389	15294
845.525	15340
845.661	15355
845.798	15100
845.934	15241
846.07	15188
846.206	15249
846.342	15291
846.478	15184
846.614	15062
846.75	15005
846.886	14872
847.022	15055
847.158	14956
847.294	14952
847.429	15066
847.565	14979
847.701	15157
847.837	14682
847.972	14758
848.108	14864
848.244	14769
848.379	14613
848.515	14533
848.65	14511
848.786	14579
848.921	14674
849.057	14792
849.192	14663
849.328	14644
849.463	14632
849.598	14556
849.734	14530
849.869	14533
850.004	14320
850.14	14362
850.275	14454
850.41	14355
850.545	14336
850.68	14419
850.815	14328
850.95	14457
851.085	14415
851.22	14419
851.355	14366
851.49	14438
851.625	14317
851.76	14351
851.895	14294
852.03	14252
852.165	14317
852.299	14415
852.434	14446
852.569	14415
852.703	14476
852.838	14450
852.973	14556
853.107	14545
853.242	14362
853.376	14256
853.511	14130
853.645	14126
853.78	14305
853.914	14237
854.048	14233
854.183	14123
854.317	14282
854.451	14457
854.585	14271
854.72	14248
854.854	14267
854.988	14115
855.122	14195
855.256	14123
855.39	14214
855.524	14309
855.658	14271
855.792	14366
855.926	14221
856.06	14248
856.194	14355
856.327	14237
856.461	14191
856.595	14126
856.729	14233
856.862	14381
856.996	14259
857.13	14282
857.263	14286
857.397	14278
857.53	14240
857.664	14317
857.797	14309
857.931	14396
858.064	14210
858.197	14427
858.331	14256
858.464	14149
858.597	14077
858.731	14229
858.864	14244
858.997	14161
859.13	14176
859.263	14351
859.396	14339
859.529	14313
859.662	14161
859.795	14172
859.928	14286
860.061	14256
860.194	14545
860.327	14218
860.46	14180
860.592	14343
860.725	14362
860.858	14324
860.99	14199
861.123	14218
861.256	14161
861.388	14248
861.521	14842
861.653	14046
861.786	14096
861.918	14077
862.05	14088
862.183	14259
862.315	14320
862.447	14237
862.58	14123
862.712	14012
862.844	13932
862.976	14149
863.108	14115
863.24	14499
863.372	13791
863.504	13978
863.636	13982
863.768	14088
863.9	13982
864.032	13986
864.164	13906
864.296	14062
864.428	14084
864.559	14134
864.691	14031
864.823	14157
864.954	14115
865.086	14069
865.217	14008
865.349	13894
865.48	13967
865.612	13955
865.743	14145
865.875	14039
866.006	13978
866.137	14058
866.269	13967
866.4	14027
866.531	13928
866.662	13940
866.793	13982
866.924	13932
867.055	13894
867.186	14016
867.317	13982
867.448	13894
867.579	13890
867.71	14005
867.841	13849
867.972	13959
868.103	13997
868.233	13982
868.364	14107
868.495	14119
868.625	14332
868.756	14347
868.886	14103
869.017	14237
869.147	14412
869.278	14385
869.408	14298
869.539	14229
869.669	14259
869.799	14282
869.929	14275
870.06	14313
870.19	14473
870.32	14518
870.45	14556
870.58	14670
870.71	14735
870.84	14819
870.97	14621
871.1	14648
871.23	14765
871.36	14906
871.489	14762
871.619	14853
871.749	14849
871.879	14887
872.008	14876
872.138	14937
872.267	14941
872.397	14781
872.526	14720
872.656	14811
872.785	14724
872.915	14921
873.044	14986
873.173	14887
873.303	14887
873.432	14937
873.561	14963
873.69	14849
873.819	14895
873.948	15032
874.077	14990
874.206	14868
874.335	14918
874.464	15028
874.593	15275
874.722	15074
874.851	15154
874.979	15268
875.108	15245
875.237	15165
875.365	15199
875.494	15173
875.623	15367
875.751	15249
875.88	15264
876.008	15336
876.136	15374
876.265	15732
876.393	15736
876.521	15770
876.65	15732
876.778	15595
876.906	15530
877.034	15519
877.162	15576
877.29	15564
877.418	15595
877.546	15705
877.674	15584
877.802	15663
877.93	15686
878.058	15561
878.185	15447
878.313	15644
878.441	15671
878.568	15485
878.696	15618
878.824	15629
878.951	15804
879.079	15755
879.206	15979
879.333	15766
879.461	15675
879.588	15720
879.715	15842
879.842	15888
879.97	15709
880.097	15545
880.224	15481
880.351	15553
880.478	15466
880.605	15374
880.732	15481
880.859	15709
880.986	15553
881.112	15420
881.239	15332
881.366	15298
881.493	15142
881.619	15108
881.746	15062
881.872	15226
881.999	15150
882.125	15150
882.252	15135
882.378	15165
882.505	15405
882.631	15097
882.757	14830
882.883	14986
883.01	14998
883.136	14887
883.262	14819
883.388	14845
883.514	14994
883.64	15036
883.766	15001
883.892	14670
884.018	14792
884.143	14876
884.269	15097
884.395	14796
884.52	14712
884.646	14682
884.772	14655
884.897	14522
885.023	14621
885.148	14762
885.274	14861
885.399	14792
885.524	14731
885.65	14625
885.775	14594
885.9	14667
886.025	14899
886.15	14727
886.275	14606
886.4	14552
886.525	14552
886.65	14575
886.775	14545
886.9	14807
887.025	14944
887.149	14617
887.274	14393
887.399	14450
887.523	14469
887.648	14450
887.773	14377
887.897	14606
888.021	14537
888.146	14434
888.27	14598
888.395	14686
888.519	14514
888.643	14606
888.767	14655
888.891	14454
889.015	14339
889.139	14362
889.263	14252
889.387	14442
889.511	14610
889.635	14454
889.759	14358
889.883	14290
890.006	14389
890.13	14465
890.254	14244
890.377	14351
890.501	14180
890.624	14229
890.748	14282
890.871	14149
890.995	14035
891.118	13955
891.241	14115
891.364	14062
891.488	14237
891.611	14054
891.734	14031
891.857	14145
891.98	14054
892.103	14107
892.226	14130
892.349	13974
892.471	13921
892.594	14100
892.717	14123
892.839	13944
892.962	13997
893.085	14187
893.207	14096
893.33	13928
893.452	14031
893.575	14100
893.697	14046
893.819	14256
893.941	14301
894.064	14130
894.186	14096
894.308	14058
894.43	14172
894.552	14252
894.674	14221
894.796	14100
894.918	14073
895.04	14050
895.161	14240
895.283	14180
895.405	14214
895.526	14210
895.648	14180
895.769	14195
895.891	14317
896.012	14252
896.134	14225
896.255	14267
896.376	14225
896.498	14183
896.619	14229
896.74	14290
896.861	14317
896.982	14503
897.103	14689
897.224	14549
897.345	14556
897.466	14336
897.587	14507
897.708	14613
897.828	14526
897.949	14590
898.07	14450
898.19	14450
898.311	14663
898.431	14587
898.552	14545
898.672	14602
898.792	14663
898.913	14610
899.033	14552
899.153	14370
899.273	14358
899.393	14412
899.513	14431
899.633	14442
899.753	14465
899.873	14393
899.993	14564
900.113	14358
900.232	14480
900.352	14389
900.472	14233
900.591	14221
900.711	14267
900.83	14252
900.95	14366
901.069	14351
901.189	14218
901.308	14103
901.427	13936
901.546	13947
901.665	14008
901.784	13993
901.904	13799
902.023	13826
902.141	13681
902.26	13537
902.379	13636
902.498	13540
902.617	13495
902.735	13670
902.854	13544
902.973	13411
903.091	13236
903.21	13236
903.328	13285
903.446	13221
903.565	13126
903.683	13126
903.801	13088
903.919	13118
904.038	13008
904.156	12996
904.274	12989
904.392	12871
904.51	12928
904.627	12920
904.745	13008
904.863	12928
904.981	12730
905.098	12703
905.216	12665
905.334	12692
905.451	12669
905.569	12597
905.686	12707
905.803	12642
905.921	12475
906.038	12544
906.155	12422
906.272	12258
906.389	12334
906.506	12220
906.623	12213
906.74	12243
906.857	12133
906.974	12186
907.091	12205
907.208	12384
907.324	12327
907.441	12117
907.557	12003
907.674	11984
907.79	11908
907.907	11901
908.023	12057
908.139	11927
908.256	11882
908.372	11882
908.488	11897
908.604	11688
908.72	11695
908.836	11684
908.952	11718
909.068	11775
909.184	11855
909.3	11691
909.415	11817
909.531	11699
909.647	11528
909.762	11463
909.878	11509
909.993	11516
910.108	11524
910.224	11459
910.339	11490
910.454	11421
910.57	11330
910.685	11246
910.8	11566
910.915	11516
911.03	11421
911.145	11227
911.259	11193
911.374	11197
911.489	11098
911.604	11090
911.718	10904
911.833	10908
911.947	10889
912.062	10736
912.176	10949
912.291	10987
912.405	10965
912.519	11128
912.633	11204
912.748	11083
912.862	10957
912.976	10881
913.09	10721
913.204	10763
913.318	10801
913.431	10942
913.545	10934
913.659	10873
913.772	10862
913.886	10683
914	10653
914.113	10820
914.226	10873
914.34	10816
914.453	10634
914.566	10812
914.68	10668
914.793	10596
914.906	10474
915.019	10466
915.132	10363
915.245	10413
915.358	10462
915.47	10443
915.583	10527
915.696	10508
915.809	10573
915.921	10653
916.034	10386
916.146	10432
916.259	10379
916.371	10550
916.483	10424
916.595	10424
916.708	10436
916.82	10394
916.932	10421
917.044	10371
917.156	10367
917.268	10188
917.38	10325
917.491	10246
917.603	10344
917.715	10314
917.826	10394
917.938	10318
918.049	10131
918.161	10242
918.272	10455
918.384	10436
918.495	10306
918.606	10131
918.717	10071
918.828	10215
918.939	10173
919.05	10116
919.161	10181
919.272	9975
919.383	10036
919.494	10234
919.604	10375
919.715	10173
919.826	10090
919.936	10105
920.047	10276
920.157	10268
920.267	10417
920.378	10238
920.488	10143
920.598	10333
920.708	10569
920.818	10436
920.928	10367
921.038	10538
921.148	10489
921.258	10234
921.368	10150
921.477	10090
921.587	10071
921.697	9899
921.806	10067
921.916	9899
922.025	9762
922.134	9797
922.244	9679
922.353	9705
922.462	9686
922.571	9523
922.68	9431
922.789	9408
922.898	9458
923.007	9481
923.116	9462
923.224	9386
923.333	9408
923.442	9393
923.55	9230
923.659	9272
923.767	9306
923.876	9272
923.984	9378
924.092	9146
924.201	9275
924.309	9306
924.417	9359
924.525	9241
924.633	9264
924.741	10051
924.849	9127
924.956	9192
925.064	9081
925.172	8990
925.279	9055
925.387	9001
925.494	9081
925.602	9176
925.709	9150
925.816	9047
925.924	9119
926.031	9188
926.138	9192
926.245	9138
926.352	9043
926.459	9192
926.566	9249
926.673	9081
926.779	8971
926.886	8975
926.993	8788
927.099	8815
927.206	8705
927.312	8849
927.419	8853
927.525	8845
927.631	8944
927.737	8754
927.843	8766
927.95	8670
928.056	8686
928.162	8792
928.267	8807
928.373	9336
928.479	8815
928.585	8606
928.69	8712
928.796	8853
928.901	8693
929.007	8560
929.112	8655
929.218	8632
929.323	8610
929.428	8613
929.533	8651
929.638	8454
929.743	8621
929.848	8655
929.953	8552
930.058	8511
930.163	8324
930.267	8366
930.372	8507
930.477	8320
930.581	8556
930.685	8442
930.79	8244
930.894	8317
930.998	8286
931.103	8450
931.207	8092
931.311	8092
931.415	8035
931.519	7845
931.623	7906
