Data from test_V78500241_2937.txt Node
Date: Fri Mar 25 14:54:09 CST 2022
User: usil
Spectrometer: V785-0024
Trigger mode: 0
Integration Time (sec): 4.000000E-1
Scans to average: 1
Nonlinearity correction enabled: false
Boxcar width: 0
Storing dark spectrum: false
XAxis mode: Wavelengths
Number of Pixels in Spectrum: 1024
>>>>>Begin Spectral Data<<<<<
801.071	21987
801.214	21983
801.356	21819
801.499	21603
801.641	21488
801.783	21450
801.926	21481
802.068	21321
802.211	21386
802.353	21245
802.496	20975
802.638	21085
802.78	20937
802.923	20849
803.065	20731
803.208	20720
803.35	20788
803.492	20925
803.635	20963
803.777	20769
803.919	20941
804.061	21074
804.204	20902
804.346	20724
804.488	20693
804.63	20804
804.773	20613
804.915	20724
805.057	20891
805.199	20651
805.341	20708
805.483	20663
805.626	20769
805.768	20682
805.91	20868
806.052	20830
806.194	20613
806.336	20868
806.478	20629
806.62	20590
806.762	20849
806.904	20944
807.046	21039
807.188	20963
807.33	21066
807.472	21116
807.614	21089
807.756	20895
807.898	20765
808.04	20773
808.182	20727
808.324	20743
808.465	20906
808.607	21055
808.749	21241
808.891	21222
809.033	21275
809.174	21127
809.316	21138
809.458	21089
809.6	20914
809.741	21116
809.883	21077
810.025	21207
810.166	21142
810.308	21249
810.45	21081
810.591	21036
810.733	21001
810.875	20910
811.016	20773
811.158	20632
811.299	20838
811.441	20979
811.582	20998
811.724	20785
811.865	20697
812.007	20712
812.148	20845
812.29	20891
812.431	20929
812.573	21077
812.714	21325
812.855	21294
812.997	21511
813.138	21637
813.279	21428
813.421	21260
813.562	21272
813.703	21131
813.845	20982
813.986	20735
814.127	20454
814.268	20476
814.41	20457
814.551	20343
814.692	20423
814.833	20366
814.974	20374
815.115	20454
815.256	20301
815.397	20221
815.539	20324
815.68	20081
815.821	20039
815.962	20111
816.103	20176
816.244	19993
816.385	19951
816.526	19841
816.666	19578
816.807	19571
816.948	19658
817.089	19609
817.23	19582
817.371	19548
817.512	19518
817.653	19441
817.793	19369
817.934	19449
818.075	19537
818.216	19510
818.356	19476
818.497	19354
818.638	19122
818.778	19221
818.919	19160
819.06	19221
819.2	19301
819.341	19339
819.481	19457
819.622	19601
819.762	19811
819.903	19708
820.043	19571
820.184	19426
820.324	19499
820.465	19449
820.605	19483
820.746	19464
820.886	19301
821.026	19499
821.167	19278
821.307	19480
821.447	19403
821.588	19438
821.728	19217
821.868	18993
822.008	18985
822.149	18848
822.289	18871
822.429	18700
822.569	18661
822.709	18483
822.849	18410
822.99	18448
823.13	18429
823.27	18346
823.41	18167
823.55	18098
823.69	18117
823.83	18213
823.97	18273
824.11	17923
824.25	17988
824.389	17802
824.529	18060
824.669	18038
824.809	18155
824.949	18125
825.089	18057
825.228	17996
825.368	17779
825.508	17809
825.648	17802
825.787	17767
825.927	17794
826.067	17668
826.206	17710
826.346	17783
826.485	17661
826.625	17718
826.765	17840
826.904	17783
827.044	17524
827.183	17539
827.323	17402
827.462	17429
827.601	17486
827.741	17448
827.88	17471
828.02	17246
828.159	17315
828.298	17406
828.437	17490
828.577	17376
828.716	17535
828.855	17337
828.994	17204
829.134	17181
829.273	17200
829.412	17143
829.551	17086
829.69	17197
829.829	17151
829.968	17261
830.107	17246
830.246	17170
830.385	17113
830.524	17086
830.663	17033
830.802	16801
830.941	16740
831.08	16786
831.219	16885
831.357	16793
831.496	16987
831.635	16873
831.774	16721
831.913	16687
832.051	16550
832.19	16596
832.329	16668
832.467	16561
832.606	16390
832.744	16318
832.883	16512
833.022	16512
833.16	16504
833.299	16508
833.437	16409
833.576	16516
833.714	16512
833.852	16630
833.991	16596
834.129	16592
834.267	16626
834.406	16512
834.544	16470
834.682	16523
834.821	16550
834.959	16752
835.097	16451
835.235	16531
835.373	16500
835.511	16474
835.65	16497
835.788	16588
835.926	16284
836.064	16329
836.202	16253
836.34	16440
836.478	16626
836.615	16303
836.753	16440
836.891	16504
837.029	16573
837.167	16432
837.305	16318
837.443	16299
837.58	16230
837.718	16390
837.856	16337
837.993	16185
838.131	16329
838.269	16238
838.406	16188
838.544	16234
838.681	15941
838.819	16044
838.956	15827
839.094	15827
839.231	15816
839.369	15972
839.506	16223
839.643	16120
839.781	15892
839.918	15831
840.055	15778
840.193	15884
840.33	15778
840.467	15770
840.604	15766
840.742	16112
840.879	15667
841.016	15660
841.153	15770
841.29	15987
841.427	15899
841.564	15949
841.701	15857
841.838	15804
841.975	15739
842.112	15819
842.249	15610
842.385	15644
842.522	15778
842.659	15682
842.796	15549
842.933	15587
843.069	15519
843.206	15564
843.343	15713
843.479	15641
843.616	15614
843.752	15408
843.889	15454
844.025	15561
844.162	15359
844.298	15519
844.435	15450
844.571	15389
844.708	15389
844.844	15538
844.98	15534
845.117	15500
845.253	15272
845.389	15302
845.525	15298
845.661	15310
845.798	15077
845.934	15233
846.07	15097
846.206	15226
846.342	15355
846.478	15233
846.614	15017
846.75	14941
846.886	14979
847.022	15032
847.158	15017
847.294	14956
847.429	15131
847.565	14845
847.701	15173
847.837	14682
847.972	14625
848.108	14773
848.244	14758
848.379	14617
848.515	14644
848.65	14579
848.786	14579
848.921	14686
849.057	14583
849.192	14621
849.328	14579
849.463	14606
849.598	14522
849.734	14522
849.869	14450
850.004	14339
850.14	14442
850.275	14381
850.41	14324
850.545	14415
850.68	14294
850.815	14339
850.95	14320
851.085	14511
851.22	14423
851.355	14374
851.49	14267
851.625	14358
851.76	14294
851.895	14294
852.03	14187
852.165	14218
852.299	14381
852.434	14488
852.569	14431
852.703	14370
852.838	14377
852.973	14648
853.107	14431
853.242	14347
853.376	14225
853.511	14115
853.645	14172
853.78	14377
853.914	14271
854.048	14183
854.183	14259
854.317	14199
854.451	14412
854.585	14202
854.72	14206
854.854	14305
854.988	14126
855.122	14313
855.256	14073
855.39	14161
855.524	14290
855.658	14248
855.792	14263
855.926	14336
856.06	14286
856.194	14347
856.327	14298
856.461	14107
856.595	14142
856.729	14214
856.862	14305
856.996	14298
857.13	14290
857.263	14374
857.397	14358
857.53	14259
857.664	14324
857.797	14313
857.931	14309
858.064	14275
858.197	14358
858.331	14229
858.464	14286
858.597	14183
858.731	14301
858.864	14259
858.997	14191
859.13	14248
859.263	14313
859.396	14358
859.529	14187
859.662	14237
859.795	14218
859.928	14195
860.061	14377
860.194	14351
860.327	14256
860.46	14278
860.592	14290
860.725	14377
860.858	14343
860.99	14164
861.123	14191
861.256	14172
861.388	14195
861.521	14891
861.653	14206
861.786	14008
861.918	14096
862.05	14191
862.183	14088
862.315	14271
862.447	14191
862.58	14267
862.712	14016
862.844	13963
862.976	14031
863.108	14039
863.24	14476
863.372	13921
863.504	13944
863.636	14107
863.768	14035
863.9	13967
864.032	13913
864.164	13955
864.296	14069
864.428	14001
864.559	14024
864.691	14065
864.823	14142
864.954	14035
865.086	14039
865.217	13974
865.349	13928
865.48	14020
865.612	14077
865.743	14161
865.875	14046
866.006	14024
866.137	14008
866.269	14043
866.4	13898
866.531	13898
866.662	13955
866.793	13906
866.924	13906
867.055	13936
867.186	14001
867.317	13932
867.448	13898
867.579	13955
867.71	13898
867.841	13951
867.972	14016
868.103	14054
868.233	14027
868.364	14100
868.495	14020
868.625	14324
868.756	14389
868.886	14180
869.017	14210
869.147	14355
869.278	14339
869.408	14214
869.539	14172
869.669	14309
869.799	14259
869.929	14374
870.06	14328
870.19	14568
870.32	14587
870.45	14613
870.58	14629
870.71	14727
870.84	14678
870.97	14629
871.1	14648
871.23	14826
871.36	14762
871.489	14708
871.619	14785
871.749	14868
871.879	14819
872.008	14883
872.138	14857
872.267	14727
872.397	14765
872.526	14686
872.656	14598
872.785	14712
872.915	14880
873.044	14929
873.173	14956
873.303	14941
873.432	14804
873.561	14971
873.69	14861
873.819	14933
873.948	14952
874.077	14804
874.206	14849
874.335	14864
874.464	15036
874.593	15116
874.722	15058
874.851	15272
874.979	15188
875.108	15275
875.237	15176
875.365	15074
875.494	15252
875.623	15176
875.751	15157
875.88	15256
876.008	15359
876.136	15386
876.265	15603
876.393	15751
876.521	15728
876.65	15701
876.778	15648
876.906	15523
877.034	15614
877.162	15523
877.29	15610
877.418	15622
877.546	15641
877.674	15663
877.802	15679
877.93	15652
878.058	15618
878.185	15633
878.313	15511
878.441	15576
878.568	15557
878.696	15603
878.824	15644
878.951	15679
879.079	15755
879.206	15972
879.333	15793
879.461	15717
879.588	15637
879.715	15717
879.842	15880
879.97	15682
880.097	15500
880.224	15408
880.351	15481
880.478	15473
880.605	15447
880.732	15473
880.859	15682
880.986	15405
881.112	15553
881.239	15279
881.366	15279
881.493	15199
881.619	15131
881.746	15123
881.872	15077
881.999	15032
882.125	15047
882.252	15180
882.378	15176
882.505	15165
882.631	15070
882.757	14948
882.883	14994
883.01	14948
883.136	14906
883.262	14800
883.388	14781
883.514	15017
883.64	15020
883.766	14883
883.892	14659
884.018	14678
884.143	14853
884.269	15085
884.395	14667
884.52	14640
884.646	14606
884.772	14678
884.897	14594
885.023	14693
885.148	14796
885.274	14758
885.399	14712
885.524	14705
885.65	14625
885.775	14689
885.9	14629
886.025	14708
886.15	14636
886.275	14522
886.4	14549
886.525	14590
886.65	14575
886.775	14583
886.9	14705
887.025	14849
887.149	14655
887.274	14461
887.399	14374
887.523	14495
887.648	14442
887.773	14347
887.897	14552
888.021	14514
888.146	14385
888.27	14476
888.395	14556
888.519	14533
888.643	14488
888.767	14507
888.891	14415
889.015	14256
889.139	14396
889.263	14275
889.387	14434
889.511	14514
889.635	14320
889.759	14328
889.883	14267
890.006	14431
890.13	14434
890.254	14233
890.377	14259
890.501	14172
890.624	14103
890.748	14145
890.871	14020
890.995	14134
891.118	13890
891.241	14069
891.364	14123
891.488	14145
891.611	14024
891.734	14035
891.857	14142
891.98	14096
892.103	14008
892.226	13997
892.349	14012
892.471	13917
892.594	13963
892.717	14084
892.839	14001
892.962	14005
893.085	14123
893.207	14058
893.33	13932
893.452	14001
893.575	14050
893.697	14020
893.819	14107
893.941	14218
894.064	14240
894.186	14050
894.308	14001
894.43	14157
894.552	14176
894.674	14229
894.796	14062
894.918	14149
895.04	14111
895.161	14168
895.283	14221
895.405	14084
895.526	14164
895.648	14248
895.769	14081
895.891	14233
896.012	14218
896.134	14233
896.255	14149
896.376	14244
896.498	14336
896.619	14237
896.74	14183
896.861	14263
896.982	14465
897.103	14667
897.224	14484
897.345	14438
897.466	14374
897.587	14484
897.708	14644
897.828	14579
897.949	14511
898.07	14396
898.19	14476
898.311	14579
898.431	14488
898.552	14552
898.672	14598
898.792	14655
898.913	14571
899.033	14454
899.153	14476
899.273	14427
899.393	14362
899.513	14454
899.633	14404
899.753	14442
899.873	14377
899.993	14492
900.113	14431
900.232	14438
900.352	14362
900.472	14267
900.591	14259
900.711	14313
900.83	14259
900.95	14434
901.069	14404
901.189	14214
901.308	13997
901.427	13955
901.546	13868
901.665	13993
901.784	13940
901.904	13868
902.023	13757
902.141	13636
902.26	13514
902.379	13757
902.498	13556
902.617	13502
902.735	13556
902.854	13586
902.973	13460
903.091	13301
903.21	13236
903.328	13278
903.446	13247
903.565	13251
903.683	13129
903.801	13027
903.919	13072
904.038	13080
904.156	12970
904.274	12947
904.392	12856
904.51	12913
904.627	12905
904.745	12985
904.863	12996
904.981	12764
905.098	12662
905.216	12578
905.334	12635
905.451	12559
905.569	12559
905.686	12559
905.803	12642
905.921	12471
906.038	12540
906.155	12410
906.272	12323
906.389	12407
906.506	12224
906.623	12167
906.74	12152
906.857	12045
906.974	12110
907.091	12247
907.208	12414
907.324	12300
907.441	12136
907.557	12034
907.674	11946
907.79	11885
907.907	11992
908.023	11988
908.139	12003
908.256	11889
908.372	11840
908.488	11813
908.604	11748
908.72	11570
908.836	11813
908.952	11649
909.068	11684
909.184	11760
909.3	11714
909.415	11684
909.531	11653
909.647	11528
909.762	11356
909.878	11463
909.993	11467
910.108	11429
910.224	11421
910.339	11467
910.454	11421
910.57	11356
910.685	11292
910.8	11554
910.915	11478
911.03	11292
911.145	11117
911.259	11086
911.374	11208
911.489	11121
911.604	11098
911.718	10976
911.833	10953
911.947	10873
912.062	10824
912.176	10927
912.291	10946
912.405	10976
912.519	11185
912.633	11128
912.748	10953
912.862	10938
912.976	10774
913.09	10668
913.204	10736
913.318	10774
913.431	10946
913.545	10919
913.659	10858
913.772	10725
913.886	10702
914	10672
914.113	10763
914.226	10778
914.34	10778
914.453	10592
914.566	10774
914.68	10653
914.793	10649
914.906	10455
915.019	10386
915.132	10402
915.245	10348
915.358	10459
915.47	10481
915.583	10466
915.696	10527
915.809	10607
915.921	10569
916.034	10344
916.146	10398
916.259	10379
916.371	10504
916.483	10466
916.595	10325
916.708	10379
916.82	10386
916.932	10375
917.044	10344
917.156	10299
917.268	10242
917.38	10421
917.491	10344
917.603	10211
917.715	10413
917.826	10352
917.938	10200
918.049	10181
918.161	10249
918.272	10466
918.384	10352
918.495	10261
918.606	10128
918.717	10055
918.828	10166
918.939	10204
919.05	10051
919.161	10097
919.272	9972
919.383	10044
919.494	10207
919.604	10287
919.715	10261
919.826	10067
919.936	10143
920.047	10261
920.157	10207
920.267	10344
920.378	10188
920.488	10169
920.598	10363
920.708	10519
920.818	10432
920.928	10363
921.038	10519
921.148	10447
921.258	10162
921.368	10097
921.477	10082
921.587	10067
921.697	9941
921.806	10086
921.916	10006
922.025	9797
922.134	9690
922.244	9698
922.353	9800
922.462	9713
922.571	9515
922.68	9519
922.789	9428
922.898	9435
923.007	9420
923.116	9553
923.224	9462
923.333	9481
923.442	9329
923.55	9275
923.659	9348
923.767	9393
923.876	9302
923.984	9355
924.092	9222
924.201	9294
924.309	9283
924.417	9321
924.525	9157
924.633	9329
924.741	10150
924.849	9077
924.956	9203
925.064	9081
925.172	8956
925.279	9009
925.387	9119
925.494	9036
925.602	9199
925.709	9104
925.816	9055
925.924	9104
926.031	9135
926.138	9081
926.245	9062
926.352	9009
926.459	9184
926.566	9218
926.673	8971
926.779	8975
926.886	8944
926.993	8819
927.099	8815
927.206	8743
927.312	8811
927.419	8853
927.525	8823
927.631	8887
927.737	8743
927.843	8720
927.95	8568
928.056	8648
928.162	8750
928.267	8739
928.373	9279
928.479	8743
928.585	8560
928.69	8739
928.796	8792
928.901	8617
929.007	8476
929.112	8636
929.218	8659
929.323	8537
929.428	8560
929.533	8629
929.638	8537
929.743	8473
929.848	8518
929.953	8518
930.058	8412
930.163	8263
930.267	8328
930.372	8476
930.477	8290
930.581	8526
930.685	8412
930.79	8157
930.894	8317
930.998	8221
931.103	8381
931.207	8111
931.311	8027
931.415	7940
931.519	7822
931.623	7704
