Data from test_V78500241_1798.txt Node
Date: Fri Mar 25 14:46:13 CST 2022
User: usil
Spectrometer: V785-0024
Trigger mode: 0
Integration Time (sec): 4.000000E-1
Scans to average: 1
Nonlinearity correction enabled: false
Boxcar width: 0
Storing dark spectrum: false
XAxis mode: Wavelengths
Number of Pixels in Spectrum: 1024
>>>>>Begin Spectral Data<<<<<
801.071	22173
801.214	22036
801.356	21797
801.499	21633
801.641	21523
801.783	21500
801.926	21526
802.068	21450
802.211	21397
802.353	21313
802.496	21081
802.638	21169
802.78	21017
802.923	20971
803.065	20845
803.208	20804
803.35	20800
803.492	20937
803.635	20960
803.777	20960
803.919	20906
804.061	21165
804.204	20986
804.346	20720
804.488	20686
804.63	20872
804.773	20697
804.915	20883
805.057	20944
805.199	20773
805.341	20807
805.483	20960
805.626	20880
805.768	20731
805.91	20678
806.052	20705
806.194	20697
806.336	20861
806.478	20678
806.62	20629
806.762	20670
806.904	20880
807.046	21283
807.188	21051
807.33	21093
807.472	21070
807.614	20880
807.756	21055
807.898	20963
808.04	20853
808.182	20796
808.324	20804
808.465	20979
808.607	21058
808.749	21195
808.891	21283
809.033	21218
809.174	21233
809.316	21047
809.458	21100
809.6	21127
809.741	21340
809.883	21245
810.025	21351
810.166	21207
810.308	21287
810.45	21256
810.591	21161
810.733	21058
810.875	21032
811.016	20929
811.158	20807
811.299	21013
811.441	21131
811.582	21020
811.724	20895
811.865	20925
812.007	20899
812.148	20918
812.29	20895
812.431	21009
812.573	21214
812.714	21363
812.855	21473
812.997	21458
813.138	21625
813.279	21431
813.421	21329
813.562	21439
813.703	21287
813.845	21047
813.986	20762
814.127	20621
814.268	20454
814.41	20492
814.551	20484
814.692	20450
814.833	20396
814.974	20385
815.115	20564
815.256	20343
815.397	20377
815.539	20362
815.68	20210
815.821	20103
815.962	20240
816.103	20202
816.244	20077
816.385	19936
816.526	19913
816.666	19772
816.807	19563
816.948	19757
817.089	19696
817.23	19700
817.371	19613
817.512	19594
817.653	19571
817.793	19529
817.934	19594
818.075	19658
818.216	19590
818.356	19628
818.497	19472
818.638	19354
818.778	19297
818.919	19263
819.06	19255
819.2	19472
819.341	19499
819.481	19594
819.622	19685
819.762	19757
819.903	19677
820.043	19662
820.184	19582
820.324	19590
820.465	19624
820.605	19746
820.746	19563
820.886	19472
821.026	19544
821.167	19567
821.307	19480
821.447	19510
821.588	19350
821.728	19270
821.868	19118
822.008	19023
822.149	18966
822.289	18943
822.429	18726
822.569	18745
822.709	18642
822.849	18490
822.99	18509
823.13	18445
823.27	18456
823.41	18350
823.55	18319
823.69	18304
823.83	18254
823.97	18262
824.11	17939
824.25	17980
824.389	18011
824.529	18159
824.669	18026
824.809	18178
824.949	18129
825.089	18057
825.228	18030
825.368	17847
825.508	17840
825.648	18057
825.787	17916
825.927	17836
826.067	17798
826.206	17798
826.346	17908
826.485	17908
826.625	17897
826.765	17882
826.904	17878
827.044	17562
827.183	17630
827.323	17440
827.462	17543
827.601	17535
827.741	17433
827.88	17501
828.02	17429
828.159	17478
828.298	17596
828.437	17539
828.577	17486
828.716	17653
828.855	17573
828.994	17277
829.134	17349
829.273	17387
829.412	17277
829.551	17265
829.69	17273
829.829	17212
829.968	17299
830.107	17341
830.246	17246
830.385	17216
830.524	17227
830.663	17075
830.802	17083
830.941	16771
831.08	16927
831.219	16927
831.357	17060
831.496	17147
831.635	16889
831.774	16930
831.913	16877
832.051	16740
832.19	16653
832.329	16694
832.467	16687
832.606	16558
832.744	16588
832.883	16580
833.022	16637
833.16	16656
833.299	16683
833.437	16546
833.576	16774
833.714	16653
833.852	16725
833.991	16717
834.129	16767
834.267	16603
834.406	16637
834.544	16740
834.682	16721
834.821	16584
834.959	16725
835.097	16599
835.235	16653
835.373	16752
835.511	16550
835.65	16584
835.788	16443
835.926	16436
836.064	16436
836.202	16356
836.34	16535
836.478	16637
836.615	16698
836.753	16607
836.891	16721
837.029	16630
837.167	16599
837.305	16519
837.443	16436
837.58	16421
837.718	16523
837.856	16447
837.993	16356
838.131	16455
838.269	16341
838.406	16287
838.544	16295
838.681	16139
838.819	16071
838.956	15941
839.094	16006
839.231	16036
839.369	16169
839.506	16363
839.643	16276
839.781	15953
839.918	15960
840.055	15968
840.193	16002
840.33	16078
840.467	15994
840.604	16032
840.742	16329
840.879	15884
841.016	16021
841.153	15907
841.29	15968
841.427	15937
841.564	16025
841.701	16040
841.838	15953
841.975	15907
842.112	15922
842.249	15785
842.385	15850
842.522	15918
842.659	15819
842.796	15720
842.933	15766
843.069	15774
843.206	15724
843.343	15804
843.479	15850
843.616	15759
843.752	15641
843.889	15378
844.025	15717
844.162	15542
844.298	15622
844.435	15572
844.571	15496
844.708	15530
844.844	15778
844.98	15747
845.117	15584
845.253	15469
845.389	15481
845.525	15572
845.661	15542
845.798	15363
845.934	15355
846.07	15306
846.206	15332
846.342	15450
846.478	15405
846.614	15169
846.75	15058
846.886	15150
847.022	15199
847.158	15199
847.294	15051
847.429	15142
847.565	15036
847.701	15450
847.837	14910
847.972	14807
848.108	14937
848.244	14899
848.379	14914
848.515	14864
848.65	14720
848.786	14659
848.921	14781
849.057	14815
849.192	14857
849.328	14765
849.463	14724
849.598	14667
849.734	14689
849.869	14511
850.004	14514
850.14	14541
850.275	14503
850.41	14476
850.545	14511
850.68	14480
850.815	14594
850.95	14408
851.085	14625
851.22	14590
851.355	14533
851.49	14400
851.625	14404
851.76	14393
851.895	14366
852.03	14450
852.165	14442
852.299	14492
852.434	14613
852.569	14461
852.703	14522
852.838	14537
852.973	14693
853.107	14625
853.242	14514
853.376	14400
853.511	14290
853.645	14362
853.78	14419
853.914	14343
854.048	14366
854.183	14366
854.317	14484
854.451	14495
854.585	14469
854.72	14370
854.854	14461
854.988	14233
855.122	14393
855.256	14183
855.39	14301
855.524	14389
855.658	14336
855.792	14404
855.926	14476
856.06	14518
856.194	14476
856.327	14358
856.461	14320
856.595	14298
856.729	14377
856.862	14393
856.996	14434
857.13	14469
857.263	14590
857.397	14385
857.53	14461
857.664	14362
857.797	14495
857.931	14514
858.064	14332
858.197	14465
858.331	14377
858.464	14324
858.597	14282
858.731	14324
858.864	14347
858.997	14263
859.13	14328
859.263	14412
859.396	14503
859.529	14438
859.662	14355
859.795	14309
859.928	14442
860.061	14518
860.194	14522
860.327	14461
860.46	14419
860.592	14461
860.725	14526
860.858	14495
860.99	14492
861.123	14248
861.256	14389
861.388	14381
861.521	15032
861.653	14298
861.786	14161
861.918	14351
862.05	14347
862.183	14252
862.315	14366
862.447	14473
862.58	14218
862.712	14214
862.844	14073
862.976	14195
863.108	14267
863.24	14530
863.372	14043
863.504	14065
863.636	14145
863.768	14210
863.9	14172
864.032	14088
864.164	14111
864.296	14229
864.428	14237
864.559	14225
864.691	14168
864.823	14233
864.954	14244
865.086	14111
865.217	14027
865.349	14126
865.48	14123
865.612	14199
865.743	14278
865.875	14164
866.006	14073
866.137	14164
866.269	14123
866.4	14183
866.531	14115
866.662	14039
866.793	14050
866.924	14081
867.055	14145
867.186	14107
867.317	13955
867.448	14073
867.579	14016
867.71	14134
867.841	14050
867.972	14172
868.103	14153
868.233	14084
868.364	14073
868.495	14240
868.625	14404
868.756	14434
868.886	14328
869.017	14351
869.147	14461
869.278	14503
869.408	14427
869.539	14313
869.669	14461
869.799	14476
869.929	14454
870.06	14503
870.19	14720
870.32	14606
870.45	14838
870.58	14720
870.71	14895
870.84	14819
870.97	14746
871.1	14712
871.23	14895
871.36	14952
871.489	14914
871.619	14929
871.749	14895
871.879	15032
872.008	15009
872.138	14990
872.267	14902
872.397	14819
872.526	14887
872.656	14857
872.785	14811
872.915	14941
873.044	15100
873.173	15047
873.303	15001
873.432	15097
873.561	15062
873.69	15043
873.819	14994
873.948	15093
874.077	15028
874.206	14990
874.335	15176
874.464	15131
874.593	15321
874.722	15287
874.851	15462
874.979	15310
875.108	15317
875.237	15218
875.365	15294
875.494	15332
875.623	15450
875.751	15214
875.88	15428
876.008	15496
876.136	15553
876.265	15808
876.393	15922
876.521	15800
876.65	15903
876.778	15766
876.906	15751
877.034	15751
877.162	15785
877.29	15614
877.418	15781
877.546	15755
877.674	15732
877.802	15800
877.93	15698
878.058	15698
878.185	15694
878.313	15732
878.441	15747
878.568	15618
878.696	15648
878.824	15800
878.951	15774
879.079	16013
879.206	16040
879.333	15941
879.461	15751
879.588	15838
879.715	15903
879.842	16116
879.97	15800
880.097	15553
880.224	15561
880.351	15599
880.478	15694
880.605	15713
880.732	15629
880.859	15911
880.986	15660
881.112	15641
881.239	15416
881.366	15272
881.493	15294
881.619	15173
881.746	15226
881.872	15272
881.999	15180
882.125	15195
882.252	15321
882.378	15233
882.505	15466
882.631	15214
882.757	15097
882.883	15097
883.01	14982
883.136	15119
883.262	15017
883.388	14895
883.514	15161
883.64	15176
883.766	14994
883.892	14883
884.018	14921
884.143	15184
884.269	15176
884.395	14902
884.52	14849
884.646	14773
884.772	14629
884.897	14625
885.023	14857
885.148	14887
885.274	14975
885.399	14967
885.524	14754
885.65	14842
885.775	14845
885.9	14769
886.025	14861
886.15	14781
886.275	14720
886.4	14678
886.525	14708
886.65	14785
886.775	14636
886.9	14845
887.025	15036
887.149	14712
887.274	14689
887.399	14610
887.523	14575
887.648	14461
887.773	14514
887.897	14606
888.021	14613
888.146	14602
888.27	14712
888.395	14720
888.519	14670
888.643	14648
888.767	14708
888.891	14587
889.015	14404
889.139	14526
889.263	14415
889.387	14568
889.511	14686
889.635	14651
889.759	14427
889.883	14400
890.006	14507
890.13	14575
890.254	14488
890.377	14431
890.501	14233
890.624	14298
890.748	14324
890.871	14149
890.995	14081
891.118	13982
891.241	14206
891.364	14134
891.488	14309
891.611	14263
891.734	14073
891.857	14248
891.98	14206
892.103	14301
892.226	14149
892.349	14103
892.471	13989
892.594	14206
892.717	14100
892.839	14096
892.962	14229
893.085	14233
893.207	14145
893.33	14031
893.452	14062
893.575	14123
893.697	14183
893.819	14313
893.941	14404
894.064	14305
894.186	14126
894.308	14123
894.43	14237
894.552	14374
894.674	14374
894.796	14084
894.918	14214
895.04	14176
895.161	14362
895.283	14309
895.405	14161
895.526	14244
895.648	14290
895.769	14358
895.891	14328
896.012	14377
896.134	14271
896.255	14358
896.376	14301
896.498	14355
896.619	14313
896.74	14324
896.861	14320
896.982	14735
897.103	14849
897.224	14587
897.345	14594
897.466	14484
897.587	14560
897.708	14670
897.828	14640
897.949	14583
898.07	14457
898.19	14495
898.311	14815
898.431	14587
898.552	14655
898.672	14743
898.792	14689
898.913	14781
899.033	14632
899.153	14602
899.273	14492
899.393	14457
899.513	14473
899.633	14511
899.753	14556
899.873	14499
899.993	14644
900.113	14602
900.232	14560
900.352	14503
900.472	14438
900.591	14366
900.711	14415
900.83	14339
900.95	14522
901.069	14530
901.189	14320
901.308	14134
901.427	14111
901.546	14119
901.665	14081
901.784	14138
901.904	13951
902.023	13864
902.141	13757
902.26	13571
902.379	13791
902.498	13746
902.617	13567
902.735	13658
902.854	13620
902.973	13601
903.091	13297
903.21	13331
903.328	13377
903.446	13346
903.565	13133
903.683	13179
903.801	13103
903.919	13194
904.038	13171
904.156	13076
904.274	13110
904.392	13065
904.51	12966
904.627	12985
904.745	13126
904.863	13107
904.981	12837
905.098	12802
905.216	12787
905.334	12741
905.451	12662
905.569	12665
905.686	12753
905.803	12760
905.921	12566
906.038	12616
906.155	12688
906.272	12559
906.389	12445
906.506	12285
906.623	12334
906.74	12285
906.857	12213
906.974	12239
907.091	12327
907.208	12418
907.324	12361
907.441	12262
907.557	12068
907.674	12049
907.79	11950
907.907	12053
908.023	12095
908.139	12125
908.256	12011
908.372	12064
908.488	12019
908.604	11863
908.72	11859
908.836	11843
908.952	11722
909.068	11794
909.184	11942
909.3	11798
909.415	11882
909.531	11840
909.647	11623
909.762	11600
909.878	11600
909.993	11684
910.108	11592
910.224	11649
910.339	11509
910.454	11535
910.57	11391
910.685	11433
910.8	11680
910.915	11634
911.03	11448
911.145	11307
911.259	11273
911.374	11227
911.489	11223
911.604	11189
911.718	11033
911.833	11045
911.947	10934
912.062	10961
912.176	10965
912.291	11075
912.405	10987
912.519	11189
912.633	11307
912.748	11094
912.862	11064
912.976	10915
913.09	10831
913.204	10858
913.318	10896
913.431	11090
913.545	10885
913.659	11014
913.772	10881
913.886	10831
914	10809
914.113	10889
914.226	10961
914.34	10771
914.453	10717
914.566	10816
914.68	10763
914.793	10835
914.906	10561
915.019	10569
915.132	10485
915.245	10603
915.358	10607
915.47	10542
915.583	10580
915.696	10607
915.809	10668
915.921	10683
916.034	10538
916.146	10504
916.259	10466
916.371	10603
916.483	10508
916.595	10474
916.708	10542
916.82	10481
916.932	10459
917.044	10500
917.156	10379
917.268	10428
917.38	10386
917.491	10287
917.603	10322
917.715	10344
917.826	10451
917.938	10348
918.049	10246
918.161	10314
918.272	10451
918.384	10432
918.495	10318
918.606	10280
918.717	10192
918.828	10249
918.939	10284
919.05	10147
919.161	10223
919.272	10101
919.383	10105
919.494	10295
919.604	10493
919.715	10280
919.826	10185
919.936	10257
920.047	10367
920.157	10341
920.267	10462
920.378	10261
920.488	10253
920.598	10451
920.708	10577
920.818	10447
920.928	10478
921.038	10637
921.148	10561
921.258	10333
921.368	10284
921.477	10063
921.587	10059
921.697	9987
921.806	10082
921.916	10021
922.025	9895
922.134	9823
922.244	9800
922.353	9895
922.462	9736
922.571	9606
922.68	9519
922.789	9507
922.898	9564
923.007	9485
923.116	9561
923.224	9561
923.333	9572
923.442	9389
923.55	9332
923.659	9412
923.767	9523
923.876	9382
923.984	9477
924.092	9294
924.201	9424
924.309	9355
924.417	9431
924.525	9348
924.633	9363
924.741	10257
924.849	9157
924.956	9283
925.064	9142
925.172	9157
925.279	9081
925.387	9279
925.494	9188
925.602	9256
925.709	9226
925.816	9169
925.924	9249
926.031	9222
926.138	9184
926.245	9249
926.352	9108
926.459	9287
926.566	9253
926.673	9131
926.779	9081
926.886	9085
926.993	8975
927.099	8895
927.206	8891
927.312	8918
927.419	9005
927.525	8925
927.631	8933
927.737	8804
927.843	8834
927.95	8689
928.056	8773
928.162	8887
928.267	8868
928.373	9538
928.479	8937
928.585	8617
928.69	8792
928.796	8857
928.901	8731
929.007	8583
929.112	8788
929.218	8667
929.323	8689
929.428	8667
929.533	8735
929.638	8640
929.743	8625
929.848	8678
929.953	8571
930.058	8587
930.163	8522
930.267	8362
930.372	8526
930.477	8400
930.581	8697
930.685	8431
930.79	8317
930.894	8389
930.998	8324
931.103	8419
931.207	8084
931.311	8149
931.415	8020
931.519	7780
931.623	7788
