Data from test_V78500241_3673.txt Node
Date: Fri Mar 25 14:59:17 CST 2022
User: usil
Spectrometer: V785-0024
Trigger mode: 0
Integration Time (sec): 4.000000E-1
Scans to average: 1
Nonlinearity correction enabled: false
Boxcar width: 0
Storing dark spectrum: false
XAxis mode: Wavelengths
Number of Pixels in Spectrum: 1024
>>>>>Begin Spectral Data<<<<<
801.071	21911
801.214	21755
801.356	21545
801.499	21492
801.641	21272
801.783	21245
801.926	21291
802.068	21169
802.211	21188
802.353	20948
802.496	20811
802.638	20758
802.78	20674
802.923	20746
803.065	20667
803.208	20541
803.35	20682
803.492	20655
803.635	20743
803.777	20583
803.919	20781
804.061	20952
804.204	20754
804.346	20511
804.488	20518
804.63	20636
804.773	20514
804.915	20488
805.057	20587
805.199	20423
805.341	20545
805.483	20583
805.626	20678
805.768	20476
805.91	20568
806.052	20537
806.194	20400
806.336	20560
806.478	20385
806.62	20374
806.762	20564
806.904	20667
807.046	20861
807.188	20796
807.33	20785
807.472	20906
807.614	20689
807.756	20686
807.898	20648
808.04	20556
808.182	20450
808.324	20613
808.465	20621
808.607	20651
808.749	20941
808.891	20864
809.033	21047
809.174	20895
809.316	20807
809.458	20853
809.6	20842
809.741	20777
809.883	20834
810.025	21020
810.166	21081
810.308	21009
810.45	21051
810.591	20758
810.733	20651
810.875	20564
811.016	20594
811.158	20484
811.299	20667
811.441	20689
811.582	20796
811.724	20640
811.865	20606
812.007	20556
812.148	20556
812.29	20629
812.431	20750
812.573	20872
812.714	21100
812.855	21165
812.997	21195
813.138	21294
813.279	21112
813.421	21020
813.562	21138
813.703	20887
813.845	20800
813.986	20438
814.127	20259
814.268	20157
814.41	20092
814.551	20164
814.692	20176
814.833	20031
814.974	20142
815.115	20016
815.256	19993
815.397	19955
815.539	20050
815.68	20046
815.821	19791
815.962	19902
816.103	19841
816.244	19772
816.385	19521
816.526	19567
816.666	19411
816.807	19244
816.948	19381
817.089	19438
817.23	19388
817.371	19392
817.512	19232
817.653	19251
817.793	19301
817.934	19110
818.075	19369
818.216	19221
818.356	19221
818.497	19080
818.638	19057
818.778	18897
818.919	19015
819.06	19046
819.2	19046
819.341	19168
819.481	19190
819.622	19255
819.762	19514
819.903	19320
820.043	19324
820.184	19247
820.324	19251
820.465	19320
820.605	19247
820.746	19263
820.886	19069
821.026	19194
821.167	19168
821.307	19324
821.447	19228
821.588	19072
821.728	19012
821.868	18798
822.008	18859
822.149	18669
822.289	18654
822.429	18486
822.569	18342
822.709	18350
822.849	18140
822.99	18106
823.13	18174
823.27	18110
823.41	18011
823.55	17939
823.69	18030
823.83	18102
823.97	17878
824.11	17699
824.25	17756
824.389	17676
824.529	17802
824.669	17817
824.809	17901
824.949	17832
825.089	17809
825.228	17752
825.368	17630
825.508	17490
825.648	17398
825.787	17577
825.927	17672
826.067	17608
826.206	17543
826.346	17509
826.485	17577
826.625	17611
826.765	17680
826.904	17604
827.044	17280
827.183	17254
827.323	17254
827.462	17326
827.601	17220
827.741	17174
827.88	17200
828.02	17185
828.159	17254
828.298	17227
828.437	17277
828.577	17235
828.716	17330
828.855	17181
828.994	16991
829.134	17033
829.273	17045
829.412	16873
829.551	16927
829.69	16957
829.829	17029
829.968	17155
830.107	17003
830.246	16999
830.385	16889
830.524	16771
830.663	16752
830.802	16790
830.941	16706
831.08	16462
831.219	16656
831.357	16672
831.496	16816
831.635	16653
831.774	16424
831.913	16470
832.051	16443
832.19	16390
832.329	16424
832.467	16344
832.606	16268
832.744	16257
832.883	16310
833.022	16162
833.16	16291
833.299	16478
833.437	16348
833.576	16367
833.714	16421
833.852	16390
833.991	16424
834.129	16360
834.267	16363
834.406	16280
834.544	16459
834.682	16356
834.821	16356
834.959	16584
835.097	16329
835.235	16599
835.373	16375
835.511	16497
835.65	16280
835.788	16287
835.926	16128
836.064	16082
836.202	16101
836.34	16356
836.478	16337
836.615	16223
836.753	16276
836.891	16398
837.029	16318
837.167	16242
837.305	16185
837.443	16135
837.58	16032
837.718	16249
837.856	16154
837.993	16059
838.131	16200
838.269	16105
838.406	16036
838.544	16025
838.681	15823
838.819	15903
838.956	15739
839.094	15663
839.231	15800
839.369	15850
839.506	16249
839.643	15960
839.781	15808
839.918	15682
840.055	15713
840.193	15675
840.33	15625
840.467	15732
840.604	15781
840.742	15907
840.879	15633
841.016	15648
841.153	15637
841.29	15800
841.427	15812
841.564	15652
841.701	15717
841.838	15595
841.975	15603
842.112	15576
842.249	15504
842.385	15431
842.522	15739
842.659	15587
842.796	15553
842.933	15504
843.069	15439
843.206	15466
843.343	15625
843.479	15485
843.616	15424
843.752	15226
843.889	15291
844.025	15576
844.162	15298
844.298	15439
844.435	15363
844.571	15302
844.708	15351
844.844	15412
844.98	15363
845.117	15401
845.253	15203
845.389	15131
845.525	15218
845.661	15108
845.798	15066
845.934	15123
846.07	15028
846.206	15127
846.342	15218
846.478	15066
846.614	14902
846.75	14857
846.886	14811
847.022	14956
847.158	14910
847.294	14918
847.429	14838
847.565	14891
847.701	15024
847.837	14632
847.972	14617
848.108	14678
848.244	14640
848.379	14552
848.515	14450
848.65	14469
848.786	14431
848.921	14461
849.057	14522
849.192	14686
849.328	14465
849.463	14396
849.598	14423
849.734	14370
849.869	14286
850.004	14282
850.14	14317
850.275	14164
850.41	14278
850.545	14183
850.68	14259
850.815	14240
850.95	14256
851.085	14339
851.22	14320
851.355	14351
851.49	14180
851.625	14233
851.76	14168
851.895	14096
852.03	14149
852.165	14157
852.299	14145
852.434	14328
852.569	14210
852.703	14263
852.838	14332
852.973	14396
853.107	14412
853.242	14199
853.376	14043
853.511	14092
853.645	14024
853.78	14164
853.914	14092
854.048	14054
854.183	13978
854.317	14081
854.451	14263
854.585	14134
854.72	14065
854.854	14130
854.988	14046
855.122	14050
855.256	14005
855.39	14020
855.524	14164
855.658	14115
855.792	14123
855.926	14142
856.06	14130
856.194	14237
856.327	14103
856.461	14172
856.595	14126
856.729	14046
856.862	14218
856.996	14115
857.13	14149
857.263	14225
857.397	14244
857.53	14065
857.664	14191
857.797	14161
857.931	14259
858.064	14103
858.197	14252
858.331	14081
858.464	14058
858.597	14027
858.731	14130
858.864	14119
858.997	14088
859.13	14168
859.263	14119
859.396	14202
859.529	14016
859.662	14031
859.795	14145
859.928	14100
860.061	14229
860.194	14286
860.327	14119
860.46	14176
860.592	14214
860.725	14237
860.858	14164
860.99	14096
861.123	14069
861.256	13978
861.388	14130
861.521	14754
861.653	13967
861.786	13986
861.918	13871
862.05	14058
862.183	14123
862.315	14069
862.447	14142
862.58	14008
862.712	13830
862.844	13738
862.976	13936
863.108	13974
863.24	14218
863.372	13917
863.504	13879
863.636	13864
863.768	13898
863.9	13811
864.032	13852
864.164	13830
864.296	13864
864.428	14031
864.559	13986
864.691	14084
864.823	13944
864.954	14008
865.086	13982
865.217	13883
865.349	13772
865.48	13883
865.612	13932
865.743	14046
865.875	13906
866.006	13925
866.137	13856
866.269	13898
866.4	13921
866.531	13776
866.662	13799
866.793	13826
866.924	13913
867.055	13902
867.186	13849
867.317	13818
867.448	13719
867.579	13776
867.71	13723
867.841	13883
867.972	13947
868.103	13982
868.233	13845
868.364	13845
868.495	13974
868.625	14149
868.756	14237
868.886	14058
869.017	14096
869.147	14199
869.278	14199
869.408	14149
869.539	14115
869.669	14244
869.799	14126
869.929	14305
870.06	14210
870.19	14393
870.32	14503
870.45	14476
870.58	14476
870.71	14651
870.84	14602
870.97	14495
871.1	14480
871.23	14648
871.36	14750
871.489	14636
871.619	14739
871.749	14727
871.879	14754
872.008	14861
872.138	14701
872.267	14663
872.397	14640
872.526	14613
872.656	14438
872.785	14556
872.915	14819
873.044	14807
873.173	14819
873.303	14819
873.432	14796
873.561	14845
873.69	14804
873.819	14746
873.948	14857
874.077	14811
874.206	14720
874.335	14891
874.464	15009
874.593	15100
874.722	15039
874.851	15127
874.979	15058
875.108	15135
875.237	14967
875.365	15009
875.494	15039
875.623	15165
875.751	15104
875.88	15108
876.008	15291
876.136	15363
876.265	15500
876.393	15739
876.521	15584
876.65	15641
876.778	15538
876.906	15466
877.034	15405
877.162	15511
877.29	15504
877.418	15515
877.546	15443
877.674	15450
877.802	15519
877.93	15439
878.058	15542
878.185	15443
878.313	15511
878.441	15584
878.568	15359
878.696	15488
878.824	15469
878.951	15603
879.079	15709
879.206	15854
879.333	15637
879.461	15584
879.588	15648
879.715	15686
879.842	15831
879.97	15568
880.097	15428
880.224	15313
880.351	15378
880.478	15405
880.605	15329
880.732	15401
880.859	15709
880.986	15344
881.112	15351
881.239	15256
881.366	15058
881.493	15077
881.619	14986
881.746	14956
881.872	15009
881.999	14998
882.125	15013
882.252	15119
882.378	15024
882.505	15188
882.631	14963
882.757	14842
882.883	14864
883.01	14861
883.136	14773
883.262	14777
883.388	14758
883.514	14887
883.64	14872
883.766	14807
883.892	14697
884.018	14682
884.143	14838
884.269	14971
884.395	14594
884.52	14469
884.646	14583
884.772	14461
884.897	14389
885.023	14511
885.148	14731
885.274	14762
885.399	14705
885.524	14537
885.65	14507
885.775	14602
885.9	14583
886.025	14765
886.15	14594
886.275	14564
886.4	14473
886.525	14514
886.65	14480
886.775	14533
886.9	14708
887.025	14735
887.149	14552
887.274	14393
887.399	14396
887.523	14362
887.648	14237
887.773	14286
887.897	14511
888.021	14358
888.146	14396
888.27	14454
888.395	14499
888.519	14564
888.643	14450
888.767	14438
888.891	14347
889.015	14278
889.139	14324
889.263	14271
889.387	14355
889.511	14427
889.635	14396
889.759	14366
889.883	14278
890.006	14191
890.13	14377
890.254	14233
890.377	14214
890.501	14123
890.624	14046
890.748	14092
890.871	14035
890.995	13932
891.118	13811
891.241	13921
891.364	14035
891.488	14111
891.611	14084
891.734	13951
891.857	13997
891.98	14001
892.103	13944
892.226	13970
892.349	13860
892.471	13906
892.594	13940
892.717	13951
892.839	13944
892.962	13890
893.085	13978
893.207	13963
893.33	13818
893.452	13864
893.575	13959
893.697	13940
893.819	14084
893.941	14233
894.064	14123
894.186	13955
894.308	13967
894.43	14134
894.552	14145
894.674	14126
894.796	13936
894.918	13970
895.04	13986
895.161	14065
895.283	14050
895.405	14012
895.526	13997
895.648	14008
895.769	14145
895.891	14115
896.012	14237
896.134	14130
896.255	14092
896.376	14111
896.498	14153
896.619	14221
896.74	14084
896.861	14183
896.982	14427
897.103	14552
897.224	14465
897.345	14358
897.466	14248
897.587	14507
897.708	14571
897.828	14385
897.949	14393
898.07	14164
898.19	14339
898.311	14476
898.431	14362
898.552	14469
898.672	14564
898.792	14533
898.913	14454
899.033	14400
899.153	14320
899.273	14240
899.393	14214
899.513	14351
899.633	14351
899.753	14374
899.873	14290
899.993	14332
900.113	14355
900.232	14381
900.352	14271
900.472	14229
900.591	14210
900.711	14214
900.83	14199
900.95	14161
901.069	14248
901.189	14180
901.308	14001
901.427	13849
901.546	13837
901.665	13833
901.784	13860
901.904	13757
902.023	13605
902.141	13453
902.26	13521
902.379	13533
902.498	13487
902.617	13396
902.735	13415
902.854	13419
902.973	13312
903.091	13179
903.21	13141
903.328	13110
903.446	13088
903.565	13008
903.683	13137
903.801	12901
903.919	12970
904.038	13004
904.156	12871
904.274	12958
904.392	12886
904.51	12757
904.627	12802
904.745	12935
904.863	12901
904.981	12673
905.098	12555
905.216	12528
905.334	12585
905.451	12620
905.569	12604
905.686	12452
905.803	12532
905.921	12277
906.038	12384
906.155	12334
906.272	12224
906.389	12330
906.506	12083
906.623	12152
906.74	12155
906.857	11984
906.974	12102
907.091	12220
907.208	12216
907.324	12106
907.441	12030
907.557	11874
907.674	11878
907.79	11805
907.907	11866
908.023	11977
908.139	11813
908.256	11836
908.372	11760
908.488	11882
908.604	11642
908.72	11570
908.836	11619
908.952	11668
909.068	11649
909.184	11824
909.3	11676
909.415	11619
909.531	11672
909.647	11425
909.762	11353
909.878	11322
909.993	11440
910.108	11345
910.224	11326
910.339	11337
910.454	11334
910.57	11273
910.685	11193
910.8	11486
910.915	11364
911.03	11307
911.145	11117
911.259	11048
911.374	11105
911.489	11014
911.604	11033
911.718	10889
911.833	10949
911.947	10759
912.062	10656
912.176	10858
912.291	10831
912.405	10892
912.519	11128
912.633	11086
912.748	10965
912.862	10873
912.976	10763
913.09	10565
913.204	10717
913.318	10805
913.431	10892
913.545	10881
913.659	10812
913.772	10812
913.886	10637
914	10687
914.113	10786
914.226	10774
914.34	10782
914.453	10637
914.566	10797
914.68	10626
914.793	10679
914.906	10459
915.019	10367
915.132	10325
915.245	10386
915.358	10398
915.47	10535
915.583	10428
915.696	10459
915.809	10531
915.921	10596
916.034	10367
916.146	10363
916.259	10337
916.371	10424
916.483	10512
916.595	10356
916.708	10333
916.82	10276
916.932	10344
917.044	10459
917.156	10382
917.268	10268
917.38	10272
917.491	10192
917.603	10261
917.715	10409
917.826	10360
917.938	10272
918.049	10158
918.161	10287
918.272	10344
918.384	10409
918.495	10276
918.606	10177
918.717	10105
918.828	10188
918.939	10204
919.05	10097
919.161	10086
919.272	9888
919.383	9975
919.494	10230
919.604	10390
919.715	10204
919.826	10097
919.936	10055
920.047	10253
920.157	10204
920.267	10363
920.378	10181
920.488	10059
920.598	10363
920.708	10466
920.818	10333
920.928	10295
921.038	10523
921.148	10497
921.258	10147
921.368	10131
921.477	10044
921.587	10029
921.697	9854
921.806	10067
921.916	9930
922.025	9778
922.134	9717
922.244	9675
922.353	9797
922.462	9656
922.571	9572
922.68	9412
922.789	9378
922.898	9408
923.007	9317
923.116	9428
923.224	9439
923.333	9424
923.442	9317
923.55	9268
923.659	9344
923.767	9389
923.876	9306
923.984	9397
924.092	9165
924.201	9253
924.309	9287
924.417	9317
924.525	9188
924.633	9249
924.741	10013
924.849	9039
924.956	9127
925.064	9085
925.172	9024
925.279	8952
925.387	9097
925.494	9154
925.602	9241
925.709	9138
925.816	9024
925.924	9081
926.031	9173
926.138	9108
926.245	9100
926.352	8956
926.459	9195
926.566	9142
926.673	9005
926.779	8979
926.886	8948
926.993	8758
927.099	8762
927.206	8705
927.312	8667
927.419	8788
927.525	8815
927.631	8781
927.737	8663
927.843	8693
927.95	8625
928.056	8705
928.162	8648
928.267	8636
928.373	9203
928.479	8800
928.585	8552
928.69	8701
928.796	8708
928.901	8644
929.007	8396
929.112	8678
929.218	8590
929.323	8537
929.428	8571
929.533	8636
929.638	8412
929.743	8404
929.848	8575
929.953	8450
930.058	8339
930.163	8225
930.267	8271
930.372	8461
930.477	8263
930.581	8457
930.685	8355
930.79	8123
930.894	8225
930.998	8176
931.103	8400
931.207	8039
931.311	7932
931.415	7917
931.519	7788
931.623	7700
