Data from test_V78500241_1009.txt Node
Date: Fri Mar 25 14:40:44 CST 2022
User: usil
Spectrometer: V785-0024
Trigger mode: 0
Integration Time (sec): 4.000000E-1
Scans to average: 1
Nonlinearity correction enabled: false
Boxcar width: 0
Storing dark spectrum: false
XAxis mode: Wavelengths
Number of Pixels in Spectrum: 1024
>>>>>Begin Spectral Data<<<<<
801.071	23216
801.214	22866
801.356	22767
801.499	22565
801.641	22481
801.783	22333
801.926	22466
802.068	22333
802.211	22242
802.353	22188
802.496	21960
802.638	21804
802.78	21915
802.923	21766
803.065	21728
803.208	21679
803.35	21637
803.492	21915
803.635	21899
803.777	21827
803.919	21842
804.061	22078
804.204	21743
804.346	21667
804.488	21587
804.63	21644
804.773	21542
804.915	21743
805.057	21857
805.199	21724
805.341	21838
805.483	21846
805.626	21831
805.768	21717
805.91	21873
806.052	21755
806.194	21663
806.336	21899
806.478	21739
806.62	21823
806.762	21857
806.904	21793
807.046	22215
807.188	22162
807.33	22147
807.472	22322
807.614	22246
807.756	22272
807.898	22265
808.04	22261
808.182	22169
808.324	22459
808.465	22580
808.607	22927
808.749	23098
808.891	23322
809.033	23429
809.174	23136
809.316	22976
809.458	22911
809.6	22615
809.741	22721
809.883	22550
810.025	22538
810.166	22565
810.308	22497
810.45	22485
810.591	22314
810.733	22158
810.875	22040
811.016	22025
811.158	21983
811.299	21983
811.441	22090
811.582	22021
811.724	21937
811.865	21941
812.007	21861
812.148	21953
812.29	22036
812.431	22093
812.573	22322
812.714	22409
812.855	22432
812.997	22577
813.138	22733
813.279	22504
813.421	22402
813.562	22299
813.703	22223
813.845	22112
813.986	21804
814.127	21603
814.268	21492
814.41	21549
814.551	21450
814.692	21549
814.833	21317
814.974	21435
815.115	21496
815.256	21241
815.397	21351
815.539	21355
815.68	21188
815.821	21192
815.962	21211
816.103	21173
816.244	21055
816.385	20971
816.526	20918
816.666	20746
816.807	20663
816.948	20693
817.089	20762
817.23	20686
817.371	20659
817.512	20594
817.653	20629
817.793	20480
817.934	20739
818.075	20594
818.216	20537
818.356	20499
818.497	20492
818.638	20210
818.778	20324
818.919	20328
819.06	20210
819.2	20320
819.341	20484
819.481	20480
819.622	20632
819.762	20655
819.903	20796
820.043	20533
820.184	20545
820.324	20609
820.465	20644
820.605	20701
820.746	20625
820.886	20457
821.026	20537
821.167	20518
821.307	20579
821.447	20575
821.588	20473
821.728	20317
821.868	20126
822.008	20016
822.149	20039
822.289	19841
822.429	19681
822.569	19628
822.709	19620
822.849	19430
822.99	19518
823.13	19362
823.27	19312
823.41	19304
823.55	19141
823.69	19354
823.83	19324
823.97	19080
824.11	19050
824.25	18989
824.389	19072
824.529	19042
824.669	19012
824.809	19183
824.949	18973
825.089	19160
825.228	19107
825.368	18913
825.508	18871
825.648	18913
825.787	19019
825.927	18886
826.067	18810
826.206	18738
826.346	18916
826.485	18810
826.625	18852
826.765	18981
826.904	18871
827.044	18574
827.183	18563
827.323	18475
827.462	18544
827.601	18555
827.741	18467
827.88	18486
828.02	18388
828.159	18547
828.298	18509
828.437	18521
828.577	18612
828.716	18654
828.855	18547
828.994	18346
829.134	18209
829.273	18281
829.412	18201
829.551	18247
829.69	18300
829.829	18209
829.968	18395
830.107	18239
830.246	18289
830.385	18133
830.524	18068
830.663	17958
830.802	17965
830.941	17916
831.08	17794
831.219	18007
831.357	17939
831.496	17984
831.635	17897
831.774	17741
831.913	17859
832.051	17672
832.19	17623
832.329	17729
832.467	17509
832.606	17509
832.744	17592
832.883	17539
833.022	17532
833.16	17642
833.299	17570
833.437	17630
833.576	17604
833.714	17691
833.852	17649
833.991	17680
834.129	17707
834.267	17722
834.406	17661
834.544	17726
834.682	17627
834.821	17657
834.959	17775
835.097	17547
835.235	17756
835.373	17581
835.511	17630
835.65	17501
835.788	17520
835.926	17337
836.064	17277
836.202	17277
836.34	17509
836.478	17653
836.615	17516
836.753	17543
836.891	17551
837.029	17524
837.167	17414
837.305	17425
837.443	17421
837.58	17326
837.718	17467
837.856	17326
837.993	17349
838.131	17296
838.269	17299
838.406	17277
838.544	17208
838.681	17109
838.819	16927
838.956	16953
839.094	16877
839.231	17010
839.369	17014
839.506	17239
839.643	17140
839.781	16965
839.918	16892
840.055	16866
840.193	16843
840.33	16881
840.467	16881
840.604	17022
840.742	17204
840.879	16729
841.016	16740
841.153	16805
841.29	16957
841.427	16824
841.564	16942
841.701	16892
841.838	16839
841.975	16778
842.112	16839
842.249	16698
842.385	16683
842.522	16911
842.659	16721
842.796	16558
842.933	16729
843.069	16558
843.206	16497
843.343	16759
843.479	16653
843.616	16580
843.752	16436
843.889	16459
844.025	16710
844.162	16333
844.298	16500
844.435	16447
844.571	16470
844.708	16538
844.844	16645
844.98	16691
845.117	16565
845.253	16538
845.389	16656
845.525	16748
845.661	16965
845.798	17132
845.934	17581
846.07	17528
846.206	17566
846.342	17436
846.478	17067
846.614	16485
846.75	16287
846.886	16188
847.022	16177
847.158	16063
847.294	15972
847.429	16048
847.565	15903
847.701	16238
847.837	15736
847.972	15720
848.108	15827
848.244	15838
848.379	15648
848.515	15553
848.65	15538
848.786	15644
848.921	15557
849.057	15717
849.192	15656
849.328	15618
849.463	15591
849.598	15515
849.734	15473
849.869	15355
850.004	15310
850.14	15355
850.275	15306
850.41	15310
850.545	15226
850.68	15408
850.815	15310
850.95	15336
851.085	15530
851.22	15397
851.355	15325
851.49	15317
851.625	15176
851.76	15237
851.895	15306
852.03	15207
852.165	15279
852.299	15367
852.434	15393
852.569	15348
852.703	15359
852.838	15496
852.973	15469
853.107	15454
853.242	15268
853.376	15260
853.511	15093
853.645	15093
853.78	15264
853.914	15150
854.048	15123
854.183	15195
854.317	15154
854.451	15336
854.585	15184
854.72	15108
854.854	15332
854.988	15131
855.122	15157
855.256	14975
855.39	15127
855.524	15283
855.658	15230
855.792	15203
855.926	15142
856.06	15222
856.194	15298
856.327	15252
856.461	14956
856.595	15154
856.729	15237
856.862	15317
856.996	15252
857.13	15287
857.263	15340
857.397	15302
857.53	15165
857.664	15336
857.797	15272
857.931	15165
858.064	15241
858.197	15233
858.331	15131
858.464	15119
858.597	15119
858.731	15199
858.864	15184
858.997	15138
859.13	15142
859.263	15230
859.396	15184
859.529	15112
859.662	15062
859.795	15119
859.928	15226
860.061	15378
860.194	15348
860.327	15245
860.46	15100
860.592	15321
860.725	15348
860.858	15340
860.99	15233
861.123	15112
861.256	15055
861.388	15165
861.521	15827
861.653	15089
861.786	14979
861.918	15100
862.05	15119
862.183	15081
862.315	15222
862.447	15146
862.58	15161
862.712	14982
862.844	14868
862.976	15055
863.108	14990
863.24	15332
863.372	14804
863.504	14941
863.636	14937
863.768	14967
863.9	14944
864.032	14895
864.164	14796
864.296	14899
864.428	14998
864.559	15051
864.691	14902
864.823	14952
864.954	15013
865.086	15024
865.217	14872
865.349	14910
865.48	15005
865.612	14975
865.743	15062
865.875	14994
866.006	14918
866.137	14906
866.269	14971
866.4	14826
866.531	14834
866.662	14929
866.793	14921
866.924	14830
867.055	14929
867.186	14910
867.317	14921
867.448	14891
867.579	14910
867.71	14785
867.841	14868
867.972	14853
868.103	14986
868.233	14910
868.364	14929
868.495	15013
868.625	15142
868.756	15351
868.886	15138
869.017	15127
869.147	15207
869.278	15321
869.408	15161
869.539	15188
869.669	15298
869.799	15264
869.929	15256
870.06	15268
870.19	15488
870.32	15443
870.45	15431
870.58	15606
870.71	15648
870.84	15625
870.97	15618
871.1	15587
871.23	15648
871.36	15766
871.489	15610
871.619	15739
871.749	15660
871.879	15774
872.008	15972
872.138	15804
872.267	15854
872.397	15633
872.526	15568
872.656	15545
872.785	15610
872.915	15797
873.044	15819
873.173	15804
873.303	15819
873.432	15793
873.561	15930
873.69	15857
873.819	15804
873.948	15903
874.077	15884
874.206	15762
874.335	15816
874.464	16025
874.593	16181
874.722	16097
874.851	16143
874.979	16135
875.108	16116
875.237	16101
875.365	16093
875.494	16112
875.623	16162
875.751	16067
875.88	16112
876.008	16280
876.136	16382
876.265	16584
876.393	16615
876.521	16607
876.65	16622
876.778	16565
876.906	16535
877.034	16443
877.162	16626
877.29	16645
877.418	16550
877.546	16565
877.674	16558
877.802	16603
877.93	16497
878.058	16565
878.185	16584
878.313	16535
878.441	16778
878.568	16546
878.696	16653
878.824	16793
878.951	16892
879.079	17102
879.206	17170
879.333	17220
879.461	17025
879.588	17265
879.715	17383
879.842	17429
879.97	17105
880.097	16717
880.224	16713
880.351	16748
880.478	16592
880.605	16573
880.732	16588
880.859	16767
880.986	16531
881.112	16577
881.239	16527
881.366	16226
881.493	16128
881.619	16272
881.746	16169
881.872	16185
881.999	16143
882.125	16166
882.252	16325
882.378	16215
882.505	16341
882.631	16124
882.757	15941
882.883	16025
883.01	16044
883.136	15991
883.262	15907
883.388	15846
883.514	15937
883.64	16063
883.766	16017
883.892	15854
884.018	15915
884.143	16040
884.269	16078
884.395	15899
884.52	15606
884.646	15774
884.772	15660
884.897	15610
885.023	15766
885.148	15850
885.274	15880
885.399	15819
885.524	15781
885.65	15679
885.775	15747
885.9	15667
886.025	15785
886.15	15774
886.275	15682
886.4	15519
886.525	15717
886.65	15637
886.775	15591
886.9	15823
887.025	15842
887.149	15622
887.274	15496
887.399	15469
887.523	15355
887.648	15382
887.773	15428
887.897	15473
888.021	15492
888.146	15291
888.27	15473
888.395	15625
888.519	15447
888.643	15466
888.767	15428
888.891	15412
889.015	15203
889.139	15359
889.263	15207
889.387	15405
889.511	15526
889.635	15389
889.759	15294
889.883	15233
890.006	15161
890.13	15252
890.254	15157
890.377	15180
890.501	15150
890.624	15108
890.748	15055
890.871	15039
890.995	14891
891.118	14845
891.241	14857
891.364	14956
891.488	14956
891.611	14891
891.734	14887
891.857	14967
891.98	15020
892.103	15036
892.226	14857
892.349	14838
892.471	14815
892.594	14800
892.717	14899
892.839	14868
892.962	14960
893.085	14998
893.207	14967
893.33	14823
893.452	14811
893.575	14937
893.697	14868
893.819	15051
893.941	15055
894.064	14960
894.186	14880
894.308	14746
894.43	15085
894.552	15051
894.674	14937
894.796	14830
894.918	14979
895.04	14899
895.161	15036
895.283	14941
895.405	14990
895.526	15020
895.648	14986
895.769	15024
895.891	14971
896.012	15089
896.134	15123
896.255	14979
896.376	14933
896.498	15051
896.619	15024
896.74	15051
896.861	15085
896.982	15344
897.103	15549
897.224	15325
897.345	15332
897.466	15233
897.587	15336
897.708	15439
897.828	15291
897.949	15252
898.07	15169
898.19	15313
898.311	15359
898.431	15180
898.552	15355
898.672	15504
898.792	15382
898.913	15321
899.033	15340
899.153	15279
899.273	15089
899.393	15161
899.513	15252
899.633	15150
899.753	15245
899.873	15272
899.993	15230
900.113	15146
900.232	15173
900.352	15184
900.472	15199
900.591	14952
900.711	15020
900.83	15001
900.95	15192
901.069	15180
901.189	15043
901.308	14887
901.427	14785
901.546	14708
901.665	14762
901.784	14769
901.904	14533
902.023	14564
902.141	14457
902.26	14233
902.379	14427
902.498	14332
902.617	14309
902.735	14408
902.854	14282
902.973	14343
903.091	13978
903.21	14020
903.328	14031
903.446	13913
903.565	13814
903.683	13776
903.801	13772
903.919	13833
904.038	13845
904.156	13693
904.274	13769
904.392	13613
904.51	13578
904.627	13643
904.745	13772
904.863	13674
904.981	13483
905.098	13320
905.216	13270
905.334	13381
905.451	13354
905.569	13289
905.686	13339
905.803	13346
905.921	13149
906.038	13179
906.155	13183
906.272	13072
906.389	13019
906.506	12981
906.623	12932
906.74	12939
906.857	12776
906.974	12810
907.091	12962
907.208	13027
907.324	12928
907.441	12829
907.557	12604
907.674	12620
907.79	12544
907.907	12593
908.023	12707
908.139	12696
908.256	12532
908.372	12631
908.488	12441
908.604	12422
908.72	12388
908.836	12403
908.952	12380
909.068	12361
909.184	12445
909.3	12395
909.415	12464
909.531	12407
909.647	12258
909.762	12175
909.878	12125
909.993	12106
910.108	12098
910.224	12087
910.339	12117
910.454	12091
910.57	11984
910.685	11927
910.8	12254
910.915	12129
911.03	11992
911.145	11897
911.259	11821
911.374	11893
911.489	11726
911.604	11783
911.718	11577
911.833	11570
911.947	11520
912.062	11444
912.176	11646
912.291	11611
912.405	11558
912.519	11737
912.633	11752
912.748	11646
912.862	11589
912.976	11444
913.09	11337
913.204	11452
913.318	11448
913.431	11501
913.545	11581
913.659	11649
913.772	11444
913.886	11349
914	11334
914.113	11410
914.226	11429
914.34	11288
914.453	11189
914.566	11455
914.68	11372
914.793	11216
914.906	11117
915.019	10995
915.132	11033
915.245	11037
915.358	11045
915.47	11025
915.583	11056
915.696	11105
915.809	11250
915.921	11155
916.034	11029
916.146	11010
916.259	11033
916.371	11239
916.483	11052
916.595	10976
916.708	10999
916.82	10972
916.932	10987
917.044	10911
917.156	10873
917.268	10820
917.38	10908
917.491	10896
917.603	10862
917.715	10843
917.826	10927
917.938	10949
918.049	10835
918.161	10831
918.272	11060
918.384	11018
918.495	10980
918.606	10729
918.717	10698
918.828	10721
918.939	10805
919.05	10645
919.161	10645
919.272	10561
919.383	10561
919.494	10767
919.604	11010
919.715	10763
919.826	10618
919.936	10744
920.047	10839
920.157	10782
920.267	10896
920.378	10767
920.488	10649
920.598	10908
920.708	11041
920.818	10934
920.928	10984
921.038	11162
921.148	11045
921.258	10782
921.368	10687
921.477	10615
921.587	10497
921.697	10436
921.806	10637
921.916	10424
922.025	10329
922.134	10291
922.244	10192
922.353	10272
922.462	10147
922.571	10101
922.68	9922
922.789	9968
922.898	9983
923.007	9903
923.116	9972
923.224	9930
923.333	9968
923.442	9907
923.55	9808
923.659	9842
923.767	9918
923.876	9827
923.984	9842
924.092	9747
924.201	9747
924.309	9876
924.417	9835
924.525	9701
924.633	9740
924.741	10706
924.849	9641
924.956	9762
925.064	9633
925.172	9526
925.279	9526
925.387	9561
925.494	9568
925.602	9709
925.709	9675
925.816	9500
925.924	9557
926.031	9625
926.138	9584
926.245	9622
926.352	9443
926.459	9667
926.566	9648
926.673	9473
926.779	9447
926.886	9458
926.993	9363
927.099	9233
927.206	9176
927.312	9222
927.419	9256
927.525	9313
927.631	9344
927.737	9233
927.843	9226
927.95	9119
928.056	9184
928.162	9176
928.267	9237
928.373	9690
928.479	9249
928.585	9066
928.69	9237
928.796	9294
928.901	9062
929.007	8952
929.112	9112
929.218	9112
929.323	8979
929.428	9066
929.533	9089
929.638	8948
929.743	8967
929.848	8967
929.953	9020
930.058	8891
930.163	8781
930.267	8758
930.372	8899
930.477	8750
930.581	9024
930.685	8906
930.79	8617
930.894	8720
930.998	8594
931.103	8800
931.207	8454
931.311	8431
931.415	8408
931.519	8153
931.623	8191
