Data from test_V78500241_1270.txt Node
Date: Fri Mar 25 14:42:33 CST 2022
User: usil
Spectrometer: V785-0024
Trigger mode: 0
Integration Time (sec): 4.000000E-1
Scans to average: 1
Nonlinearity correction enabled: false
Boxcar width: 0
Storing dark spectrum: false
XAxis mode: Wavelengths
Number of Pixels in Spectrum: 1024
>>>>>Begin Spectral Data<<<<<
801.071	22386
801.214	22261
801.356	21991
801.499	21979
801.641	21663
801.783	21660
801.926	21747
802.068	21656
802.211	21538
802.353	21583
802.496	21367
802.638	21260
802.78	21203
802.923	21180
803.065	21062
803.208	20933
803.35	21146
803.492	21039
803.635	21146
803.777	21096
803.919	21211
804.061	21363
804.204	21195
804.346	20941
804.488	21001
804.63	21055
804.773	20883
804.915	21047
805.057	21100
805.199	21013
805.341	21032
805.483	21093
805.626	21169
805.768	20982
805.91	21020
806.052	20982
806.194	20883
806.336	21116
806.478	20956
806.62	20849
806.762	21074
806.904	21237
807.046	21367
807.188	21397
807.33	21317
807.472	21332
807.614	21268
807.756	21313
807.898	21180
808.04	21096
808.182	21028
808.324	21165
808.465	21211
808.607	21363
808.749	21591
808.891	21675
809.033	21713
809.174	21660
809.316	21393
809.458	21439
809.6	21485
809.741	21431
809.883	21492
810.025	21603
810.166	21580
810.308	21572
810.45	21515
810.591	21344
810.733	21408
810.875	21203
811.016	21001
811.158	20990
811.299	21241
811.441	21283
811.582	21222
811.724	21108
811.865	21211
812.007	21096
812.148	21203
812.29	21310
812.431	21401
812.573	21416
812.714	21637
812.855	21694
812.997	21759
813.138	21880
813.279	21751
813.421	21625
813.562	21644
813.703	21336
813.845	21302
813.986	21070
814.127	20891
814.268	20876
814.41	20705
814.551	20739
814.692	20845
814.833	20579
814.974	20644
815.115	20731
815.256	20594
815.397	20560
815.539	20556
815.68	20492
815.821	20366
815.962	20415
816.103	20480
816.244	20244
816.385	20294
816.526	20191
816.666	19986
816.807	19890
816.948	19940
817.089	20008
817.23	19967
817.371	19989
817.512	19917
817.653	19944
817.793	19871
817.934	19871
818.075	19879
818.216	19970
818.356	19712
818.497	19811
818.638	19575
818.778	19502
818.919	19487
819.06	19677
819.2	19704
819.341	19772
819.481	19708
819.622	19967
819.762	20115
819.903	20050
820.043	19856
820.184	19955
820.324	19959
820.465	19795
820.605	19879
820.746	19814
820.886	19658
821.026	19830
821.167	19700
821.307	19986
821.447	19814
821.588	19601
821.728	19548
821.868	19548
822.008	19274
822.149	19259
822.289	19187
822.429	19034
822.569	19023
822.709	18920
822.849	18844
822.99	18814
823.13	18764
823.27	18692
823.41	18506
823.55	18471
823.69	18585
823.83	18559
823.97	18471
824.11	18353
824.25	18410
824.389	18464
824.529	18365
824.669	18346
824.809	18441
824.949	18437
825.089	18452
825.228	18479
825.368	18087
825.508	18171
825.648	18197
825.787	18201
825.927	18258
826.067	18155
826.206	18095
826.346	18159
826.485	18152
826.625	18201
826.765	18353
826.904	18243
827.044	17878
827.183	17855
827.323	17733
827.462	17908
827.601	17866
827.741	17836
827.88	17939
828.02	17718
828.159	17775
828.298	17821
828.437	17889
828.577	17824
828.716	17958
828.855	17832
828.994	17608
829.134	17638
829.273	17668
829.412	17532
829.551	17509
829.69	17600
829.829	17562
829.968	17627
830.107	17600
830.246	17524
830.385	17440
830.524	17558
830.663	17398
830.802	17261
830.941	17174
831.08	17102
831.219	17277
831.357	17296
831.496	17452
831.635	17025
831.774	17231
831.913	17079
832.051	16961
832.19	17037
832.329	16972
832.467	17045
832.606	16805
832.744	16873
832.883	16991
833.022	16820
833.16	16885
833.299	16953
833.437	16927
833.576	17003
833.714	16908
833.852	17052
833.991	16957
834.129	17147
834.267	16919
834.406	16949
834.544	17029
834.682	16919
834.821	16999
834.959	17064
835.097	17048
835.235	17037
835.373	16987
835.511	16976
835.65	16786
835.788	16843
835.926	16778
836.064	16615
836.202	16725
836.34	16862
836.478	16949
836.615	16752
836.753	16889
836.891	16965
837.029	16866
837.167	16835
837.305	16767
837.443	16767
837.58	16630
837.718	16911
837.856	16748
837.993	16694
838.131	16763
838.269	16649
838.406	16702
838.544	16603
838.681	16356
838.819	16360
838.956	16226
839.094	16207
839.231	16299
839.369	16462
839.506	16554
839.643	16405
839.781	16451
839.918	16306
840.055	16333
840.193	16367
840.33	16280
840.467	16188
840.604	16337
840.742	16432
840.879	16173
841.016	16249
841.153	16166
841.29	16371
841.427	16211
841.564	16405
841.701	16333
841.838	16219
841.975	16147
842.112	16204
842.249	16112
842.385	16067
842.522	16238
842.659	16185
842.796	16021
842.933	16021
843.069	15994
843.206	15998
843.343	16071
843.479	16086
843.616	16021
843.752	15854
843.889	15869
844.025	15979
844.162	15842
844.298	15991
844.435	15846
844.571	15884
844.708	15884
844.844	16055
844.98	16078
845.117	16002
845.253	15800
845.389	15709
845.525	15797
845.661	15778
845.798	15720
845.934	15911
846.07	15793
846.206	15835
846.342	15835
846.478	15739
846.614	15549
846.75	15488
846.886	15428
847.022	15458
847.158	15340
847.294	15386
847.429	15450
847.565	15424
847.701	15606
847.837	15119
847.972	15135
848.108	15291
848.244	15169
848.379	15055
848.515	15013
848.65	14914
848.786	15051
848.921	15039
849.057	15135
849.192	15161
849.328	15192
849.463	15093
849.598	15032
849.734	14941
849.869	14819
850.004	14815
850.14	14819
850.275	14750
850.41	14697
850.545	14712
850.68	14872
850.815	14720
850.95	14727
851.085	14971
851.22	14876
851.355	14762
851.49	14727
851.625	14777
851.76	14731
851.895	14632
852.03	14689
852.165	14815
852.299	14792
852.434	14819
852.569	14853
852.703	14861
852.838	14849
852.973	14880
853.107	14960
853.242	14785
853.376	14590
853.511	14511
853.645	14640
853.78	14891
853.914	14777
854.048	14644
854.183	14674
854.317	14682
854.451	14796
854.585	14579
854.72	14617
854.854	14705
854.988	14579
855.122	14648
855.256	14427
855.39	14560
855.524	14697
855.658	14644
855.792	14735
855.926	14735
856.06	14705
856.194	14720
856.327	14705
856.461	14533
856.595	14625
856.729	14579
856.862	14720
856.996	14667
857.13	14739
857.263	14796
857.397	14735
857.53	14648
857.664	14716
857.797	14693
857.931	14655
858.064	14663
858.197	14769
858.331	14636
858.464	14590
858.597	14499
858.731	14655
858.864	14610
858.997	14667
859.13	14667
859.263	14663
859.396	14815
859.529	14625
859.662	14560
859.795	14541
859.928	14648
860.061	14800
860.194	14880
860.327	14686
860.46	14724
860.592	14754
860.725	14857
860.858	14743
860.99	14727
861.123	14522
861.256	14598
861.388	14678
861.521	15370
861.653	14610
861.786	14480
861.918	14533
862.05	14511
862.183	14670
862.315	14651
862.447	14617
862.58	14537
862.712	14362
862.844	14381
862.976	14514
863.108	14457
863.24	14819
863.372	14282
863.504	14476
863.636	14465
863.768	14484
863.9	14514
864.032	14461
864.164	14282
864.296	14431
864.428	14522
864.559	14613
864.691	14484
864.823	14454
864.954	14484
865.086	14415
865.217	14385
865.349	14301
865.48	14374
865.612	14377
865.743	14575
865.875	14457
866.006	14343
866.137	14370
866.269	14469
866.4	14415
866.531	14366
866.662	14358
866.793	14393
866.924	14351
867.055	14450
867.186	14347
867.317	14343
867.448	14355
867.579	14396
867.71	14252
867.841	14301
867.972	14419
868.103	14442
868.233	14400
868.364	14457
868.495	14454
868.625	14693
868.756	14796
868.886	14613
869.017	14598
869.147	14815
869.278	14769
869.408	14712
869.539	14693
869.669	14758
869.799	14640
869.929	14758
870.06	14853
870.19	15047
870.32	14902
870.45	15032
870.58	14971
870.71	15161
870.84	15157
870.97	15020
871.1	15036
871.23	15252
871.36	15310
871.489	15176
871.619	15268
871.749	15192
871.879	15241
872.008	15302
872.138	15256
872.267	15249
872.397	15165
872.526	15036
872.656	14967
872.785	15135
872.915	15249
873.044	15351
873.173	15245
873.303	15310
873.432	15405
873.561	15355
873.69	15382
873.819	15310
873.948	15367
874.077	15291
874.206	15211
874.335	15355
874.464	15526
874.593	15523
874.722	15462
874.851	15580
874.979	15720
875.108	15637
875.237	15614
875.365	15576
875.494	15553
875.623	15698
875.751	15610
875.88	15652
876.008	15743
876.136	15800
876.265	16082
876.393	16257
876.521	16006
876.65	16082
876.778	16173
876.906	15968
877.034	15991
877.162	16082
877.29	15975
877.418	15998
877.546	15987
877.674	16082
877.802	15987
877.93	16078
878.058	15983
878.185	15899
878.313	16040
878.441	15907
878.568	15907
878.696	15975
878.824	15987
878.951	16048
879.079	16249
879.206	16352
879.333	16253
879.461	16196
879.588	16196
879.715	16261
879.842	16390
879.97	16265
880.097	15941
880.224	15907
880.351	15994
880.478	15949
880.605	15842
880.732	15884
880.859	16147
880.986	15842
881.112	15934
881.239	15842
881.366	15652
881.493	15614
881.619	15473
881.746	15523
881.872	15538
881.999	15519
882.125	15420
882.252	15599
882.378	15572
882.505	15785
882.631	15466
882.757	15370
882.883	15504
883.01	15370
883.136	15317
883.262	15252
883.388	15226
883.514	15310
883.64	15397
883.766	15340
883.892	15070
884.018	15294
884.143	15298
884.269	15412
884.395	15116
884.52	15043
884.646	15142
884.772	15074
884.897	14914
885.023	15089
885.148	15195
885.274	15203
885.399	15188
885.524	15047
885.65	15104
885.775	15108
885.9	15055
886.025	15173
886.15	15173
886.275	14998
886.4	14853
886.525	15017
886.65	15051
886.775	15058
886.9	15074
887.025	15135
887.149	15077
887.274	14899
887.399	14864
887.523	14872
887.648	14815
887.773	14800
887.897	14933
888.021	14963
888.146	14689
888.27	14948
888.395	15051
888.519	14887
888.643	14861
888.767	14857
888.891	14792
889.015	14731
889.139	14785
889.263	14640
889.387	14861
889.511	14937
889.635	14823
889.759	14746
889.883	14762
890.006	14785
890.13	14804
890.254	14701
890.377	14648
890.501	14613
890.624	14590
890.748	14602
890.871	14442
890.995	14290
891.118	14332
891.241	14374
891.364	14400
891.488	14514
891.611	14427
891.734	14427
891.857	14454
891.98	14450
892.103	14499
892.226	14480
892.349	14404
892.471	14172
892.594	14389
892.717	14461
892.839	14370
892.962	14465
893.085	14469
893.207	14358
893.33	14149
893.452	14385
893.575	14431
893.697	14320
893.819	14560
893.941	14610
894.064	14541
894.186	14450
894.308	14377
894.43	14526
894.552	14629
894.674	14552
894.796	14313
894.918	14408
895.04	14385
895.161	14571
895.283	14549
895.405	14396
895.526	14552
895.648	14571
895.769	14533
895.891	14537
896.012	14705
896.134	14648
896.255	14617
896.376	14450
896.498	14583
896.619	14606
896.74	14621
896.861	14594
896.982	14929
897.103	15001
897.224	14864
897.345	14910
897.466	14830
897.587	14902
897.708	14937
897.828	14800
897.949	14777
898.07	14735
898.19	14716
898.311	14975
898.431	14804
898.552	14868
898.672	15001
898.792	14960
898.913	14937
899.033	14758
899.153	14678
899.273	14735
899.393	14663
899.513	14720
899.633	14743
899.753	14781
899.873	14739
899.993	14815
900.113	14651
900.232	14701
900.352	14750
900.472	14674
900.591	14636
900.711	14659
900.83	14514
900.95	14686
901.069	14648
901.189	14640
901.308	14450
901.427	14237
901.546	14286
901.665	14301
901.784	14252
901.904	14229
902.023	14084
902.141	13898
902.26	13864
902.379	13913
902.498	13894
902.617	13788
902.735	13936
902.854	13833
902.973	13731
903.091	13434
903.21	13502
903.328	13495
903.446	13518
903.565	13419
903.683	13487
903.801	13263
903.919	13415
904.038	13362
904.156	13221
904.274	13244
904.392	13179
904.51	13118
904.627	13133
904.745	13270
904.863	13266
904.981	12962
905.098	12905
905.216	12939
905.334	12932
905.451	12939
905.569	12840
905.686	12939
905.803	12935
905.921	12810
906.038	12787
906.155	12802
906.272	12658
906.389	12635
906.506	12509
906.623	12517
906.74	12486
906.857	12407
906.974	12452
907.091	12528
907.208	12669
907.324	12506
907.441	12418
907.557	12254
907.674	12285
907.79	12235
907.907	12182
908.023	12247
908.139	12243
908.256	12182
908.372	12167
908.488	12216
908.604	12019
908.72	11984
908.836	11996
908.952	12060
909.068	12026
909.184	12095
909.3	11958
909.415	12121
909.531	11992
909.647	11840
909.762	11878
909.878	11752
909.993	11798
910.108	11760
910.224	11752
910.339	11817
910.454	11722
910.57	11672
910.685	11589
910.8	11866
910.915	11863
911.03	11619
911.145	11596
911.259	11524
911.374	11581
911.489	11372
911.604	11414
911.718	11220
911.833	11311
911.947	11201
912.062	10999
912.176	11189
912.291	11258
912.405	11174
912.519	11436
912.633	11360
912.748	11368
912.862	11280
912.976	11086
913.09	11071
913.204	11006
913.318	11105
913.431	11216
913.545	11193
913.659	11288
913.772	11136
913.886	11033
914	10858
914.113	11121
914.226	11113
914.34	11083
914.453	10934
914.566	11071
914.68	10961
914.793	10873
914.906	10733
915.019	10702
915.132	10698
915.245	10698
915.358	10653
915.47	10797
915.583	10698
915.696	10828
915.809	10904
915.921	10877
916.034	10683
916.146	10634
916.259	10607
916.371	10778
916.483	10744
916.595	10599
916.708	10694
916.82	10637
916.932	10580
917.044	10626
917.156	10622
917.268	10489
917.38	10550
917.491	10611
917.603	10641
917.715	10580
917.826	10550
917.938	10618
918.049	10447
918.161	10542
918.272	10634
918.384	10679
918.495	10550
918.606	10436
918.717	10284
918.828	10485
918.939	10478
919.05	10356
919.161	10394
919.272	10207
919.383	10348
919.494	10531
919.604	10622
919.715	10512
919.826	10344
919.936	10382
920.047	10504
920.157	10478
920.267	10611
920.378	10478
920.488	10459
920.598	10637
920.708	10710
920.818	10637
920.928	10660
921.038	10816
921.148	10748
921.258	10451
921.368	10325
921.477	10337
921.587	10261
921.697	10188
921.806	10280
921.916	10162
922.025	10044
922.134	9934
922.244	9888
922.353	9968
922.462	9846
922.571	9835
922.68	9690
922.789	9637
922.898	9755
923.007	9549
923.116	9804
923.224	9656
923.333	9656
923.442	9580
923.55	9496
923.659	9542
923.767	9606
923.876	9420
923.984	9580
924.092	9435
924.201	9496
924.309	9534
924.417	9572
924.525	9443
924.633	9428
924.741	10295
924.849	9332
924.956	9492
925.064	9355
925.172	9249
925.279	9260
925.387	9294
925.494	9272
925.602	9431
925.709	9424
925.816	9192
925.924	9275
926.031	9317
926.138	9253
926.245	9329
926.352	9272
926.459	9367
926.566	9389
926.673	9279
926.779	9222
926.886	9173
926.993	9001
927.099	8933
927.206	8979
927.312	8952
927.419	9070
927.525	9013
927.631	9112
927.737	8994
927.843	8929
927.95	8815
928.056	8864
928.162	8883
928.267	8994
928.373	9526
928.479	8986
928.585	8758
928.69	8815
928.796	8971
928.901	8849
929.007	8708
929.112	8804
929.218	8811
929.323	8769
929.428	8701
929.533	8914
929.638	8720
929.743	8640
929.848	8887
929.953	8701
930.058	8625
930.163	8442
930.267	8541
930.372	8625
930.477	8503
930.581	8697
930.685	8594
930.79	8526
930.894	8434
930.998	8393
931.103	8511
931.207	8221
931.311	8225
931.415	8130
931.519	7894
931.623	7917
