Data from test_V78500241_2561.txt Node
Date: Fri Mar 25 14:51:32 CST 2022
User: usil
Spectrometer: V785-0024
Trigger mode: 0
Integration Time (sec): 4.000000E-1
Scans to average: 1
Nonlinearity correction enabled: false
Boxcar width: 0
Storing dark spectrum: false
XAxis mode: Wavelengths
Number of Pixels in Spectrum: 1024
>>>>>Begin Spectral Data<<<<<
801.071	22109
801.214	21994
801.356	21694
801.499	21660
801.641	21431
801.783	21313
801.926	21416
802.068	21382
802.211	21222
802.353	21138
802.496	21074
802.638	20937
802.78	20773
802.923	20956
803.065	20663
803.208	20575
803.35	20815
803.492	20746
803.635	20861
803.777	20777
803.919	20845
804.061	21077
804.204	20849
804.346	20739
804.488	20621
804.63	20731
804.773	20579
804.915	20750
805.057	20708
805.199	20590
805.341	20670
805.483	20686
805.626	20731
805.768	20640
805.91	20705
806.052	20594
806.194	20571
806.336	20674
806.478	20670
806.62	20659
806.762	20609
806.904	20834
807.046	20937
807.188	20902
807.33	20956
807.472	21074
807.614	20838
807.756	20807
807.898	20769
808.04	20655
808.182	20644
808.324	20769
808.465	20788
808.607	20853
808.749	21005
808.891	21199
809.033	21165
809.174	21138
809.316	20906
809.458	21066
809.6	21047
809.741	21005
809.883	21039
810.025	21135
810.166	21081
810.308	21180
810.45	21173
810.591	21070
810.733	20826
810.875	20807
811.016	20758
811.158	20724
811.299	20956
811.441	20857
811.582	20720
811.724	20678
811.865	20845
812.007	20743
812.148	20754
812.29	20765
812.431	20944
812.573	21081
812.714	21203
812.855	21256
812.997	21378
813.138	21447
813.279	21397
813.421	21214
813.562	21222
813.703	21116
813.845	20918
813.986	20701
814.127	20328
814.268	20396
814.41	20400
814.551	20286
814.692	20355
814.833	20183
814.974	20324
815.115	20301
815.256	20172
815.397	20218
815.539	20172
815.68	20218
815.821	19955
815.962	20119
816.103	20176
816.244	19906
816.385	19845
816.526	19658
816.666	19613
816.807	19381
816.948	19464
817.089	19582
817.23	19559
817.371	19533
817.512	19460
817.653	19480
817.793	19445
817.934	19407
818.075	19438
818.216	19499
818.356	19392
818.497	19194
818.638	19168
818.778	19133
818.919	19095
819.06	19179
819.2	19358
819.341	19316
819.481	19358
819.622	19449
819.762	19525
819.903	19586
820.043	19449
820.184	19472
820.324	19377
820.465	19552
820.605	19384
820.746	19441
820.886	19335
821.026	19373
821.167	19365
821.307	19487
821.447	19369
821.588	19293
821.728	19190
821.868	18981
822.008	18867
822.149	18840
822.289	18821
822.429	18608
822.569	18433
822.709	18498
822.849	18308
822.99	18308
823.13	18403
823.27	18342
823.41	18114
823.55	18053
823.69	18110
823.83	18178
823.97	18095
824.11	17741
824.25	17916
824.389	17950
824.529	17996
824.669	17901
824.809	18019
824.949	18026
825.089	17935
825.228	17965
825.368	17676
825.508	17691
825.648	17691
825.787	17733
825.927	17779
826.067	17726
826.206	17691
826.346	17771
826.485	17710
826.625	17775
826.765	17695
826.904	17729
827.044	17467
827.183	17402
827.323	17509
827.462	17444
827.601	17326
827.741	17463
827.88	17436
828.02	17322
828.159	17261
828.298	17421
828.437	17425
828.577	17303
828.716	17490
828.855	17322
828.994	17223
829.134	17159
829.273	17102
829.412	17166
829.551	17079
829.69	17200
829.829	17071
829.968	17341
830.107	17212
830.246	17079
830.385	17143
830.524	17113
830.663	16980
830.802	16938
830.941	16824
831.08	16759
831.219	16824
831.357	16771
831.496	16938
831.635	16797
831.774	16653
831.913	16683
832.051	16637
832.19	16584
832.329	16630
832.467	16607
832.606	16447
832.744	16440
832.883	16508
833.022	16447
833.16	16413
833.299	16523
833.437	16462
833.576	16519
833.714	16493
833.852	16478
833.991	16500
834.129	16649
834.267	16588
834.406	16512
834.544	16596
834.682	16603
834.821	16466
834.959	16683
835.097	16497
835.235	16630
835.373	16535
835.511	16523
835.65	16413
835.788	16348
835.926	16291
836.064	16261
836.202	16246
836.34	16436
836.478	16436
836.615	16382
836.753	16466
836.891	16508
837.029	16481
837.167	16329
837.305	16272
837.443	16280
837.58	16341
837.718	16306
837.856	16337
837.993	16291
838.131	16318
838.269	16238
838.406	16265
838.544	16234
838.681	16017
838.819	15991
838.956	15800
839.094	15880
839.231	15869
839.369	15888
839.506	16265
839.643	16025
839.781	15998
839.918	15842
840.055	15808
840.193	15808
840.33	15797
840.467	15762
840.604	15781
840.742	16147
840.879	15694
841.016	15816
841.153	15781
841.29	15907
841.427	15831
841.564	16025
841.701	15846
841.838	15846
841.975	15751
842.112	15949
842.249	15641
842.385	15629
842.522	15861
842.659	15694
842.796	15538
842.933	15606
843.069	15549
843.206	15618
843.343	15663
843.479	15701
843.616	15724
843.752	15450
843.889	15447
844.025	15618
844.162	15416
844.298	15542
844.435	15408
844.571	15397
844.708	15462
844.844	15545
844.98	15618
845.117	15439
845.253	15279
845.389	15386
845.525	15412
845.661	15355
845.798	15192
845.934	15245
846.07	15237
846.206	15291
846.342	15382
846.478	15154
846.614	15070
846.75	14956
846.886	15009
847.022	15142
847.158	15036
847.294	15036
847.429	15032
847.565	14921
847.701	15195
847.837	14804
847.972	14655
848.108	14849
848.244	14800
848.379	14659
848.515	14537
848.65	14492
848.786	14583
848.921	14571
849.057	14648
849.192	14746
849.328	14678
849.463	14648
849.598	14655
849.734	14469
849.869	14446
850.004	14347
850.14	14381
850.275	14454
850.41	14259
850.545	14412
850.68	14282
850.815	14351
850.95	14377
851.085	14617
851.22	14434
851.355	14301
851.49	14343
851.625	14229
851.76	14358
851.895	14237
852.03	14206
852.165	14370
852.299	14290
852.434	14381
852.569	14343
852.703	14396
852.838	14347
852.973	14621
853.107	14560
853.242	14233
853.376	14244
853.511	14172
853.645	14065
853.78	14298
853.914	14229
854.048	14218
854.183	14191
854.317	14191
854.451	14415
854.585	14180
854.72	14275
854.854	14267
854.988	14206
855.122	14191
855.256	14138
855.39	14202
855.524	14290
855.658	14347
855.792	14305
855.926	14248
856.06	14263
856.194	14294
856.327	14305
856.461	14130
856.595	14225
856.729	14168
856.862	14225
856.996	14328
857.13	14294
857.263	14290
857.397	14278
857.53	14294
857.664	14218
857.797	14240
857.931	14419
858.064	14259
858.197	14427
858.331	14206
858.464	14233
858.597	14157
858.731	14218
858.864	14225
858.997	14218
859.13	14309
859.263	14237
859.396	14298
859.529	14210
859.662	14195
859.795	14126
859.928	14320
860.061	14396
860.194	14434
860.327	14286
860.46	14324
860.592	14358
860.725	14351
860.858	14328
860.99	14210
861.123	14199
861.256	14218
861.388	14286
861.521	15047
861.653	14180
861.786	14027
861.918	14119
862.05	14138
862.183	14172
862.315	14309
862.447	14233
862.58	14176
862.712	14031
862.844	13883
862.976	14077
863.108	14035
863.24	14423
863.372	13963
863.504	14001
863.636	13978
863.768	14149
863.9	13982
864.032	13940
864.164	14027
864.296	14111
864.428	14138
864.559	14138
864.691	14130
864.823	14039
864.954	13944
865.086	14092
865.217	14020
865.349	13928
865.48	13871
865.612	14016
865.743	14180
865.875	14005
866.006	13944
866.137	13982
866.269	13997
866.4	14016
866.531	14008
866.662	13959
866.793	13932
866.924	13883
867.055	14111
867.186	14024
867.317	13887
867.448	13928
867.579	13955
867.71	13909
867.841	13871
867.972	14020
868.103	13959
868.233	14069
868.364	13982
868.495	14016
868.625	14180
868.756	14336
868.886	14168
869.017	14290
869.147	14347
869.278	14301
869.408	14400
869.539	14191
869.669	14339
869.799	14290
869.929	14324
870.06	14370
870.19	14602
870.32	14549
870.45	14583
870.58	14674
870.71	14807
870.84	14754
870.97	14549
871.1	14689
871.23	14872
871.36	14895
871.489	14693
871.619	14842
871.749	14876
871.879	14921
872.008	14910
872.138	14876
872.267	14800
872.397	14765
872.526	14724
872.656	14587
872.785	14735
872.915	14796
873.044	14952
873.173	14834
873.303	14960
873.432	14895
873.561	15051
873.69	14918
873.819	14918
873.948	14998
874.077	14929
874.206	14887
874.335	14948
874.464	15062
874.593	15188
874.722	15192
874.851	15233
874.979	15146
875.108	15298
875.237	15146
875.365	15180
875.494	15192
875.623	15260
875.751	15081
875.88	15317
876.008	15576
876.136	15477
876.265	15610
876.393	15816
876.521	15720
876.65	15743
876.778	15587
876.906	15652
877.034	15603
877.162	15625
877.29	15614
877.418	15614
877.546	15603
877.674	15584
877.802	15564
877.93	15652
878.058	15557
878.185	15561
878.313	15679
878.441	15644
878.568	15458
878.696	15633
878.824	15701
878.951	15625
879.079	15800
879.206	15964
879.333	15694
879.461	15724
879.588	15709
879.715	15819
879.842	15865
879.97	15717
880.097	15488
880.224	15431
880.351	15450
880.478	15469
880.605	15462
880.732	15401
880.859	15736
880.986	15568
881.112	15462
881.239	15283
881.366	15192
881.493	15135
881.619	15135
881.746	15157
881.872	15173
881.999	15131
882.125	15180
882.252	15188
882.378	15218
882.505	15313
882.631	15146
882.757	15020
882.883	15017
883.01	15047
883.136	14864
883.262	14857
883.388	14762
883.514	14952
883.64	14963
883.766	14914
883.892	14697
884.018	14712
884.143	14902
884.269	15036
884.395	14670
884.52	14655
884.646	14667
884.772	14499
884.897	14606
885.023	14636
885.148	14785
885.274	14765
885.399	14686
885.524	14712
885.65	14674
885.775	14785
885.9	14651
886.025	14754
886.15	14720
886.275	14693
886.4	14613
886.525	14632
886.65	14575
886.775	14613
886.9	14811
887.025	14899
887.149	14651
887.274	14480
887.399	14450
887.523	14507
887.648	14412
887.773	14336
887.897	14484
888.021	14473
888.146	14522
888.27	14606
888.395	14640
888.519	14507
888.643	14625
888.767	14571
888.891	14427
889.015	14377
889.139	14415
889.263	14393
889.387	14358
889.511	14560
889.635	14457
889.759	14324
889.883	14324
890.006	14339
890.13	14469
890.254	14324
890.377	14347
890.501	14107
890.624	14149
890.748	14214
890.871	14168
890.995	14050
891.118	13879
891.241	14157
891.364	14164
891.488	14096
891.611	13978
891.734	14039
891.857	14107
891.98	14065
892.103	14145
892.226	14081
892.349	13986
892.471	13894
892.594	13970
892.717	14012
892.839	14005
892.962	14103
893.085	14107
893.207	14103
893.33	13906
893.452	13951
893.575	14180
893.697	14126
893.819	14240
893.941	14172
894.064	14233
894.186	13967
894.308	14024
894.43	14210
894.552	14248
894.674	14248
894.796	14024
894.918	14081
895.04	14103
895.161	14176
895.283	14149
895.405	14115
895.526	14263
895.648	14123
895.769	14225
895.891	14256
896.012	14244
896.134	14286
896.255	14183
896.376	14183
896.498	14240
896.619	14328
896.74	14294
896.861	14229
896.982	14606
897.103	14762
897.224	14522
897.345	14492
897.466	14374
897.587	14514
897.708	14670
897.828	14632
897.949	14434
898.07	14252
898.19	14412
898.311	14560
898.431	14495
898.552	14594
898.672	14693
898.792	14613
898.913	14545
899.033	14537
899.153	14400
899.273	14332
899.393	14355
899.513	14419
899.633	14385
899.753	14476
899.873	14396
899.993	14537
900.113	14438
900.232	14503
900.352	14381
900.472	14336
900.591	14328
900.711	14358
900.83	14263
900.95	14431
901.069	14438
901.189	14206
901.308	14027
901.427	13883
901.546	13997
901.665	13986
901.784	14027
901.904	13795
902.023	13837
902.141	13567
902.26	13563
902.379	13609
902.498	13499
902.617	13476
902.735	13609
902.854	13537
902.973	13499
903.091	13217
903.21	13255
903.328	13190
903.446	13137
903.565	13118
903.683	13164
903.801	13034
903.919	13152
904.038	13046
904.156	12966
904.274	13004
904.392	12894
904.51	12894
904.627	12852
904.745	12943
904.863	12996
904.981	12764
905.098	12639
905.216	12620
905.334	12631
905.451	12525
905.569	12589
905.686	12658
905.803	12658
905.921	12422
906.038	12536
906.155	12448
906.272	12338
906.389	12422
906.506	12152
906.623	12273
906.74	12182
906.857	12087
906.974	12098
907.091	12247
907.208	12330
907.324	12239
907.441	12114
907.557	11984
907.674	11893
907.79	11908
907.907	11961
908.023	11927
908.139	11870
908.256	11916
908.372	11828
908.488	11794
908.604	11691
908.72	11783
908.836	11722
908.952	11688
909.068	11699
909.184	11851
909.3	11710
909.415	11722
909.531	11710
909.647	11558
909.762	11452
909.878	11501
909.993	11490
910.108	11448
910.224	11417
910.339	11436
910.454	11421
910.57	11227
910.685	11220
910.8	11486
910.915	11452
911.03	11429
911.145	11280
911.259	11155
911.374	11254
911.489	11166
911.604	11083
911.718	10927
911.833	10957
911.947	10911
912.062	10831
912.176	10908
912.291	10930
912.405	10961
912.519	11197
912.633	11155
912.748	11029
912.862	10995
912.976	10904
913.09	10736
913.204	10748
913.318	10847
913.431	10892
913.545	10984
913.659	10980
913.772	10736
913.886	10774
914	10706
914.113	10812
914.226	10877
914.34	10831
914.453	10622
914.566	10771
914.68	10653
914.793	10641
914.906	10531
915.019	10481
915.132	10432
915.245	10409
915.358	10455
915.47	10470
915.583	10485
915.696	10546
915.809	10607
915.921	10698
916.034	10428
916.146	10421
916.259	10409
916.371	10481
916.483	10459
916.595	10402
916.708	10287
916.82	10352
916.932	10356
917.044	10356
917.156	10352
917.268	10303
917.38	10295
917.491	10219
917.603	10318
917.715	10379
917.826	10481
917.938	10299
918.049	10177
918.161	10249
918.272	10432
918.384	10375
918.495	10325
918.606	10173
918.717	10093
918.828	10162
918.939	10158
919.05	10082
919.161	10147
919.272	10006
919.383	10010
919.494	10211
919.604	10497
919.715	10265
919.826	10131
919.936	10059
920.047	10230
920.157	10265
920.267	10398
920.378	10295
920.488	10196
920.598	10394
920.708	10558
920.818	10478
920.928	10398
921.038	10531
921.148	10542
921.258	10242
921.368	10230
921.477	10044
921.587	10040
921.697	9975
921.806	10158
921.916	9972
922.025	9759
922.134	9747
922.244	9686
922.353	9701
922.462	9549
922.571	9572
922.68	9420
922.789	9408
922.898	9450
923.007	9378
923.116	9507
923.224	9370
923.333	9469
923.442	9359
923.55	9283
923.659	9374
923.767	9336
923.876	9233
923.984	9367
924.092	9268
924.201	9291
924.309	9249
924.417	9302
924.525	9268
924.633	9233
924.741	10032
924.849	9062
924.956	9188
925.064	9032
925.172	9013
925.279	9032
925.387	9131
925.494	9169
925.602	9233
925.709	9157
925.816	9005
925.924	9165
926.031	9199
926.138	9097
926.245	9138
926.352	9081
926.459	9165
926.566	9222
926.673	9085
926.779	8933
926.886	8944
926.993	8857
927.099	8876
927.206	8762
927.312	8735
927.419	8845
927.525	8830
927.631	8948
927.737	8716
927.843	8743
927.95	8556
928.056	8724
928.162	8693
928.267	8731
928.373	9344
928.479	8811
928.585	8598
928.69	8720
928.796	8727
928.901	8598
929.007	8514
929.112	8590
929.218	8636
929.323	8636
929.428	8545
929.533	8640
929.638	8450
929.743	8552
929.848	8533
929.953	8530
930.058	8408
930.163	8282
930.267	8301
930.372	8374
930.477	8290
930.581	8480
930.685	8434
930.79	8221
930.894	8305
930.998	8229
931.103	8355
931.207	8008
931.311	7993
931.415	7936
931.519	7742
931.623	7757
