Data from test_V78500241_135.txt Node
Date: Fri Mar 25 14:34:39 CST 2022
User: usil
Spectrometer: V785-0024
Trigger mode: 0
Integration Time (sec): 4.000000E-1
Scans to average: 1
Nonlinearity correction enabled: false
Boxcar width: 0
Storing dark spectrum: false
XAxis mode: Wavelengths
Number of Pixels in Spectrum: 1024
>>>>>Begin Spectral Data<<<<<
801.071	30232
801.214	30091
801.356	29859
801.499	29805
801.641	29722
801.783	29414
801.926	29623
802.068	29478
802.211	29368
802.353	29356
802.496	29258
802.638	29254
802.78	29200
802.923	29098
803.065	29041
803.208	29079
803.35	29155
803.492	29170
803.635	29345
803.777	29330
803.919	29387
804.061	29726
804.204	29402
804.346	29410
804.488	29223
804.63	29280
804.773	29216
804.915	29433
805.057	29512
805.199	29372
805.341	29699
805.483	29862
805.626	29729
805.768	29558
805.91	29836
806.052	30041
806.194	30015
806.336	30357
806.478	30152
806.62	30342
806.762	30612
806.904	30909
807.046	31312
807.188	31506
807.33	31704
807.472	32218
807.614	32686
807.756	33317
807.898	33899
808.04	35018
808.182	36296
808.324	37925
808.465	40040
808.607	42174
808.749	44111
808.891	45146
809.033	45325
809.174	44012
809.316	42102
809.458	39831
809.6	37734
809.741	35824
809.883	34649
810.025	33758
810.166	33009
810.308	32442
810.45	32039
810.591	31655
810.733	31308
810.875	31015
811.016	30810
811.158	30589
811.299	30654
811.441	30639
811.582	30475
811.724	30281
811.865	30083
812.007	30159
812.148	30026
812.29	30148
812.431	30216
812.573	30376
812.714	30319
812.855	30319
812.997	30391
813.138	30616
813.279	30391
813.421	30300
813.562	30239
813.703	30098
813.845	29965
813.986	29729
814.127	29425
814.268	29318
814.41	29128
814.551	29185
814.692	29261
814.833	29003
814.974	29181
815.115	29121
815.256	28847
815.397	29006
815.539	28888
815.68	28717
815.821	28782
815.962	28797
816.103	28771
816.244	28634
816.385	28603
816.526	28516
816.666	28249
816.807	27968
816.948	28139
817.089	28067
817.23	28112
817.371	27983
817.512	28013
817.653	27895
817.793	27979
817.934	28040
818.075	28013
818.216	28029
818.356	27926
818.497	27953
818.638	27774
818.778	27781
818.919	27720
819.06	27861
819.2	27869
819.341	28040
819.481	27888
819.622	28166
819.762	28135
819.903	28135
820.043	28090
820.184	27949
820.324	27926
820.465	28013
820.605	27869
820.746	27762
820.886	27770
821.026	27732
821.167	27850
821.307	27857
821.447	27667
821.588	27599
821.728	27504
821.868	27154
822.008	27138
822.149	27131
822.289	27089
822.429	26918
822.569	26765
822.709	26842
822.849	26655
822.99	26537
823.13	26499
823.27	26499
823.41	26374
823.55	26240
823.69	26400
823.83	26366
823.97	26305
824.11	26271
824.25	26126
824.389	26088
824.529	26103
824.669	26111
824.809	26290
824.949	26248
825.089	26092
825.228	26278
825.368	25993
825.508	25887
825.648	26103
825.787	25868
825.927	25982
826.067	25837
826.206	25966
826.346	26001
826.485	26054
826.625	25959
826.765	26092
826.904	25928
827.044	25712
827.183	25658
827.323	25666
827.462	25658
827.601	25521
827.741	25476
827.88	25571
828.02	25506
828.159	25529
828.298	25502
828.437	25586
828.577	25552
828.716	25590
828.855	25510
828.994	25343
829.134	25247
829.273	25331
829.412	25164
829.551	25255
829.69	25217
829.829	25266
829.968	25308
830.107	25263
830.246	25327
830.385	25137
830.524	25148
830.663	25050
830.802	24875
830.941	24837
831.08	24707
831.219	24852
831.357	24833
831.496	24954
831.635	24768
831.774	24787
831.913	24722
832.051	24631
832.19	24620
832.329	24726
832.467	24490
832.606	24528
832.744	24475
832.883	24585
833.022	24544
833.16	24665
833.299	24783
833.437	24764
833.576	24989
833.714	24981
833.852	25122
833.991	25266
834.129	25236
834.267	25259
834.406	25160
834.544	25213
834.682	25088
834.821	24973
834.959	25000
835.097	24875
835.235	24825
835.373	24719
835.511	24639
835.65	24372
835.788	24350
835.926	24178
836.064	24083
836.202	24079
836.34	24216
836.478	24315
836.615	24289
836.753	24281
836.891	24346
837.029	24136
837.167	24125
837.305	24102
837.443	24102
837.58	24011
837.718	24091
837.856	24018
837.993	24022
838.131	23912
838.269	23923
838.406	23897
838.544	23775
838.681	23657
838.819	23604
838.956	23433
839.094	23455
839.231	23391
839.369	23699
839.506	23752
839.643	23535
839.781	23436
839.918	23269
840.055	23349
840.193	23349
840.33	23395
840.467	23429
840.604	23322
840.742	23543
840.879	23166
841.016	23246
841.153	23200
841.29	23322
841.427	23330
841.564	23322
841.701	23193
841.838	23315
841.975	23178
842.112	23174
842.249	23094
842.385	22999
842.522	23269
842.659	23052
842.796	23067
842.933	23181
843.069	23102
843.206	23033
843.343	23147
843.479	23174
843.616	23086
843.752	22908
843.889	23079
844.025	23189
844.162	22946
844.298	23181
844.435	23269
844.571	23349
844.708	23482
844.844	23855
844.98	24281
845.117	24597
845.253	24966
845.389	26176
845.525	28462
845.661	32164
845.798	36612
845.934	40329
846.07	41646
846.206	40790
846.342	37989
846.478	33344
846.614	29254
846.75	26636
846.886	25122
847.022	24270
847.158	23493
847.294	23140
847.429	22980
847.565	22805
847.701	22930
847.837	22322
847.972	22341
848.108	22318
848.244	22253
848.379	22036
848.515	21956
848.65	21930
848.786	21915
848.921	21778
849.057	21987
849.192	21857
849.328	21854
849.463	21895
849.598	21816
849.734	21717
849.869	21690
850.004	21561
850.14	21496
850.275	21644
850.41	21416
850.545	21500
850.68	21435
850.815	21477
850.95	21443
851.085	21671
851.22	21526
851.355	21408
851.49	21466
851.625	21416
851.76	21481
851.895	21344
852.03	21405
852.165	21363
852.299	21523
852.434	21618
852.569	21572
852.703	21477
852.838	21629
852.973	21736
853.107	21606
853.242	21462
853.376	21454
853.511	21294
853.645	21447
853.78	21610
853.914	21576
854.048	21629
854.183	21523
854.317	21561
854.451	21785
854.585	21583
854.72	21435
854.854	21675
854.988	21435
855.122	21496
855.256	21291
855.39	21389
855.524	21538
855.658	21310
855.792	21416
855.926	21401
856.06	21523
856.194	21393
856.327	21218
856.461	21317
856.595	21268
856.729	21207
856.862	21367
856.996	21313
857.13	21363
857.263	21370
857.397	21378
857.53	21306
857.664	21283
857.797	21313
857.931	21302
858.064	21226
858.197	21355
858.331	21173
858.464	21138
858.597	21066
858.731	21135
858.864	21036
858.997	21142
859.13	21104
859.263	21203
859.396	21222
859.529	21272
859.662	21100
859.795	21161
859.928	21157
860.061	21306
860.194	21283
860.327	21047
860.46	21074
860.592	21146
860.725	21211
860.858	21173
860.99	21055
861.123	20963
861.256	20982
861.388	21192
861.521	21717
861.653	20956
861.786	20948
861.918	21020
862.05	20963
862.183	21119
862.315	21116
862.447	21081
862.58	21032
862.712	20929
862.844	20785
862.976	21024
863.108	20834
863.24	21119
863.372	20735
863.504	20823
863.636	20849
863.768	20712
863.9	20800
864.032	20617
864.164	20682
864.296	20998
864.428	20899
864.559	20762
864.691	20804
864.823	20834
864.954	20731
865.086	20785
865.217	20598
865.349	20613
865.48	20590
865.612	20606
865.743	20750
865.875	20613
866.006	20716
866.137	20712
866.269	20686
866.4	20621
866.531	20720
866.662	20678
866.793	20754
866.924	20625
867.055	20609
867.186	20686
867.317	20560
867.448	20609
867.579	20625
867.71	20415
867.841	20552
867.972	20629
868.103	20533
868.233	20556
868.364	20629
868.495	20621
868.625	20781
868.756	20979
868.886	20678
869.017	20739
869.147	20895
869.278	20956
869.408	20777
869.539	20883
869.669	20891
869.799	20883
869.929	20990
870.06	20883
870.19	21165
870.32	21085
870.45	21188
870.58	21302
870.71	21393
870.84	21321
870.97	21260
871.1	21268
871.23	21439
871.36	21530
871.489	21317
871.619	21542
871.749	21393
871.879	21469
872.008	21698
872.138	21580
872.267	21526
872.397	21397
872.526	21344
872.656	21469
872.785	21500
872.915	21682
873.044	21652
873.173	21660
873.303	21591
873.432	21751
873.561	21690
873.69	21774
873.819	21610
873.948	21888
874.077	21724
874.206	21671
874.335	21854
874.464	21926
874.593	22044
874.722	22105
874.851	22078
874.979	22139
875.108	22158
875.237	22029
875.365	22105
875.494	22169
875.623	22238
875.751	22177
875.88	22276
876.008	22504
876.136	22497
876.265	22790
876.393	22911
876.521	22938
876.65	22976
876.778	23052
876.906	22927
877.034	22953
877.162	22999
877.29	22866
877.418	23067
877.546	23212
877.674	23235
877.802	23326
877.93	23216
878.058	23387
878.185	23421
878.313	23840
878.441	23977
878.568	24155
878.696	24616
878.824	25240
878.951	25807
879.079	26971
879.206	28596
879.333	29729
879.461	30825
879.588	31632
879.715	31628
879.842	31065
879.97	29703
880.097	28177
880.224	27142
880.351	26396
880.478	25811
880.605	25324
880.732	25137
880.859	25232
880.986	24981
881.112	24996
881.239	24551
881.366	24528
881.493	24433
881.619	24422
881.746	24464
881.872	24395
881.999	24292
882.125	24292
882.252	24483
882.378	24437
882.505	24700
882.631	24372
882.757	24311
882.883	24410
883.01	24129
883.136	24243
883.262	24167
883.388	24174
883.514	24285
883.64	24391
883.766	24224
883.892	24076
884.018	24041
884.143	24247
884.269	24308
884.395	23866
884.52	23878
884.646	23965
884.772	23828
884.897	23752
885.023	23961
885.148	24068
885.274	23946
885.399	23923
885.524	23821
885.65	23657
885.775	23577
885.9	23516
886.025	23558
886.15	23356
886.275	23250
886.4	23010
886.525	23113
886.65	22862
886.775	22790
886.9	22847
887.025	22828
887.149	22569
887.274	22447
887.399	22299
887.523	22265
887.648	22177
887.773	22226
887.897	22112
888.021	22154
888.146	21994
888.27	22265
888.395	22051
888.519	21861
888.643	21880
888.767	21945
888.891	21709
889.015	21599
889.139	21667
889.263	21591
889.387	21557
889.511	21671
889.635	21606
889.759	21340
889.883	21496
890.006	21367
890.13	21469
890.254	21241
890.377	21291
890.501	21047
890.624	20994
890.748	21055
890.871	21058
890.995	20918
891.118	20788
891.241	20823
891.364	20868
891.488	20853
891.611	20724
891.734	20693
891.857	20777
891.98	20823
892.103	20720
892.226	20743
892.349	20644
892.471	20560
892.594	20499
892.717	20507
892.839	20495
892.962	20461
893.085	20575
893.207	20343
893.33	20332
893.452	20317
893.575	20446
893.697	20358
893.819	20492
893.941	20541
894.064	20381
894.186	20180
894.308	20199
894.43	20309
894.552	20309
894.674	20275
894.796	20153
894.918	20214
895.04	20134
895.161	20252
895.283	20278
895.405	20176
895.526	20103
895.648	20161
895.769	20043
895.891	20153
896.012	20244
896.134	20206
896.255	20012
896.376	20130
896.498	20081
896.619	20252
896.74	20202
896.861	20313
896.982	20484
897.103	20617
897.224	20336
897.345	20385
897.466	20381
897.587	20343
897.708	20431
897.828	20309
897.949	20263
898.07	20172
898.19	20252
898.311	20431
898.431	20290
898.552	20142
898.672	20370
898.792	20313
898.913	20142
899.033	20092
899.153	20115
899.273	19925
899.393	20062
899.513	20058
899.633	20062
899.753	20058
899.873	19974
899.993	19955
900.113	19940
900.232	19989
900.352	19925
900.472	19928
900.591	19746
900.711	19780
900.83	19685
900.95	19852
901.069	19822
901.189	19685
901.308	19552
901.427	19483
901.546	19403
901.665	19365
901.784	19320
901.904	19129
902.023	19046
902.141	18913
902.26	18935
902.379	18875
902.498	18734
902.617	18688
902.735	18749
902.854	18646
902.973	18722
903.091	18452
903.21	18437
903.328	18464
903.446	18292
903.565	18155
903.683	18224
903.801	18053
903.919	18201
904.038	18102
904.156	17984
904.274	18095
904.392	17988
904.51	17866
904.627	17874
904.745	17973
904.863	17939
904.981	17703
905.098	17512
905.216	17524
905.334	17570
905.451	17646
905.569	17520
905.686	17642
905.803	17638
905.921	17277
906.038	17406
906.155	17368
906.272	17117
906.389	17227
906.506	17094
906.623	17132
906.74	16976
906.857	16930
906.974	16999
907.091	17064
907.208	17174
907.324	16968
907.441	16980
907.557	16702
907.674	16675
907.79	16672
907.907	16672
908.023	16744
908.139	16733
908.256	16641
908.372	16611
908.488	16535
908.604	16558
908.72	16329
908.836	16409
908.952	16352
909.068	16287
909.184	16424
909.3	16382
909.415	16440
909.531	16333
909.647	16059
909.762	16112
909.878	16032
909.993	16086
910.108	16185
910.224	16105
910.339	16010
910.454	16006
910.57	15915
910.685	15800
910.8	16036
910.915	15964
911.03	15949
911.145	15713
911.259	15717
911.374	15732
911.489	15648
911.604	15523
911.718	15466
911.833	15557
911.947	15340
912.062	15233
912.176	15450
912.291	15306
912.405	15378
912.519	15542
912.633	15564
912.748	15412
912.862	15389
912.976	15310
913.09	15146
913.204	15161
913.318	15351
913.431	15336
913.545	15256
913.659	15249
913.772	15058
913.886	15032
914	15036
914.113	14990
914.226	15077
914.34	15058
914.453	14979
914.566	15001
914.68	14937
914.793	14963
914.906	14724
915.019	14648
915.132	14651
915.245	14724
915.358	14758
915.47	14606
915.583	14659
915.696	14655
915.809	14754
915.921	14811
916.034	14648
916.146	14575
916.259	14522
916.371	14682
916.483	14636
916.595	14518
916.708	14537
916.82	14651
916.932	14541
917.044	14537
917.156	14503
917.268	14347
917.38	14461
917.491	14358
917.603	14309
917.715	14278
917.826	14415
917.938	14332
918.049	14103
918.161	14301
918.272	14385
918.384	14457
918.495	14240
918.606	14134
918.717	14115
918.828	14164
918.939	14111
919.05	13959
919.161	14119
919.272	13917
919.383	13890
919.494	14054
919.604	14191
919.715	14103
919.826	13997
919.936	13890
920.047	14012
920.157	13963
920.267	14218
920.378	14058
920.488	13944
920.598	14153
920.708	14263
920.818	14046
920.928	14180
921.038	14271
921.148	14187
921.258	14046
921.368	13890
921.477	13799
921.587	13742
921.697	13624
921.806	13753
921.916	13582
922.025	13525
922.134	13396
922.244	13312
922.353	13384
922.462	13289
922.571	13171
922.68	13053
922.789	13031
922.898	12985
923.007	12916
923.116	12943
923.224	12966
923.333	13015
923.442	12844
923.55	12772
923.659	12859
923.767	12962
923.876	12829
923.984	12894
924.092	12787
924.201	12810
924.309	12779
924.417	12787
924.525	12719
924.633	12726
924.741	13681
924.849	12532
924.956	12620
925.064	12540
925.172	12506
925.279	12437
925.387	12506
925.494	12502
925.602	12494
925.709	12490
925.816	12285
925.924	12426
926.031	12448
926.138	12350
926.245	12479
926.352	12285
926.459	12490
926.566	12471
926.673	12330
926.779	12178
926.886	12258
926.993	12091
927.099	12095
927.206	11935
927.312	11992
927.419	12102
927.525	11996
927.631	11980
927.737	11923
927.843	11931
927.95	11752
928.056	11878
928.162	11756
928.267	11901
928.373	12410
928.479	11973
928.585	11699
928.69	11832
928.796	11855
928.901	11718
929.007	11680
929.112	11733
929.218	11638
929.323	11691
929.428	11543
929.533	11627
929.638	11570
929.743	11547
929.848	11585
929.953	11535
930.058	11429
930.163	11322
930.267	11254
930.372	11452
930.477	11299
930.581	11512
930.685	11292
930.79	11223
930.894	11204
930.998	11162
931.103	11265
931.207	10877
931.311	10824
931.415	10729
931.519	10500
931.623	10584
