Data from test_V78500241_1295.txt Node
Date: Fri Mar 25 14:42:43 CST 2022
User: usil
Spectrometer: V785-0024
Trigger mode: 0
Integration Time (sec): 4.000000E-1
Scans to average: 1
Nonlinearity correction enabled: false
Boxcar width: 0
Storing dark spectrum: false
XAxis mode: Wavelengths
Number of Pixels in Spectrum: 1024
>>>>>Begin Spectral Data<<<<<
801.071	22436
801.214	22280
801.356	22082
801.499	21899
801.641	21930
801.783	21895
801.926	21888
802.068	21682
802.211	21591
802.353	21530
802.496	21298
802.638	21279
802.78	21264
802.923	21142
803.065	21051
803.208	21150
803.35	21070
803.492	21169
803.635	21135
803.777	21096
803.919	21241
804.061	21511
804.204	21085
804.346	21032
804.488	21043
804.63	21013
804.773	21081
804.915	20994
805.057	21169
805.199	21005
805.341	21089
805.483	21249
805.626	21195
805.768	21009
805.91	21055
806.052	20990
806.194	20864
806.336	21096
806.478	21131
806.62	20982
806.762	21233
806.904	21176
807.046	21454
807.188	21424
807.33	21462
807.472	21511
807.614	21287
807.756	21374
807.898	21237
808.04	21233
808.182	21218
808.324	21188
808.465	21230
808.607	21401
808.749	21576
808.891	21671
809.033	21743
809.174	21747
809.316	21485
809.458	21603
809.6	21481
809.741	21625
809.883	21542
810.025	21709
810.166	21606
810.308	21663
810.45	21587
810.591	21504
810.733	21424
810.875	21207
811.016	21157
811.158	20975
811.299	21222
811.441	21287
811.582	21302
811.724	21230
811.865	21119
812.007	21268
812.148	21218
812.29	21294
812.431	21428
812.573	21534
812.714	21595
812.855	21694
812.997	21781
813.138	21854
813.279	21926
813.421	21812
813.562	21679
813.703	21515
813.845	21321
813.986	21116
814.127	20887
814.268	20807
814.41	20868
814.551	20716
814.692	20918
814.833	20758
814.974	20743
815.115	20769
815.256	20648
815.397	20609
815.539	20560
815.68	20503
815.821	20370
815.962	20564
816.103	20351
816.244	20358
816.385	20317
816.526	20294
816.666	20195
816.807	19974
816.948	20039
817.089	20134
817.23	20008
817.371	19864
817.512	19837
817.653	20062
817.793	19826
817.934	19841
818.075	19913
818.216	19913
818.356	19864
818.497	19715
818.638	19635
818.778	19712
818.919	19559
819.06	19567
819.2	19696
819.341	19791
819.481	19841
819.622	19986
819.762	20012
819.903	20088
820.043	20016
820.184	19803
820.324	19871
820.465	20031
820.605	19879
820.746	19864
820.886	19704
821.026	19860
821.167	19757
821.307	19833
821.447	19894
821.588	19685
821.728	19582
821.868	19495
822.008	19274
822.149	19388
822.289	19316
822.429	19008
822.569	18981
822.709	18890
822.849	18776
822.99	18779
823.13	18760
823.27	18612
823.41	18585
823.55	18517
823.69	18570
823.83	18601
823.97	18494
824.11	18388
824.25	18304
824.389	18376
824.529	18498
824.669	18258
824.809	18403
824.949	18388
825.089	18384
825.228	18338
825.368	18159
825.508	18262
825.648	18186
825.787	18205
825.927	18213
826.067	18060
826.206	18068
826.346	18167
826.485	18068
826.625	18117
826.765	18380
826.904	18121
827.044	17973
827.183	17984
827.323	17828
827.462	17893
827.601	17851
827.741	17882
827.88	17832
828.02	17646
828.159	17824
828.298	17851
828.437	17927
828.577	17874
828.716	17847
828.855	17786
828.994	17726
829.134	17665
829.273	17577
829.412	17577
829.551	17444
829.69	17630
829.829	17497
829.968	17710
830.107	17668
830.246	17695
830.385	17535
830.524	17562
830.663	17478
830.802	17318
830.941	17193
831.08	17140
831.219	17277
831.357	17372
831.496	17490
831.635	17223
831.774	17140
831.913	17193
832.051	17071
832.19	17006
832.329	17083
832.467	16934
832.606	16942
832.744	16866
832.883	17094
833.022	16942
833.16	16930
833.299	16904
833.437	16972
833.576	17010
833.714	16934
833.852	16995
833.991	17056
834.129	17014
834.267	17075
834.406	16869
834.544	16987
834.682	16995
834.821	16999
834.959	17124
835.097	16961
835.235	17045
835.373	16968
835.511	16957
835.65	16809
835.788	16843
835.926	16713
836.064	16641
836.202	16774
836.34	16942
836.478	16949
836.615	16881
836.753	16915
836.891	16934
837.029	16908
837.167	16900
837.305	16805
837.443	16752
837.58	16664
837.718	16877
837.856	16744
837.993	16596
838.131	16691
838.269	16668
838.406	16637
838.544	16630
838.681	16440
838.819	16390
838.956	16371
839.094	16287
839.231	16390
839.369	16538
839.506	16744
839.643	16584
839.781	16318
839.918	16177
840.055	16318
840.193	16246
840.33	16185
840.467	16356
840.604	16287
840.742	16516
840.879	16181
841.016	16177
841.153	16158
841.29	16417
841.427	16249
841.564	16284
841.701	16367
841.838	16230
841.975	16135
842.112	16329
842.249	16067
842.385	15994
842.522	16219
842.659	16101
842.796	16116
842.933	16086
843.069	16082
843.206	16032
843.343	16177
843.479	16074
843.616	16040
843.752	15857
843.889	15945
844.025	15972
844.162	15899
844.298	15987
844.435	15899
844.571	15808
844.708	15945
844.844	15979
844.98	16048
845.117	15968
845.253	15880
845.389	15751
845.525	15835
845.661	15804
845.798	15736
845.934	15945
846.07	15812
846.206	15873
846.342	16002
846.478	15694
846.614	15500
846.75	15466
846.886	15435
847.022	15496
847.158	15397
847.294	15458
847.429	15504
847.565	15408
847.701	15774
847.837	15150
847.972	15161
848.108	15230
848.244	15211
848.379	15024
848.515	14975
848.65	15058
848.786	15043
848.921	15051
849.057	15146
849.192	15146
849.328	15051
849.463	15062
849.598	14967
849.734	14944
849.869	14807
850.004	14758
850.14	14880
850.275	14868
850.41	14686
850.545	14693
850.68	14724
850.815	14750
850.95	14819
851.085	14975
851.22	14849
851.355	14895
851.49	14746
851.625	14777
851.76	14716
851.895	14617
852.03	14743
852.165	14785
852.299	14842
852.434	14746
852.569	14880
852.703	14765
852.838	14819
852.973	14887
853.107	14906
853.242	14674
853.376	14617
853.511	14476
853.645	14598
853.78	14769
853.914	14606
854.048	14621
854.183	14678
854.317	14705
854.451	14735
854.585	14655
854.72	14629
854.854	14613
854.988	14522
855.122	14575
855.256	14503
855.39	14583
855.524	14708
855.658	14640
855.792	14727
855.926	14663
856.06	14724
856.194	14807
856.327	14606
856.461	14617
856.595	14617
856.729	14568
856.862	14792
856.996	14777
857.13	14708
857.263	14807
857.397	14720
857.53	14640
857.664	14682
857.797	14887
857.931	14731
858.064	14693
858.197	14750
858.331	14674
858.464	14644
858.597	14526
858.731	14564
858.864	14750
858.997	14644
859.13	14667
859.263	14644
859.396	14644
859.529	14625
859.662	14594
859.795	14583
859.928	14617
860.061	14788
860.194	14800
860.327	14617
860.46	14564
860.592	14765
860.725	14765
860.858	14804
860.99	14575
861.123	14522
861.256	14678
861.388	14682
861.521	15359
861.653	14556
861.786	14575
861.918	14438
862.05	14571
862.183	14625
862.315	14663
862.447	14735
862.58	14640
862.712	14404
862.844	14347
862.976	14404
863.108	14469
863.24	14868
863.372	14366
863.504	14434
863.636	14499
863.768	14446
863.9	14366
864.032	14366
864.164	14423
864.296	14488
864.428	14484
864.559	14522
864.691	14507
864.823	14461
864.954	14389
865.086	14347
865.217	14393
865.349	14240
865.48	14408
865.612	14400
865.743	14442
865.875	14393
866.006	14434
866.137	14454
866.269	14415
866.4	14244
866.531	14370
866.662	14233
866.793	14317
866.924	14313
867.055	14415
867.186	14389
867.317	14415
867.448	14259
867.579	14301
867.71	14313
867.841	14229
867.972	14415
868.103	14461
868.233	14473
868.364	14389
868.495	14606
868.625	14484
868.756	14678
868.886	14587
869.017	14625
869.147	14864
869.278	14674
869.408	14712
869.539	14743
869.669	14746
869.799	14739
869.929	14773
870.06	14765
870.19	15055
870.32	14944
870.45	14967
870.58	15097
870.71	15150
870.84	15123
870.97	15020
871.1	15043
871.23	15184
871.36	15275
871.489	15093
871.619	15214
871.749	15252
871.879	15222
872.008	15351
872.138	15283
872.267	15237
872.397	15138
872.526	15009
872.656	15013
872.785	15127
872.915	15222
873.044	15340
873.173	15192
873.303	15363
873.432	15382
873.561	15401
873.69	15370
873.819	15294
873.948	15317
874.077	15294
874.206	15275
874.335	15412
874.464	15454
874.593	15595
874.722	15473
874.851	15587
874.979	15580
875.108	15584
875.237	15675
875.365	15561
875.494	15679
875.623	15713
875.751	15515
875.88	15584
876.008	15800
876.136	15838
876.265	15964
876.393	16177
876.521	16025
876.65	16074
876.778	16021
876.906	15987
877.034	15994
877.162	15953
877.29	15979
877.418	16086
877.546	16044
877.674	16071
877.802	15953
877.93	16048
878.058	15964
878.185	15937
878.313	16128
878.441	15949
878.568	15930
878.696	15960
878.824	16044
878.951	16109
879.079	16192
879.206	16322
879.333	16257
879.461	16154
879.588	16261
879.715	16402
879.842	16337
879.97	16169
880.097	15861
880.224	15941
880.351	16002
880.478	15918
880.605	15945
880.732	15819
880.859	16071
880.986	15983
881.112	15865
881.239	15823
881.366	15660
881.493	15572
881.619	15557
881.746	15538
881.872	15557
881.999	15500
882.125	15447
882.252	15515
882.378	15526
882.505	15595
882.631	15545
882.757	15401
882.883	15340
883.01	15439
883.136	15306
883.262	15192
883.388	15306
883.514	15401
883.64	15348
883.766	15340
883.892	15249
884.018	15161
884.143	15306
884.269	15462
884.395	15138
884.52	15055
884.646	15001
884.772	14960
884.897	15043
885.023	15074
885.148	15222
885.274	15233
885.399	15173
885.524	15009
885.65	15138
885.775	15074
885.9	15036
886.025	15203
886.15	15138
886.275	14960
886.4	14990
886.525	14918
886.65	15093
886.775	14990
886.9	15131
887.025	15306
887.149	15104
887.274	14842
887.399	14861
887.523	14823
887.648	14864
887.773	14861
887.897	15013
888.021	14979
888.146	14693
888.27	14960
888.395	14971
888.519	14918
888.643	14899
888.767	14956
888.891	14830
889.015	14739
889.139	14720
889.263	14716
889.387	14857
889.511	14929
889.635	14910
889.759	14781
889.883	14640
890.006	14849
890.13	14895
890.254	14644
890.377	14651
890.501	14686
890.624	14530
890.748	14644
890.871	14495
890.995	14427
891.118	14404
891.241	14461
891.364	14431
891.488	14495
891.611	14415
891.734	14400
891.857	14461
891.98	14374
892.103	14358
892.226	14370
892.349	14320
892.471	14172
892.594	14370
892.717	14488
892.839	14415
892.962	14476
893.085	14454
893.207	14404
893.33	14233
893.452	14370
893.575	14461
893.697	14332
893.819	14507
893.941	14632
894.064	14533
894.186	14313
894.308	14415
894.43	14518
894.552	14606
894.674	14552
894.796	14469
894.918	14446
895.04	14366
895.161	14564
895.283	14522
895.405	14400
895.526	14427
895.648	14511
895.769	14590
895.891	14568
896.012	14621
896.134	14511
896.255	14583
896.376	14530
896.498	14583
896.619	14522
896.74	14537
896.861	14617
896.982	14899
897.103	15051
897.224	14849
897.345	14838
897.466	14792
897.587	14815
897.708	14800
897.828	14842
897.949	14834
898.07	14655
898.19	14876
898.311	14975
898.431	14941
898.552	14883
898.672	14975
898.792	14967
898.913	14887
899.033	14785
899.153	14746
899.273	14617
899.393	14849
899.513	14758
899.633	14762
899.753	14781
899.873	14735
899.993	14815
900.113	14765
900.232	14750
900.352	14712
900.472	14720
900.591	14632
900.711	14762
900.83	14606
900.95	14686
901.069	14746
901.189	14606
901.308	14423
901.427	14202
901.546	14415
901.665	14313
901.784	14351
901.904	14164
902.023	14016
902.141	13917
902.26	13856
902.379	13955
902.498	13776
902.617	13822
902.735	13883
902.854	13837
902.973	13822
903.091	13628
903.21	13624
903.328	13575
903.446	13537
903.565	13411
903.683	13483
903.801	13396
903.919	13441
904.038	13438
904.156	13327
904.274	13301
904.392	13206
904.51	13236
904.627	13289
904.745	13358
904.863	13343
904.981	13168
905.098	12958
905.216	13072
905.334	12985
905.451	12920
905.569	12897
905.686	13088
905.803	12852
905.921	12700
906.038	12901
906.155	12901
906.272	12608
906.389	12681
906.506	12513
906.623	12578
906.74	12486
906.857	12407
906.974	12479
907.091	12578
907.208	12692
907.324	12608
907.441	12483
907.557	12399
907.674	12308
907.79	12258
907.907	12277
908.023	12346
908.139	12262
908.256	12155
908.372	12258
908.488	12178
908.604	12083
908.72	11965
908.836	12076
908.952	12011
909.068	12053
909.184	12190
909.3	11992
909.415	12068
909.531	12057
909.647	11878
909.762	11752
909.878	11843
909.993	11760
910.108	11828
910.224	11836
910.339	11813
910.454	11733
910.57	11657
910.685	11611
910.8	11878
910.915	11821
911.03	11691
911.145	11520
911.259	11486
911.374	11512
911.489	11452
911.604	11421
911.718	11242
911.833	11261
911.947	11147
912.062	11136
912.176	11235
912.291	11273
912.405	11261
912.519	11421
912.633	11444
912.748	11406
912.862	11330
912.976	11239
913.09	11098
913.204	11090
913.318	11117
913.431	11212
913.545	11159
913.659	11258
913.772	11052
913.886	11045
914	10957
914.113	11117
914.226	11083
914.34	11037
914.453	10869
914.566	11083
914.68	10946
914.793	10987
914.906	10755
915.019	10675
915.132	10668
915.245	10778
915.358	10774
915.47	10725
915.583	10748
915.696	10733
915.809	10900
915.921	10850
916.034	10710
916.146	10744
916.259	10698
916.371	10725
916.483	10797
916.595	10653
916.708	10729
916.82	10736
916.932	10668
917.044	10717
917.156	10710
917.268	10561
917.38	10580
917.491	10508
917.603	10622
917.715	10615
917.826	10736
917.938	10535
918.049	10508
918.161	10580
918.272	10649
918.384	10668
918.495	10577
918.606	10466
918.717	10325
918.828	10436
918.939	10538
919.05	10314
919.161	10413
919.272	10268
919.383	10333
919.494	10493
919.604	10607
919.715	10382
919.826	10386
919.936	10470
920.047	10599
920.157	10478
920.267	10641
920.378	10573
920.488	10474
920.598	10702
920.708	10828
920.818	10675
920.928	10672
921.038	10820
921.148	10763
921.258	10485
921.368	10390
921.477	10314
921.587	10284
921.697	10188
921.806	10287
921.916	10181
922.025	10093
922.134	10071
922.244	9926
922.353	10097
922.462	9945
922.571	9800
922.68	9747
922.789	9709
922.898	9686
923.007	9603
923.116	9778
923.224	9679
923.333	9637
923.442	9656
923.55	9545
923.659	9576
923.767	9603
923.876	9542
923.984	9648
924.092	9447
924.201	9561
924.309	9561
924.417	9595
924.525	9507
924.633	9511
924.741	10257
924.849	9363
924.956	9488
925.064	9336
925.172	9306
925.279	9310
925.387	9332
925.494	9363
925.602	9526
925.709	9458
925.816	9272
925.924	9363
926.031	9435
926.138	9363
926.245	9332
926.352	9272
926.459	9439
926.566	9435
926.673	9340
926.779	9199
926.886	9176
926.993	9097
927.099	8967
927.206	9017
927.312	8963
927.419	9146
927.525	9055
927.631	9085
927.737	8963
927.843	8895
927.95	8819
928.056	8921
928.162	8910
928.267	8982
928.373	9606
928.479	8986
928.585	8800
928.69	8929
928.796	8967
928.901	8849
929.007	8724
929.112	8826
929.218	8876
929.323	8766
929.428	8758
929.533	8998
929.638	8750
929.743	8758
929.848	8864
929.953	8724
930.058	8613
930.163	8495
930.267	8583
930.372	8678
930.477	8492
930.581	8739
930.685	8594
930.79	8396
930.894	8526
930.998	8457
931.103	8610
931.207	8279
931.311	8218
931.415	8092
931.519	7959
931.623	7944
