Data from test_V78500241_818.txt Node
Date: Fri Mar 25 14:39:24 CST 2022
User: usil
Spectrometer: V785-0024
Trigger mode: 0
Integration Time (sec): 4.000000E-1
Scans to average: 1
Nonlinearity correction enabled: false
Boxcar width: 0
Storing dark spectrum: false
XAxis mode: Wavelengths
Number of Pixels in Spectrum: 1024
>>>>>Begin Spectral Data<<<<<
801.071	26252
801.214	26111
801.356	25955
801.499	25883
801.641	25860
801.783	25563
801.926	25571
802.068	25643
802.211	25396
802.353	25400
802.496	25228
802.638	25206
802.78	25095
802.923	25148
803.065	25091
803.208	25164
803.35	25183
803.492	25274
803.635	25304
803.777	25133
803.919	25156
804.061	25582
804.204	25282
804.346	25251
804.488	25194
804.63	25384
804.773	25107
804.915	25266
805.057	25502
805.199	25521
805.341	25525
805.483	25628
805.626	25628
805.768	25613
805.91	25799
806.052	25837
806.194	25909
806.336	26115
806.478	26195
806.62	26252
806.762	26499
806.904	26880
807.046	27264
807.188	27447
807.33	27652
807.472	28207
807.614	28630
807.756	29398
807.898	29984
808.04	31118
808.182	32522
808.324	34504
808.465	36700
808.607	39096
808.749	41208
808.891	42494
809.033	42658
809.174	41299
809.316	39313
809.458	36715
809.6	34207
809.741	32427
809.883	30894
810.025	29851
810.166	29086
810.308	28394
810.45	27964
810.591	27462
810.733	27108
810.875	26697
811.016	26625
811.158	26381
811.299	26423
811.441	26465
811.582	26237
811.724	26039
811.865	25852
812.007	25826
812.148	25761
812.29	25753
812.431	25902
812.573	25940
812.714	26027
812.855	26130
812.997	26191
813.138	26176
813.279	26096
813.421	25997
813.562	25963
813.703	25624
813.845	25540
813.986	25297
814.127	25038
814.268	24970
814.41	24916
814.551	24848
814.692	24837
814.833	24745
814.974	24673
815.115	24825
815.256	24635
815.397	24654
815.539	24551
815.68	24505
815.821	24452
815.962	24391
816.103	24327
816.244	24228
816.385	24095
816.526	23977
816.666	23923
816.807	23775
816.948	23904
817.089	23775
817.23	23786
817.371	23756
817.512	23836
817.653	23630
817.793	23627
817.934	23714
818.075	23729
818.216	23786
818.356	23687
818.497	23562
818.638	23421
818.778	23383
818.919	23543
819.06	23387
819.2	23463
819.341	23516
819.481	23680
819.622	23718
819.762	23847
819.903	23817
820.043	23764
820.184	23611
820.324	23600
820.465	23684
820.605	23611
820.746	23589
820.886	23448
821.026	23478
821.167	23379
821.307	23577
821.447	23547
821.588	23337
821.728	23090
821.868	23010
822.008	22809
822.149	22904
822.289	22774
822.429	22531
822.569	22611
822.709	22474
822.849	22352
822.99	22451
823.13	22295
823.27	22272
823.41	22059
823.55	21907
823.69	22211
823.83	22101
823.97	22059
824.11	21960
824.25	21857
824.389	21899
824.529	21960
824.669	21899
824.809	21876
824.949	21926
825.089	22013
825.228	21945
825.368	21713
825.508	21542
825.648	21797
825.787	21739
825.927	21816
826.067	21675
826.206	21622
826.346	21660
826.485	21759
826.625	21675
826.765	21698
826.904	21838
827.044	21408
827.183	21443
827.323	21310
827.462	21245
827.601	21336
827.741	21294
827.88	21424
828.02	21089
828.159	21363
828.298	21241
828.437	21443
828.577	21287
828.716	21397
828.855	21199
828.994	21005
829.134	21001
829.273	21009
829.412	20971
829.551	20971
829.69	20982
829.829	21005
829.968	21081
830.107	21077
830.246	21081
830.385	20967
830.524	20830
830.663	20937
830.802	20777
830.941	20693
831.08	20613
831.219	20636
831.357	20693
831.496	20811
831.635	20746
831.774	20613
831.913	20530
832.051	20438
832.19	20461
832.329	20507
832.467	20294
832.606	20396
832.744	20393
832.883	20499
833.022	20450
833.16	20651
833.299	20758
833.437	20686
833.576	20876
833.714	20982
833.852	21039
833.991	21116
834.129	21302
834.267	21275
834.406	21226
834.544	21150
834.682	20975
834.821	20967
834.959	21036
835.097	20644
835.235	20834
835.373	20609
835.511	20450
835.65	20537
835.788	20351
835.926	20313
836.064	20126
836.202	20195
836.34	20256
836.478	20259
836.615	20278
836.753	20183
836.891	20263
837.029	20229
837.167	20142
837.305	20031
837.443	20008
837.58	20008
837.718	20069
837.856	19974
837.993	19947
838.131	19928
838.269	19921
838.406	19841
838.544	19856
838.681	19712
838.819	19613
838.956	19567
839.094	19419
839.231	19510
839.369	19575
839.506	19765
839.643	19746
839.781	19438
839.918	19411
840.055	19426
840.193	19373
840.33	19400
840.467	19460
840.604	19358
840.742	19529
840.879	19327
841.016	19354
841.153	19282
841.29	19559
841.427	19301
841.564	19350
841.701	19491
841.838	19331
841.975	19247
842.112	19270
842.249	19190
842.385	19164
842.522	19426
842.659	19266
842.796	19236
842.933	19236
843.069	19156
843.206	19228
843.343	19304
843.479	19339
843.616	19301
843.752	19145
843.889	19206
844.025	19312
844.162	19266
844.298	19586
844.435	19491
844.571	19582
844.708	19864
844.844	20130
844.98	20332
845.117	20754
845.253	21378
845.389	22618
845.525	25107
845.661	29383
845.798	34097
845.934	37913
846.07	39572
846.206	38587
846.342	35318
846.478	30467
846.614	26126
846.75	23200
846.886	21599
847.022	20583
847.158	19997
847.294	19434
847.429	19209
847.565	19065
847.701	19160
847.837	18608
847.972	18498
848.108	18574
848.244	18532
848.379	18357
848.515	18182
848.65	18171
848.786	18121
848.921	18140
849.057	18186
849.192	18327
849.328	18110
849.463	18110
849.598	18068
849.734	18049
849.869	17954
850.004	17893
850.14	17980
850.275	17805
850.41	17764
850.545	17805
850.68	17885
850.815	17855
850.95	17805
851.085	17958
851.22	17927
851.355	17756
851.49	17821
851.625	17779
851.76	17760
851.895	17745
852.03	17794
852.165	17752
852.299	17889
852.434	17946
852.569	17901
852.703	17840
852.838	17927
852.973	18072
853.107	17969
853.242	17836
853.376	17760
853.511	17695
853.645	17794
853.78	17946
853.914	17935
854.048	17961
854.183	17847
854.317	18034
854.451	18140
854.585	17843
854.72	17878
854.854	17935
854.988	17920
855.122	17878
855.256	17790
855.39	17832
855.524	17935
855.658	17870
855.792	17665
855.926	17745
856.06	17779
856.194	17805
856.327	17714
856.461	17634
856.595	17653
856.729	17665
856.862	17710
856.996	17687
857.13	17661
857.263	17722
857.397	17710
857.53	17585
857.664	17745
857.797	17592
857.931	17714
858.064	17687
858.197	17657
858.331	17570
858.464	17573
858.597	17467
858.731	17554
858.864	17497
858.997	17425
859.13	17516
859.263	17490
859.396	17684
859.529	17535
859.662	17490
859.795	17497
859.928	17646
860.061	17577
860.194	17699
860.327	17630
860.46	17474
860.592	17672
860.725	17589
860.858	17615
860.99	17497
861.123	17440
861.256	17535
861.388	17573
861.521	18079
861.653	17391
861.786	17425
861.918	17425
862.05	17528
862.183	17581
862.315	17490
862.447	17532
862.58	17448
862.712	17303
862.844	17128
862.976	17349
863.108	17280
863.24	17562
863.372	17273
863.504	17235
863.636	17284
863.768	17322
863.9	17200
864.032	17151
864.164	17151
864.296	17239
864.428	17292
864.559	17254
864.691	17239
864.823	17231
864.954	17299
865.086	17223
865.217	17185
865.349	17174
865.48	17140
865.612	17159
865.743	17193
865.875	17132
866.006	17075
866.137	17166
866.269	17132
866.4	17067
866.531	17166
866.662	17025
866.793	17045
866.924	17018
867.055	17155
867.186	17056
867.317	17045
867.448	17136
867.579	17094
867.71	17079
867.841	17064
867.972	17136
868.103	17071
868.233	17136
868.364	17124
868.495	17322
868.625	17322
868.756	17387
868.886	17337
869.017	17364
869.147	17433
869.278	17501
869.408	17410
869.539	17410
869.669	17452
869.799	17410
869.929	17459
870.06	17467
870.19	17737
870.32	17695
870.45	17691
870.58	17809
870.71	17851
870.84	17843
870.97	17828
871.1	17882
871.23	17992
871.36	17961
871.489	17916
871.619	17965
871.749	18041
871.879	18213
872.008	18174
872.138	18038
872.267	17984
872.397	17882
872.526	17946
872.656	17950
872.785	17935
872.915	18167
873.044	18239
873.173	18247
873.303	18327
873.432	18232
873.561	18258
873.69	18338
873.819	18190
873.948	18403
874.077	18304
874.206	18319
874.335	18460
874.464	18570
874.593	18703
874.722	18578
874.851	18760
874.979	18719
875.108	18814
875.237	18798
875.365	18650
875.494	18875
875.623	18951
875.751	18825
875.88	18958
876.008	19038
876.136	19171
876.265	19304
876.393	19510
876.521	19495
876.65	19689
876.778	19586
876.906	19563
877.034	19540
877.162	19731
877.29	19696
877.418	19833
877.546	19776
877.674	20058
877.802	19947
877.93	20218
878.058	20221
878.185	20263
878.313	20636
878.441	20804
878.568	21001
878.696	21386
878.824	22112
878.951	22831
879.079	24064
879.206	25609
879.333	26979
879.461	28093
879.588	29155
879.715	29014
879.842	28531
879.97	27047
880.097	25350
880.224	24171
880.351	23402
880.478	22790
880.605	22295
880.732	22090
880.859	22109
880.986	21709
881.112	21603
881.239	21580
881.366	21348
881.493	21336
881.619	21226
881.746	21233
881.872	21370
881.999	21306
882.125	21245
882.252	21302
882.378	21469
882.505	21553
882.631	21401
882.757	21104
882.883	21317
883.01	21279
883.136	21195
883.262	21089
883.388	21039
883.514	21245
883.64	21199
883.766	21135
883.892	20967
884.018	21062
884.143	21192
884.269	21157
884.395	21009
884.52	20800
884.646	20948
884.772	20925
884.897	20731
885.023	20883
885.148	20990
885.274	21058
885.399	20906
885.524	20720
885.65	20659
885.775	20545
885.9	20488
886.025	20514
886.15	20412
886.275	20126
886.4	20005
886.525	19887
886.65	19852
886.775	19776
886.9	19795
887.025	19807
887.149	19578
887.274	19419
887.399	19316
887.523	19179
887.648	19099
887.773	19034
887.897	19206
888.021	19072
888.146	18909
888.27	18962
888.395	18977
888.519	18878
888.643	18848
888.767	18787
888.891	18692
889.015	18589
889.139	18623
889.263	18509
889.387	18574
889.511	18616
889.635	18536
889.759	18300
889.883	18338
890.006	18471
890.13	18532
890.254	18285
890.377	18167
890.501	18038
890.624	17954
890.748	17988
890.871	17863
890.995	17779
891.118	17672
891.241	17893
891.364	17802
891.488	17741
891.611	17710
891.734	17649
891.857	17733
891.98	17630
892.103	17642
892.226	17798
892.349	17528
892.471	17372
892.594	17604
892.717	17505
892.839	17425
892.962	17421
893.085	17512
893.207	17402
893.33	17330
893.452	17360
893.575	17448
893.697	17345
893.819	17444
893.941	17467
894.064	17436
894.186	17231
894.308	17200
894.43	17349
894.552	17398
894.674	17395
894.796	17128
894.918	17174
895.04	17155
895.161	17254
895.283	17200
895.405	17090
895.526	17143
895.648	17136
895.769	17254
895.891	17258
896.012	17170
896.134	17208
896.255	17242
896.376	17124
896.498	17159
896.619	17178
896.74	17193
896.861	17151
896.982	17482
897.103	17592
897.224	17391
897.345	17364
897.466	17280
897.587	17303
897.708	17490
897.828	17292
897.949	17360
898.07	17181
898.19	17265
898.311	17395
898.431	17376
898.552	17383
898.672	17482
898.792	17356
898.913	17474
899.033	17303
899.153	17189
899.273	17037
899.393	17208
899.513	17269
899.633	17246
899.753	17185
899.873	17124
899.993	17147
900.113	17128
900.232	17140
900.352	17037
900.472	16987
900.591	17003
900.711	16980
900.83	17006
900.95	17079
901.069	17090
901.189	16980
901.308	16702
901.427	16580
901.546	16588
901.665	16630
901.784	16596
901.904	16451
902.023	16310
902.141	16196
902.26	16097
902.379	16154
902.498	16074
902.617	15960
902.735	16017
902.854	16086
902.973	15968
903.091	15728
903.21	15629
903.328	15789
903.446	15660
903.565	15572
903.683	15606
903.801	15526
903.919	15507
904.038	15568
904.156	15344
904.274	15450
904.392	15313
904.51	15256
904.627	15252
904.745	15310
904.863	15408
904.981	15039
905.098	15005
905.216	15017
905.334	14960
905.451	15062
905.569	14948
905.686	14971
905.803	14918
905.921	14788
906.038	14857
906.155	14834
906.272	14670
906.389	14678
906.506	14590
906.623	14492
906.74	14518
906.857	14366
906.974	14415
907.091	14560
907.208	14602
907.324	14670
907.441	14385
907.557	14305
907.674	14180
907.79	14138
907.907	14161
908.023	14267
908.139	14248
908.256	14214
908.372	14103
908.488	14100
908.604	13871
908.72	13898
908.836	13852
908.952	13883
909.068	13887
909.184	14084
909.3	13909
909.415	13982
909.531	13936
909.647	13666
909.762	13693
909.878	13674
909.993	13761
910.108	13636
910.224	13658
910.339	13658
910.454	13567
910.57	13544
910.685	13422
910.8	13795
910.915	13559
911.03	13502
911.145	13301
911.259	13392
911.374	13308
911.489	13266
911.604	13168
911.718	13190
911.833	13088
911.947	13057
912.062	12871
912.176	13118
912.291	13069
912.405	13023
912.519	13263
912.633	13308
912.748	13122
912.862	13065
912.976	12935
913.09	12821
913.204	12913
913.318	12973
913.431	12966
913.545	13000
913.659	12993
913.772	12943
913.886	12779
914	12730
914.113	12783
914.226	12913
914.34	12894
914.453	12696
914.566	12909
914.68	12688
914.793	12681
914.906	12494
915.019	12448
915.132	12467
915.245	12464
915.358	12547
915.47	12540
915.583	12532
915.696	12521
915.809	12681
915.921	12642
916.034	12490
916.146	12388
916.259	12433
916.371	12532
916.483	12540
916.595	12395
916.708	12422
916.82	12429
916.932	12407
917.044	12407
917.156	12334
917.268	12308
917.38	12289
917.491	12296
917.603	12319
917.715	12407
917.826	12399
917.938	12209
918.049	12163
918.161	12175
918.272	12350
918.384	12327
918.495	12178
918.606	12076
918.717	11996
918.828	12019
918.939	11999
919.05	11958
919.161	11942
919.272	11764
919.383	11920
919.494	11992
919.604	12251
919.715	12022
919.826	11931
919.936	12007
920.047	12152
920.157	12026
920.267	12304
920.378	12007
920.488	11984
920.598	12235
920.708	12376
920.818	12197
920.928	12144
921.038	12304
921.148	12258
921.258	11988
921.368	11935
921.477	11855
921.587	11836
921.697	11718
921.806	11764
921.916	11695
922.025	11497
922.134	11509
922.244	11459
922.353	11444
922.462	11402
922.571	11376
922.68	11136
922.789	11155
922.898	11083
923.007	11102
923.116	11185
923.224	11174
923.333	11083
923.442	11037
923.55	11048
923.659	11048
923.767	11090
923.876	10908
923.984	11010
924.092	10976
924.201	10938
924.309	10938
924.417	10976
924.525	10839
924.633	10900
924.741	11817
924.849	10733
924.956	10774
925.064	10733
925.172	10622
925.279	10649
925.387	10733
925.494	10733
925.602	10835
925.709	10752
925.816	10611
925.924	10656
926.031	10694
926.138	10702
926.245	10767
926.352	10577
926.459	10759
926.566	10698
926.673	10607
926.779	10523
926.886	10443
926.993	10424
927.099	10295
927.206	10287
927.312	10280
927.419	10402
927.525	10352
927.631	10322
927.737	10310
927.843	10207
927.95	10131
928.056	10135
928.162	10169
928.267	10257
928.373	10919
928.479	10276
928.585	10131
928.69	10246
928.796	10261
928.901	10044
929.007	9968
929.112	10112
929.218	10036
929.323	10067
929.428	9949
929.533	10150
929.638	9979
929.743	10044
929.848	10013
929.953	9998
930.058	9835
930.163	9812
930.267	9736
930.372	9892
930.477	9736
930.581	9922
930.685	9819
930.79	9599
930.894	9728
930.998	9663
931.103	9823
931.207	9382
931.311	9340
931.415	9306
931.519	9032
931.623	9104
