Data from test_V78500241_1431.txt Node
Date: Fri Mar 25 14:43:40 CST 2022
User: usil
Spectrometer: V785-0024
Trigger mode: 0
Integration Time (sec): 4.000000E-1
Scans to average: 1
Nonlinearity correction enabled: false
Boxcar width: 0
Storing dark spectrum: false
XAxis mode: Wavelengths
Number of Pixels in Spectrum: 1024
>>>>>Begin Spectral Data<<<<<
801.071	22485
801.214	22234
801.356	22097
801.499	21922
801.641	21895
801.783	21793
801.926	21861
802.068	21739
802.211	21629
802.353	21713
802.496	21222
802.638	21291
802.78	21211
802.923	21222
803.065	21127
803.208	20986
803.35	21146
803.492	21245
803.635	21222
803.777	21218
803.919	21154
804.061	21561
804.204	21279
804.346	20975
804.488	20910
804.63	21100
804.773	20845
804.915	21096
805.057	21230
805.199	21154
805.341	21184
805.483	21279
805.626	21119
805.768	21127
805.91	21024
806.052	21135
806.194	20986
806.336	21127
806.478	21123
806.62	21028
806.762	21116
806.904	21317
807.046	21408
807.188	21481
807.33	21466
807.472	21454
807.614	21397
807.756	21348
807.898	21275
808.04	21272
808.182	21146
808.324	21275
808.465	21370
808.607	21557
808.749	21682
808.891	21762
809.033	21918
809.174	21759
809.316	21656
809.458	21762
809.6	21466
809.741	21641
809.883	21538
810.025	21694
810.166	21652
810.308	21515
810.45	21641
810.591	21580
810.733	21351
810.875	21382
811.016	21218
811.158	21188
811.299	21252
811.441	21233
811.582	21332
811.724	21245
811.865	21173
812.007	21298
812.148	21252
812.29	21264
812.431	21416
812.573	21568
812.714	21701
812.855	21690
812.997	21869
813.138	21937
813.279	21869
813.421	21701
813.562	21652
813.703	21454
813.845	21485
813.986	21066
814.127	21039
814.268	20853
814.41	20864
814.551	20644
814.692	20914
814.833	20731
814.974	20746
815.115	20796
815.256	20560
815.397	20556
815.539	20583
815.68	20511
815.821	20423
815.962	20541
816.103	20434
816.244	20351
816.385	20275
816.526	20248
816.666	19978
816.807	20035
816.948	19947
817.089	20050
817.23	20020
817.371	20054
817.512	19932
817.653	19921
817.793	19830
817.934	19894
818.075	19993
818.216	19791
818.356	19822
818.497	19681
818.638	19609
818.778	19533
818.919	19704
819.06	19616
819.2	19605
819.341	19738
819.481	19894
819.622	19928
819.762	20122
819.903	20111
820.043	20161
820.184	19921
820.324	19951
820.465	20016
820.605	19928
820.746	19936
820.886	19750
821.026	19967
821.167	19799
821.307	19955
821.447	19780
821.588	19830
821.728	19601
821.868	19525
822.008	19327
822.149	19320
822.289	19312
822.429	19072
822.569	18985
822.709	19046
822.849	18734
822.99	18817
823.13	18760
823.27	18715
823.41	18661
823.55	18578
823.69	18639
823.83	18627
823.97	18544
824.11	18403
824.25	18372
824.389	18330
824.529	18445
824.669	18479
824.809	18464
824.949	18456
825.089	18353
825.228	18353
825.368	18190
825.508	18049
825.648	18144
825.787	18205
825.927	18327
826.067	18159
826.206	18243
826.346	18197
826.485	18273
826.625	18091
826.765	18308
826.904	18171
827.044	17977
827.183	18083
827.323	17813
827.462	17889
827.601	17874
827.741	17843
827.88	17840
828.02	17707
828.159	17855
828.298	17961
828.437	17824
828.577	17817
828.716	17958
828.855	17851
828.994	17687
829.134	17729
829.273	17657
829.412	17604
829.551	17551
829.69	17657
829.829	17615
829.968	17764
830.107	17733
830.246	17611
830.385	17596
830.524	17440
830.663	17395
830.802	17334
830.941	17178
831.08	17204
831.219	17280
831.357	17227
831.496	17490
831.635	17143
831.774	17200
831.913	17105
832.051	17048
832.19	16968
832.329	17025
832.467	16858
832.606	16858
832.744	16946
832.883	16911
833.022	16801
833.16	16896
833.299	16946
833.437	16991
833.576	16999
833.714	16980
833.852	17022
833.991	17048
834.129	16972
834.267	17022
834.406	16976
834.544	16946
834.682	16999
834.821	16915
834.959	17151
835.097	16965
835.235	17022
835.373	16915
835.511	16999
835.65	16824
835.788	16793
835.926	16664
836.064	16649
836.202	16664
836.34	16896
836.478	16942
836.615	16866
836.753	16839
836.891	16847
837.029	16896
837.167	16797
837.305	16908
837.443	16748
837.58	16691
837.718	16782
837.856	16660
837.993	16713
838.131	16831
838.269	16656
838.406	16634
838.544	16580
838.681	16402
838.819	16272
838.956	16265
839.094	16177
839.231	16299
839.369	16371
839.506	16641
839.643	16519
839.781	16295
839.918	16124
840.055	16318
840.193	16185
840.33	16276
840.467	16162
840.604	16215
840.742	16493
840.879	16131
841.016	16150
841.153	16173
841.29	16303
841.427	16112
841.564	16207
841.701	16295
841.838	16185
841.975	16173
842.112	16181
842.249	15994
842.385	15937
842.522	16154
842.659	16055
842.796	15994
842.933	15968
843.069	16013
843.206	16002
843.343	16006
843.479	16029
843.616	16093
843.752	15869
843.889	15884
844.025	15930
844.162	15812
844.298	15941
844.435	15774
844.571	15747
844.708	15880
844.844	16112
844.98	16090
845.117	15987
845.253	15770
845.389	15842
845.525	15842
845.661	15888
845.798	15835
845.934	15987
846.07	15922
846.206	15953
846.342	15956
846.478	15759
846.614	15599
846.75	15428
846.886	15401
847.022	15458
847.158	15431
847.294	15405
847.429	15382
847.565	15298
847.701	15561
847.837	15028
847.972	15135
848.108	15275
848.244	15173
848.379	15032
848.515	14998
848.65	14788
848.786	15039
848.921	15017
849.057	15020
849.192	15062
849.328	15024
849.463	15017
849.598	15009
849.734	14861
849.869	14861
850.004	14708
850.14	14792
850.275	14781
850.41	14606
850.545	14720
850.68	14765
850.815	14750
850.95	14724
851.085	14960
851.22	14861
851.355	14785
851.49	14750
851.625	14731
851.76	14773
851.895	14629
852.03	14613
852.165	14693
852.299	14758
852.434	14689
852.569	14735
852.703	14731
852.838	14845
852.973	14952
853.107	14823
853.242	14792
853.376	14686
853.511	14507
853.645	14560
853.78	14830
853.914	14659
854.048	14518
854.183	14617
854.317	14594
854.451	14777
854.585	14636
854.72	14602
854.854	14727
854.988	14541
855.122	14583
855.256	14488
855.39	14552
855.524	14739
855.658	14545
855.792	14659
855.926	14697
856.06	14716
856.194	14815
856.327	14602
856.461	14530
856.595	14461
856.729	14613
856.862	14735
856.996	14682
857.13	14701
857.263	14720
857.397	14716
857.53	14678
857.664	14655
857.797	14674
857.931	14629
858.064	14636
858.197	14705
858.331	14716
858.464	14568
858.597	14473
858.731	14617
858.864	14564
858.997	14594
859.13	14610
859.263	14659
859.396	14682
859.529	14560
859.662	14587
859.795	14606
859.928	14594
860.061	14777
860.194	14750
860.327	14571
860.46	14648
860.592	14686
860.725	14754
860.858	14682
860.99	14670
861.123	14564
861.256	14507
861.388	14670
861.521	15450
861.653	14533
861.786	14328
861.918	14385
862.05	14575
862.183	14552
862.315	14606
862.447	14632
862.58	14514
862.712	14355
862.844	14381
862.976	14374
863.108	14393
863.24	14750
863.372	14294
863.504	14446
863.636	14488
863.768	14434
863.9	14343
864.032	14339
864.164	14446
864.296	14336
864.428	14530
864.559	14499
864.691	14579
864.823	14389
864.954	14404
865.086	14419
865.217	14419
865.349	14301
865.48	14446
865.612	14301
865.743	14499
865.875	14442
866.006	14355
866.137	14218
866.269	14317
866.4	14313
866.531	14290
866.662	14324
866.793	14396
866.924	14328
867.055	14412
867.186	14370
867.317	14336
867.448	14271
867.579	14305
867.71	14301
867.841	14218
867.972	14309
868.103	14282
868.233	14423
868.364	14381
868.495	14488
868.625	14560
868.756	14655
868.886	14579
869.017	14545
869.147	14754
869.278	14659
869.408	14499
869.539	14571
869.669	14651
869.799	14659
869.929	14731
870.06	14705
870.19	14849
870.32	14914
870.45	14819
870.58	15020
870.71	15058
870.84	15108
870.97	15043
871.1	14986
871.23	15146
871.36	15112
871.489	15062
871.619	15112
871.749	15157
871.879	15230
872.008	15237
872.138	15176
872.267	15116
872.397	15020
872.526	15032
872.656	15028
872.785	15169
872.915	15279
873.044	15367
873.173	15260
873.303	15283
873.432	15355
873.561	15237
873.69	15310
873.819	15226
873.948	15268
874.077	15241
874.206	15211
874.335	15275
874.464	15355
874.593	15614
874.722	15515
874.851	15599
874.979	15572
875.108	15576
875.237	15515
875.365	15424
875.494	15511
875.623	15572
875.751	15576
875.88	15530
876.008	15743
876.136	15918
876.265	16010
876.393	16120
876.521	16124
876.65	16078
876.778	16090
876.906	15975
877.034	15991
877.162	15945
877.29	15892
877.418	16051
877.546	16124
877.674	16032
877.802	16036
877.93	16059
878.058	15861
878.185	15861
878.313	16025
878.441	15987
878.568	15892
878.696	16017
878.824	16013
878.951	16135
879.079	16211
879.206	16413
879.333	16341
879.461	16143
879.588	16238
879.715	16257
879.842	16421
879.97	16051
880.097	15907
880.224	15873
880.351	15979
880.478	15850
880.605	15857
880.732	15903
880.859	16093
880.986	15876
881.112	15785
881.239	15751
881.366	15580
881.493	15469
881.619	15511
881.746	15572
881.872	15534
881.999	15564
882.125	15416
882.252	15580
882.378	15633
882.505	15686
882.631	15534
882.757	15294
882.883	15344
883.01	15351
883.136	15264
883.262	15302
883.388	15157
883.514	15370
883.64	15325
883.766	15214
883.892	15142
884.018	15161
884.143	15325
884.269	15370
884.395	15119
884.52	15070
884.646	15013
884.772	15051
884.897	14902
885.023	15024
885.148	15230
885.274	15192
885.399	15119
885.524	15070
885.65	15043
885.775	15119
885.9	15066
886.025	15131
886.15	15097
886.275	15009
886.4	14944
886.525	14994
886.65	14929
886.775	14963
886.9	15116
887.025	15226
887.149	15108
887.274	14800
887.399	14758
887.523	14929
887.648	14925
887.773	14792
887.897	14830
888.021	14941
888.146	14727
888.27	14967
888.395	14967
888.519	14918
888.643	14868
888.767	14887
888.891	14750
889.015	14708
889.139	14735
889.263	14667
889.387	14746
889.511	14925
889.635	14811
889.759	14712
889.883	14606
890.006	14682
890.13	14807
890.254	14670
890.377	14682
890.501	14507
890.624	14552
890.748	14446
890.871	14415
890.995	14362
891.118	14271
891.241	14423
891.364	14366
891.488	14484
891.611	14393
891.734	14393
891.857	14476
891.98	14309
892.103	14419
892.226	14480
892.349	14362
892.471	14142
892.594	14377
892.717	14389
892.839	14252
892.962	14404
893.085	14404
893.207	14286
893.33	14218
893.452	14256
893.575	14419
893.697	14339
893.819	14507
893.941	14541
894.064	14533
894.186	14313
894.308	14320
894.43	14412
894.552	14575
894.674	14511
894.796	14404
894.918	14400
895.04	14336
895.161	14503
895.283	14488
895.405	14374
895.526	14423
895.648	14374
895.769	14511
895.891	14511
896.012	14556
896.134	14636
896.255	14511
896.376	14461
896.498	14545
896.619	14632
896.74	14492
896.861	14568
896.982	14906
897.103	14967
897.224	14800
897.345	14758
897.466	14693
897.587	14800
897.708	14921
897.828	14861
897.949	14796
898.07	14621
898.19	14674
898.311	14872
898.431	14811
898.552	14891
898.672	15009
898.792	15009
898.913	14990
899.033	14765
899.153	14807
899.273	14678
899.393	14781
899.513	14773
899.633	14781
899.753	14701
899.873	14644
899.993	14823
900.113	14785
900.232	14781
900.352	14773
900.472	14568
900.591	14488
900.711	14655
900.83	14590
900.95	14727
901.069	14708
901.189	14473
901.308	14339
901.427	14240
901.546	14244
901.665	14282
901.784	14320
901.904	14142
902.023	14096
902.141	13902
902.26	13849
902.379	13879
902.498	13814
902.617	13879
902.735	13879
902.854	13837
902.973	13715
903.091	13575
903.21	13548
903.328	13521
903.446	13491
903.565	13343
903.683	13544
903.801	13240
903.919	13407
904.038	13419
904.156	13217
904.274	13225
904.392	13221
904.51	13168
904.627	13171
904.745	13225
904.863	13304
904.981	12935
905.098	12867
905.216	12837
905.334	12962
905.451	12973
905.569	12856
905.686	12939
905.803	12871
905.921	12722
906.038	12817
906.155	12711
906.272	12585
906.389	12639
906.506	12589
906.623	12574
906.74	12395
906.857	12410
906.974	12342
907.091	12525
907.208	12612
907.324	12532
907.441	12456
907.557	12258
907.674	12289
907.79	12140
907.907	12159
908.023	12209
908.139	12235
908.256	12186
908.372	12117
908.488	12057
908.604	12076
908.72	11939
908.836	11954
908.952	11954
909.068	12003
909.184	12011
909.3	11980
909.415	12057
909.531	11916
909.647	11775
909.762	11733
909.878	11722
909.993	11817
910.108	11752
910.224	11748
910.339	11802
910.454	11668
910.57	11604
910.685	11600
910.8	11927
910.915	11764
911.03	11615
911.145	11551
911.259	11452
911.374	11448
911.489	11383
911.604	11345
911.718	11311
911.833	11235
911.947	11181
912.062	11086
912.176	11246
912.291	11258
912.405	11174
912.519	11429
912.633	11436
912.748	11280
912.862	11280
912.976	11155
913.09	10980
913.204	11060
913.318	11143
913.431	11235
913.545	11143
913.659	11280
913.772	11140
913.886	11052
914	10965
914.113	11128
914.226	11128
914.34	11098
914.453	10915
914.566	10991
914.68	10965
914.793	10908
914.906	10790
915.019	10702
915.132	10729
915.245	10763
915.358	10714
915.47	10786
915.583	10763
915.696	10763
915.809	10896
915.921	10930
916.034	10729
916.146	10691
916.259	10691
916.371	10797
916.483	10771
916.595	10710
916.708	10660
916.82	10645
916.932	10596
917.044	10721
917.156	10649
917.268	10588
917.38	10550
917.491	10569
917.603	10527
917.715	10687
917.826	10698
917.938	10561
918.049	10402
918.161	10497
918.272	10683
918.384	10755
918.495	10554
918.606	10436
918.717	10360
918.828	10417
918.939	10386
919.05	10280
919.161	10379
919.272	10207
919.383	10295
919.494	10455
919.604	10656
919.715	10466
919.826	10405
919.936	10462
920.047	10519
920.157	10565
920.267	10577
920.378	10417
920.488	10371
920.598	10660
920.708	10820
920.818	10706
920.928	10618
921.038	10809
921.148	10721
921.258	10542
921.368	10462
921.477	10314
921.587	10287
921.697	10093
921.806	10246
921.916	10131
922.025	10078
922.134	10006
922.244	9998
922.353	10063
922.462	9956
922.571	9869
922.68	9675
922.789	9610
922.898	9740
923.007	9694
923.116	9671
923.224	9694
923.333	9709
923.442	9584
923.55	9526
923.659	9591
923.767	9622
923.876	9580
923.984	9610
924.092	9507
924.201	9515
924.309	9477
924.417	9538
924.525	9511
924.633	9466
924.741	10497
924.849	9298
924.956	9492
925.064	9310
925.172	9302
925.279	9287
925.387	9275
925.494	9336
925.602	9443
925.709	9351
925.816	9310
925.924	9325
926.031	9367
926.138	9348
926.245	9329
926.352	9233
926.459	9386
926.566	9389
926.673	9367
926.779	9192
926.886	9154
926.993	9058
927.099	9074
927.206	8986
927.312	9009
927.419	9055
927.525	8990
927.631	9066
927.737	9005
927.843	8902
927.95	8792
928.056	8823
928.162	8899
928.267	8937
928.373	9614
928.479	9017
928.585	8758
928.69	8925
928.796	8906
928.901	8834
929.007	8720
929.112	8868
929.218	8796
929.323	8735
929.428	8754
929.533	8880
929.638	8674
929.743	8708
929.848	8746
929.953	8777
930.058	8701
930.163	8541
930.267	8480
930.372	8701
930.477	8495
930.581	8731
930.685	8602
930.79	8473
930.894	8587
930.998	8480
931.103	8526
931.207	8263
931.311	8191
931.415	8145
931.519	7947
931.623	7967
