Data from test_V78500241_1400.txt Node
Date: Fri Mar 25 14:43:27 CST 2022
User: usil
Spectrometer: V785-0024
Trigger mode: 0
Integration Time (sec): 4.000000E-1
Scans to average: 1
Nonlinearity correction enabled: false
Boxcar width: 0
Storing dark spectrum: false
XAxis mode: Wavelengths
Number of Pixels in Spectrum: 1024
>>>>>Begin Spectral Data<<<<<
801.071	22417
801.214	22314
801.356	22051
801.499	22040
801.641	21766
801.783	21816
801.926	21953
802.068	21682
802.211	21648
802.353	21629
802.496	21378
802.638	21272
802.78	21336
802.923	21268
803.065	21039
803.208	21032
803.35	21005
803.492	21146
803.635	21329
803.777	21184
803.919	21131
804.061	21511
804.204	21214
804.346	21032
804.488	21062
804.63	21070
804.773	20967
804.915	20986
805.057	21131
805.199	21043
805.341	21176
805.483	21062
805.626	21214
805.768	21058
805.91	21017
806.052	21005
806.194	20967
806.336	21142
806.478	21028
806.62	21074
806.762	21074
806.904	21252
807.046	21462
807.188	21351
807.33	21348
807.472	21462
807.614	21454
807.756	21310
807.898	21252
808.04	21230
808.182	21226
808.324	21218
808.465	21298
808.607	21591
808.749	21568
808.891	21865
809.033	21865
809.174	21660
809.316	21564
809.458	21644
809.6	21568
809.741	21557
809.883	21663
810.025	21682
810.166	21633
810.308	21667
810.45	21770
810.591	21534
810.733	21374
810.875	21211
811.016	21245
811.158	21070
811.299	21298
811.441	21428
811.582	21332
811.724	21203
811.865	21230
812.007	21203
812.148	21325
812.29	21226
812.431	21374
812.573	21481
812.714	21660
812.855	21743
812.997	21892
813.138	21892
813.279	21846
813.421	21641
813.562	21603
813.703	21492
813.845	21298
813.986	21135
814.127	20944
814.268	20800
814.41	20868
814.551	20769
814.692	20872
814.833	20697
814.974	20602
815.115	20705
815.256	20606
815.397	20594
815.539	20632
815.68	20568
815.821	20438
815.962	20640
816.103	20541
816.244	20408
816.385	20142
816.526	20294
816.666	20122
816.807	20054
816.948	20001
817.089	20058
817.23	19951
817.371	19947
817.512	19917
817.653	19906
817.793	19955
817.934	19909
818.075	19925
818.216	20005
818.356	19791
818.497	19594
818.638	19559
818.778	19620
818.919	19723
819.06	19620
819.2	19769
819.341	19704
819.481	19780
819.622	19864
819.762	20008
819.903	20119
820.043	20001
820.184	19925
820.324	19894
820.465	20046
820.605	19963
820.746	19967
820.886	19776
821.026	19841
821.167	19826
821.307	19902
821.447	19860
821.588	19582
821.728	19738
821.868	19491
822.008	19327
822.149	19152
822.289	19320
822.429	19122
822.569	18916
822.709	18943
822.849	18768
822.99	18886
823.13	18814
823.27	18623
823.41	18684
823.55	18494
823.69	18669
823.83	18661
823.97	18601
824.11	18338
824.25	18418
824.389	18372
824.529	18460
824.669	18338
824.809	18441
824.949	18517
825.089	18456
825.228	18365
825.368	18129
825.508	18228
825.648	18133
825.787	18098
825.927	18125
826.067	18159
826.206	18079
826.346	18205
826.485	18205
826.625	18098
826.765	18292
826.904	18262
827.044	17874
827.183	17897
827.323	17794
827.462	17950
827.601	17832
827.741	17809
827.88	17908
828.02	17745
828.159	17790
828.298	17882
828.437	17939
828.577	17741
828.716	17988
828.855	17813
828.994	17589
829.134	17661
829.273	17608
829.412	17604
829.551	17566
829.69	17558
829.829	17672
829.968	17710
830.107	17589
830.246	17657
830.385	17554
830.524	17516
830.663	17414
830.802	17387
830.941	17189
831.08	17223
831.219	17273
831.357	17299
831.496	17402
831.635	17189
831.774	17140
831.913	17166
832.051	17048
832.19	17094
832.329	17060
832.467	16908
832.606	16862
832.744	16923
832.883	16953
833.022	16809
833.16	16946
833.299	16957
833.437	16976
833.576	16866
833.714	16961
833.852	17052
833.991	16987
834.129	16984
834.267	17060
834.406	16961
834.544	17045
834.682	17018
834.821	16946
834.959	17105
835.097	16881
835.235	17056
835.373	16953
835.511	17048
835.65	16835
835.788	16923
835.926	16725
836.064	16615
836.202	16641
836.34	16881
836.478	16961
836.615	16782
836.753	16873
836.891	16847
837.029	16965
837.167	16847
837.305	16839
837.443	16797
837.58	16675
837.718	16668
837.856	16729
837.993	16622
838.131	16736
838.269	16645
838.406	16565
838.544	16542
838.681	16428
838.819	16402
838.956	16192
839.094	16291
839.231	16314
839.369	16306
839.506	16748
839.643	16516
839.781	16386
839.918	16207
840.055	16322
840.193	16303
840.33	16242
840.467	16253
840.604	16382
840.742	16470
840.879	16169
841.016	16200
841.153	16169
841.29	16344
841.427	16272
841.564	16280
841.701	16177
841.838	16090
841.975	16166
842.112	16158
842.249	16101
842.385	16097
842.522	16150
842.659	16032
842.796	16055
842.933	16032
843.069	16074
843.206	15937
843.343	16105
843.479	16055
843.616	16071
843.752	15899
843.889	15869
844.025	15945
844.162	15785
844.298	16006
844.435	15854
844.571	15854
844.708	15888
844.844	15991
844.98	15991
845.117	15873
845.253	15770
845.389	15743
845.525	15873
845.661	15739
845.798	15755
845.934	15949
846.07	15918
846.206	15979
846.342	16029
846.478	15755
846.614	15515
846.75	15424
846.886	15488
847.022	15435
847.158	15359
847.294	15428
847.429	15496
847.565	15416
847.701	15644
847.837	15150
847.972	15089
848.108	15325
848.244	15203
848.379	15005
848.515	15020
848.65	14925
848.786	15043
848.921	15028
849.057	15001
849.192	15017
849.328	15058
849.463	14902
849.598	14994
849.734	14952
849.869	14872
850.004	14857
850.14	14838
850.275	14727
850.41	14727
850.545	14750
850.68	14804
850.815	14724
850.95	14701
851.085	14998
851.22	14769
851.355	14750
851.49	14674
851.625	14750
851.76	14777
851.895	14602
852.03	14571
852.165	14697
852.299	14781
852.434	14864
852.569	14708
852.703	14845
852.838	14861
852.973	14876
853.107	14891
853.242	14727
853.376	14629
853.511	14518
853.645	14606
853.78	14686
853.914	14686
854.048	14571
854.183	14590
854.317	14731
854.451	14739
854.585	14602
854.72	14659
854.854	14708
854.988	14583
855.122	14644
855.256	14450
855.39	14651
855.524	14663
855.658	14590
855.792	14701
855.926	14758
856.06	14629
856.194	14705
856.327	14625
856.461	14579
856.595	14545
856.729	14587
856.862	14720
856.996	14689
857.13	14686
857.263	14686
857.397	14815
857.53	14564
857.664	14674
857.797	14644
857.931	14720
858.064	14708
858.197	14773
858.331	14598
858.464	14632
858.597	14549
858.731	14686
858.864	14644
858.997	14583
859.13	14526
859.263	14613
859.396	14655
859.529	14644
859.662	14598
859.795	14636
859.928	14689
860.061	14883
860.194	14815
860.327	14625
860.46	14617
860.592	14712
860.725	14788
860.858	14769
860.99	14705
861.123	14549
861.256	14545
861.388	14644
861.521	15443
861.653	14461
861.786	14427
861.918	14438
862.05	14587
862.183	14579
862.315	14632
862.447	14659
862.58	14571
862.712	14423
862.844	14381
862.976	14476
863.108	14488
863.24	14857
863.372	14377
863.504	14381
863.636	14351
863.768	14526
863.9	14332
864.032	14294
864.164	14240
864.296	14427
864.428	14564
864.559	14480
864.691	14552
864.823	14393
864.954	14355
865.086	14366
865.217	14317
865.349	14267
865.48	14328
865.612	14278
865.743	14552
865.875	14385
866.006	14320
866.137	14396
866.269	14366
866.4	14377
866.531	14404
866.662	14278
866.793	14263
866.924	14351
867.055	14320
867.186	14484
867.317	14343
867.448	14176
867.579	14271
867.71	14278
867.841	14267
867.972	14275
868.103	14408
868.233	14347
868.364	14381
868.495	14415
868.625	14450
868.756	14610
868.886	14461
869.017	14613
869.147	14712
869.278	14743
869.408	14644
869.539	14583
869.669	14697
869.799	14629
869.929	14758
870.06	14667
870.19	14982
870.32	14883
870.45	15047
870.58	15001
870.71	15089
870.84	15169
870.97	14986
871.1	14918
871.23	15146
871.36	15169
871.489	15112
871.619	15070
871.749	15237
871.879	15306
872.008	15264
872.138	15298
872.267	15272
872.397	15207
872.526	14998
872.656	15051
872.785	15108
872.915	15268
873.044	15283
873.173	15256
873.303	15321
873.432	15283
873.561	15412
873.69	15245
873.819	15317
873.948	15291
874.077	15245
874.206	15199
874.335	15275
874.464	15435
874.593	15515
874.722	15431
874.851	15595
874.979	15595
875.108	15576
875.237	15534
875.365	15450
875.494	15549
875.623	15682
875.751	15515
875.88	15618
876.008	15831
876.136	15823
876.265	15915
876.393	16029
876.521	16090
876.65	16071
876.778	16025
876.906	15953
877.034	15876
877.162	15972
877.29	15926
877.418	16059
877.546	15941
877.674	15953
877.802	15987
877.93	16055
878.058	15922
878.185	15857
878.313	15964
878.441	16017
878.568	15816
878.696	15941
878.824	16139
878.951	15994
879.079	16318
879.206	16371
879.333	16367
879.461	16181
879.588	16257
879.715	16295
879.842	16474
879.97	16131
880.097	16002
880.224	15823
880.351	15945
880.478	15907
880.605	15842
880.732	15956
880.859	16226
880.986	15835
881.112	15922
881.239	15800
881.366	15800
881.493	15614
881.619	15568
881.746	15454
881.872	15549
881.999	15485
882.125	15492
882.252	15614
882.378	15507
882.505	15679
882.631	15405
882.757	15397
882.883	15386
883.01	15332
883.136	15306
883.262	15226
883.388	15192
883.514	15416
883.64	15420
883.766	15351
883.892	15279
884.018	15230
884.143	15317
884.269	15458
884.395	15009
884.52	15005
884.646	15047
884.772	14975
884.897	14971
885.023	15142
885.148	15108
885.274	15230
885.399	15093
885.524	15039
885.65	15119
885.775	14906
885.9	14990
886.025	15161
886.15	15070
886.275	14998
886.4	14990
886.525	14982
886.65	14887
886.775	14971
886.9	15169
887.025	15256
887.149	15077
887.274	14895
887.399	14777
887.523	14762
887.648	14777
887.773	14750
887.897	14933
888.021	14921
888.146	14769
888.27	14914
888.395	14914
888.519	15020
888.643	14849
888.767	14967
888.891	14834
889.015	14689
889.139	14693
889.263	14674
889.387	14697
889.511	14933
889.635	14849
889.759	14556
889.883	14644
890.006	14663
890.13	14864
890.254	14629
890.377	14659
890.501	14530
890.624	14438
890.748	14583
890.871	14351
890.995	14313
891.118	14237
891.241	14473
891.364	14393
891.488	14457
891.611	14412
891.734	14400
891.857	14545
891.98	14415
892.103	14549
892.226	14446
892.349	14328
892.471	14271
892.594	14385
892.717	14362
892.839	14415
892.962	14400
893.085	14492
893.207	14339
893.33	14313
893.452	14286
893.575	14423
893.697	14336
893.819	14583
893.941	14670
894.064	14518
894.186	14355
894.308	14332
894.43	14537
894.552	14613
894.674	14434
894.796	14317
894.918	14393
895.04	14412
895.161	14514
895.283	14450
895.405	14419
895.526	14530
895.648	14431
895.769	14511
895.891	14454
896.012	14655
896.134	14564
896.255	14526
896.376	14457
896.498	14533
896.619	14545
896.74	14602
896.861	14575
896.982	14921
897.103	15058
897.224	14883
897.345	14811
897.466	14697
897.587	14811
897.708	14948
897.828	14963
897.949	14819
898.07	14648
898.19	14781
898.311	15009
898.431	14880
898.552	14887
898.672	14948
898.792	14967
898.913	14876
899.033	14834
899.153	14731
899.273	14621
899.393	14610
899.513	14762
899.633	14743
899.753	14720
899.873	14678
899.993	14796
900.113	14731
900.232	14693
900.352	14712
900.472	14644
900.591	14522
900.711	14613
900.83	14533
900.95	14693
901.069	14701
901.189	14476
901.308	14339
901.427	14301
901.546	14286
901.665	14332
901.784	14301
901.904	14092
902.023	14191
902.141	13856
902.26	13868
902.379	13826
902.498	13746
902.617	13723
902.735	13814
902.854	13795
902.973	13784
903.091	13582
903.21	13521
903.328	13544
903.446	13426
903.565	13422
903.683	13434
903.801	13259
903.919	13396
904.038	13324
904.156	13141
904.274	13278
904.392	13228
904.51	13164
904.627	13213
904.745	13209
904.863	13198
904.981	13065
905.098	12962
905.216	12894
905.334	12878
905.451	12970
905.569	12909
905.686	12928
905.803	12951
905.921	12616
906.038	12798
906.155	12730
906.272	12719
906.389	12608
906.506	12456
906.623	12502
906.74	12498
906.857	12311
906.974	12414
907.091	12623
907.208	12627
907.324	12528
907.441	12494
907.557	12224
907.674	12194
907.79	12209
907.907	12186
908.023	12342
908.139	12285
908.256	12136
908.372	12190
908.488	12163
908.604	12011
908.72	11939
908.836	12064
908.952	11897
909.068	11973
909.184	12205
909.3	11969
909.415	12007
909.531	11977
909.647	11828
909.762	11737
909.878	11703
909.993	11684
910.108	11699
910.224	11665
910.339	11680
910.454	11600
910.57	11543
910.685	11524
910.8	11863
910.915	11752
911.03	11672
911.145	11433
911.259	11425
911.374	11448
911.489	11353
911.604	11337
911.718	11204
911.833	11181
911.947	11052
912.062	10972
912.176	11128
912.291	11231
912.405	11185
912.519	11387
912.633	11433
912.748	11269
912.862	11235
912.976	11083
913.09	10999
913.204	10999
913.318	11166
913.431	11147
913.545	11113
913.659	11155
913.772	11147
913.886	11045
914	10961
914.113	11086
914.226	11083
914.34	11086
914.453	10866
914.566	11162
914.68	10900
914.793	10892
914.906	10660
915.019	10641
915.132	10668
915.245	10733
915.358	10790
915.47	10698
915.583	10740
915.696	10748
915.809	10862
915.921	10839
916.034	10767
916.146	10618
916.259	10630
916.371	10672
916.483	10653
916.595	10618
916.708	10630
916.82	10584
916.932	10641
917.044	10603
917.156	10546
917.268	10523
917.38	10497
917.491	10538
917.603	10558
917.715	10607
917.826	10615
917.938	10500
918.049	10405
918.161	10573
918.272	10675
918.384	10645
918.495	10592
918.606	10413
918.717	10310
918.828	10318
918.939	10379
919.05	10246
919.161	10390
919.272	10192
919.383	10246
919.494	10421
919.604	10603
919.715	10443
919.826	10318
919.936	10314
920.047	10436
920.157	10455
920.267	10653
920.378	10478
920.488	10421
920.598	10573
920.708	10706
920.818	10546
920.928	10675
921.038	10771
921.148	10763
921.258	10390
921.368	10314
921.477	10280
921.587	10249
921.697	10150
921.806	10314
921.916	10185
922.025	9934
922.134	9960
922.244	9979
922.353	10063
922.462	9812
922.571	9789
922.68	9660
922.789	9724
922.898	9728
923.007	9633
923.116	9663
923.224	9728
923.333	9595
923.442	9504
923.55	9545
923.659	9545
923.767	9679
923.876	9549
923.984	9622
924.092	9466
924.201	9507
924.309	9515
924.417	9538
924.525	9405
924.633	9416
924.741	10409
924.849	9321
924.956	9412
925.064	9275
925.172	9203
925.279	9245
925.387	9367
925.494	9279
925.602	9386
925.709	9439
925.816	9256
925.924	9214
926.031	9386
926.138	9260
926.245	9348
926.352	9233
926.459	9439
926.566	9370
926.673	9344
926.779	9108
926.886	9226
926.993	8998
927.099	9028
927.206	8990
927.312	8948
927.419	9062
927.525	9017
927.631	9089
927.737	8876
927.843	8872
927.95	8750
928.056	8857
928.162	8872
928.267	8956
928.373	9580
928.479	8921
928.585	8758
928.69	8887
928.796	8925
928.901	8826
929.007	8674
929.112	8792
929.218	8815
929.323	8746
929.428	8758
929.533	8868
929.638	8610
929.743	8739
929.848	8731
929.953	8735
930.058	8674
930.163	8419
930.267	8583
930.372	8606
930.477	8419
930.581	8667
930.685	8560
930.79	8457
930.894	8412
930.998	8381
931.103	8613
931.207	8252
931.311	8145
931.415	8134
931.519	7967
931.623	7997
