Data from test_V78500241_2343.txt Node
Date: Fri Mar 25 14:50:01 CST 2022
User: usil
Spectrometer: V785-0024
Trigger mode: 0
Integration Time (sec): 4.000000E-1
Scans to average: 1
Nonlinearity correction enabled: false
Boxcar width: 0
Storing dark spectrum: false
XAxis mode: Wavelengths
Number of Pixels in Spectrum: 1024
>>>>>Begin Spectral Data<<<<<
801.071	22074
801.214	22002
801.356	21591
801.499	21606
801.641	21511
801.783	21515
801.926	21538
802.068	21397
802.211	21294
802.353	21287
802.496	21146
802.638	21013
802.78	21024
802.923	20872
803.065	20986
803.208	20819
803.35	20868
803.492	20918
803.635	20952
803.777	20899
803.919	20925
804.061	21074
804.204	20823
804.346	20823
804.488	20807
804.63	20804
804.773	20640
804.915	20746
805.057	20891
805.199	20720
805.341	20914
805.483	20895
805.626	20804
805.768	20705
805.91	20708
806.052	20781
806.194	20663
806.336	20883
806.478	20754
806.62	20743
806.762	20823
806.904	20838
807.046	21135
807.188	21119
807.33	21169
807.472	21074
807.614	20948
807.756	21036
807.898	20963
808.04	20819
808.182	20868
808.324	20773
808.465	20861
808.607	20982
808.749	21112
808.891	21272
809.033	21386
809.174	21138
809.316	21142
809.458	21260
809.6	21146
809.741	21233
809.883	21230
810.025	21310
810.166	21317
810.308	21302
810.45	21252
810.591	21195
810.733	21047
810.875	20963
811.016	20861
811.158	20838
811.299	20971
811.441	21150
811.582	20994
811.724	20960
811.865	20902
812.007	20902
812.148	20910
812.29	21085
812.431	21119
812.573	21157
812.714	21325
812.855	21386
812.997	21591
813.138	21679
813.279	21526
813.421	21466
813.562	21454
813.703	21237
813.845	21127
813.986	20914
814.127	20640
814.268	20602
814.41	20575
814.551	20461
814.692	20431
814.833	20419
814.974	20431
815.115	20480
815.256	20339
815.397	20328
815.539	20332
815.68	20130
815.821	20073
815.962	20286
816.103	20130
816.244	20069
816.385	19997
816.526	19959
816.666	19795
816.807	19628
816.948	19537
817.089	19841
817.23	19609
817.371	19643
817.512	19624
817.653	19613
817.793	19506
817.934	19559
818.075	19628
818.216	19632
818.356	19491
818.497	19373
818.638	19225
818.778	19194
818.919	19297
819.06	19377
819.2	19445
819.341	19400
819.481	19495
819.622	19605
819.762	19803
819.903	19788
820.043	19681
820.184	19506
820.324	19537
820.465	19715
820.605	19613
820.746	19696
820.886	19434
821.026	19590
821.167	19415
821.307	19647
821.447	19407
821.588	19422
821.728	19213
821.868	19164
822.008	18996
822.149	19080
822.289	18947
822.429	18722
822.569	18719
822.709	18646
822.849	18395
822.99	18536
823.13	18502
823.27	18441
823.41	18281
823.55	18254
823.69	18334
823.83	18315
823.97	18167
824.11	18140
824.25	17954
824.389	18022
824.529	18125
824.669	18019
824.809	18057
824.949	18209
825.089	18114
825.228	18064
825.368	17904
825.508	17824
825.648	17935
825.787	17874
825.927	17794
826.067	17821
826.206	17729
826.346	17843
826.485	17805
826.625	17832
826.765	17836
826.904	17843
827.044	17661
827.183	17459
827.323	17528
827.462	17554
827.601	17471
827.741	17585
827.88	17501
828.02	17360
828.159	17543
828.298	17577
828.437	17627
828.577	17379
828.716	17577
828.855	17467
828.994	17299
829.134	17277
829.273	17250
829.412	17250
829.551	17178
829.69	17299
829.829	17227
829.968	17261
830.107	17391
830.246	17307
830.385	17155
830.524	17216
830.663	17147
830.802	16915
830.941	16850
831.08	16839
831.219	16915
831.357	16949
831.496	17083
831.635	16892
831.774	16733
831.913	16698
832.051	16725
832.19	16683
832.329	16706
832.467	16523
832.606	16516
832.744	16603
832.883	16535
833.022	16550
833.16	16618
833.299	16577
833.437	16588
833.576	16653
833.714	16546
833.852	16527
833.991	16660
834.129	16641
834.267	16634
834.406	16774
834.544	16721
834.682	16634
834.821	16550
834.959	16759
835.097	16523
835.235	16664
835.373	16660
835.511	16626
835.65	16512
835.788	16561
835.926	16280
836.064	16329
836.202	16299
836.34	16512
836.478	16622
836.615	16493
836.753	16470
836.891	16546
837.029	16577
837.167	16348
837.305	16402
837.443	16390
837.58	16356
837.718	16440
837.856	16325
837.993	16413
838.131	16417
838.269	16310
838.406	16322
838.544	16200
838.681	16048
838.819	16059
838.956	15930
839.094	15880
839.231	15953
839.369	16002
839.506	16249
839.643	16150
839.781	15983
839.918	15781
840.055	15956
840.193	15797
840.33	15812
840.467	15941
840.604	15907
840.742	16154
840.879	15739
841.016	15812
841.153	15835
841.29	15956
841.427	15991
841.564	15934
841.701	15915
841.838	15797
841.975	15903
842.112	15724
842.249	15686
842.385	15614
842.522	15831
842.659	15656
842.796	15709
842.933	15652
843.069	15724
843.206	15568
843.343	15762
843.479	15770
843.616	15800
843.752	15492
843.889	15485
844.025	15610
844.162	15447
844.298	15568
844.435	15420
844.571	15359
844.708	15530
844.844	15557
844.98	15572
845.117	15542
845.253	15420
845.389	15287
845.525	15374
845.661	15294
845.798	15397
845.934	15287
846.07	15180
846.206	15389
846.342	15450
846.478	15230
846.614	15108
846.75	15005
846.886	15051
847.022	15157
847.158	15089
847.294	15085
847.429	15009
847.565	15097
847.701	15291
847.837	14826
847.972	14781
848.108	14857
848.244	14876
848.379	14663
848.515	14682
848.65	14640
848.786	14648
848.921	14693
849.057	14876
849.192	14712
849.328	14758
849.463	14750
849.598	14636
849.734	14621
849.869	14556
850.004	14549
850.14	14526
850.275	14454
850.41	14324
850.545	14400
850.68	14442
850.815	14465
850.95	14492
851.085	14613
851.22	14522
851.355	14533
851.49	14431
851.625	14393
851.76	14415
851.895	14317
852.03	14336
852.165	14362
852.299	14434
852.434	14465
852.569	14412
852.703	14533
852.838	14575
852.973	14541
853.107	14575
853.242	14408
853.376	14328
853.511	14111
853.645	14218
853.78	14484
853.914	14370
854.048	14157
854.183	14259
854.317	14336
854.451	14484
854.585	14328
854.72	14244
854.854	14358
854.988	14199
855.122	14339
855.256	14142
855.39	14313
855.524	14366
855.658	14400
855.792	14332
855.926	14202
856.06	14309
856.194	14446
856.327	14347
856.461	14225
856.595	14343
856.729	14286
856.862	14377
856.996	14427
857.13	14339
857.263	14400
857.397	14415
857.53	14389
857.664	14351
857.797	14419
857.931	14450
858.064	14259
858.197	14461
858.331	14256
858.464	14286
858.597	14229
858.731	14237
858.864	14366
858.997	14183
859.13	14427
859.263	14328
859.396	14427
859.529	14313
859.662	14256
859.795	14199
859.928	14336
860.061	14461
860.194	14488
860.327	14343
860.46	14332
860.592	14339
860.725	14511
860.858	14358
860.99	14309
861.123	14214
861.256	14214
861.388	14377
861.521	14861
861.653	14176
861.786	14244
861.918	14183
862.05	14210
862.183	14320
862.315	14404
862.447	14324
862.58	14336
862.712	14024
862.844	14134
862.976	14164
863.108	14046
863.24	14408
863.372	14008
863.504	14024
863.636	14103
863.768	14027
863.9	14100
864.032	14058
864.164	14123
864.296	14073
864.428	14103
864.559	14206
864.691	14100
864.823	14054
864.954	14183
865.086	14176
865.217	14058
865.349	14027
865.48	14065
865.612	14092
865.743	14199
865.875	13978
866.006	14020
866.137	14119
866.269	14050
866.4	14123
866.531	14073
866.662	13944
866.793	14035
866.924	14138
867.055	14107
867.186	14065
867.317	13947
867.448	13921
867.579	13963
867.71	14012
867.841	13978
867.972	14088
868.103	14115
868.233	13970
868.364	14054
868.495	14149
868.625	14294
868.756	14423
868.886	14263
869.017	14336
869.147	14442
869.278	14446
869.408	14298
869.539	14385
869.669	14457
869.799	14305
869.929	14442
870.06	14499
870.19	14682
870.32	14598
870.45	14735
870.58	14750
870.71	14902
870.84	14823
870.97	14731
871.1	14667
871.23	14823
871.36	14826
871.489	14750
871.619	14876
871.749	14960
871.879	14982
872.008	15028
872.138	14937
872.267	14868
872.397	14823
872.526	14819
872.656	14735
872.785	14834
872.915	14857
873.044	15070
873.173	15058
873.303	15020
873.432	14998
873.561	15013
873.69	14956
873.819	15028
873.948	15104
874.077	15081
874.206	14895
874.335	14956
874.464	15161
874.593	15169
874.722	15245
874.851	15249
874.979	15192
875.108	15310
875.237	15211
875.365	15195
875.494	15241
875.623	15401
875.751	15180
875.88	15374
876.008	15313
876.136	15530
876.265	15694
876.393	15895
876.521	15739
876.65	15743
876.778	15660
876.906	15564
877.034	15637
877.162	15755
877.29	15618
877.418	15690
877.546	15713
877.674	15709
877.802	15793
877.93	15701
878.058	15713
878.185	15534
878.313	15698
878.441	15770
878.568	15599
878.696	15622
878.824	15705
878.951	15778
879.079	15827
879.206	16071
879.333	15884
879.461	15724
879.588	15838
879.715	15892
879.842	15903
879.97	15781
880.097	15667
880.224	15576
880.351	15511
880.478	15606
880.605	15526
880.732	15530
880.859	15774
880.986	15496
881.112	15629
881.239	15481
881.366	15291
881.493	15176
881.619	15275
881.746	15252
881.872	15146
881.999	15211
882.125	15138
882.252	15199
882.378	15214
882.505	15298
882.631	15089
882.757	15028
882.883	15055
883.01	15024
883.136	14910
883.262	14842
883.388	14845
883.514	15036
883.64	15020
883.766	14899
883.892	14823
884.018	14868
884.143	15009
884.269	15047
884.395	14705
884.52	14708
884.646	14678
884.772	14705
884.897	14545
885.023	14659
885.148	14785
885.274	14891
885.399	14777
885.524	14830
885.65	14731
885.775	14701
885.9	14724
886.025	14758
886.15	14781
886.275	14670
886.4	14587
886.525	14735
886.65	14594
886.775	14648
886.9	14765
887.025	14925
887.149	14640
887.274	14644
887.399	14431
887.523	14537
887.648	14526
887.773	14465
887.897	14560
888.021	14644
888.146	14518
888.27	14667
888.395	14571
888.519	14568
888.643	14530
888.767	14571
888.891	14389
889.015	14385
889.139	14495
889.263	14309
889.387	14495
889.511	14518
889.635	14594
889.759	14412
889.883	14355
890.006	14427
890.13	14594
890.254	14298
890.377	14412
890.501	14339
890.624	14168
890.748	14271
890.871	14183
890.995	14046
891.118	14020
891.241	14077
891.364	14012
891.488	14225
891.611	14024
891.734	14191
891.857	14183
891.98	14123
892.103	14195
892.226	14119
892.349	14130
892.471	13967
892.594	14123
892.717	14062
892.839	14024
892.962	14103
893.085	14206
893.207	14012
893.33	14024
893.452	13986
893.575	14149
893.697	14016
893.819	14275
893.941	14286
894.064	14187
894.186	14084
894.308	14081
894.43	14191
894.552	14290
894.674	14195
894.796	14012
894.918	14157
895.04	14202
895.161	14252
895.283	14157
895.405	14145
895.526	14157
895.648	14130
895.769	14271
895.891	14172
896.012	14263
896.134	14313
896.255	14324
896.376	14233
896.498	14282
896.619	14282
896.74	14324
896.861	14385
896.982	14537
897.103	14807
897.224	14632
897.345	14579
897.466	14450
897.587	14541
897.708	14625
897.828	14659
897.949	14511
898.07	14419
898.19	14431
898.311	14663
898.431	14484
898.552	14648
898.672	14663
898.792	14693
898.913	14701
899.033	14571
899.153	14454
899.273	14328
899.393	14469
899.513	14552
899.633	14442
899.753	14556
899.873	14393
899.993	14480
900.113	14465
900.232	14549
900.352	14431
900.472	14404
900.591	14275
900.711	14427
900.83	14377
900.95	14450
901.069	14488
901.189	14294
901.308	14096
901.427	14035
901.546	14012
901.665	14039
901.784	14084
901.904	13871
902.023	13757
902.141	13559
902.26	13597
902.379	13704
902.498	13499
902.617	13552
902.735	13613
902.854	13521
902.973	13552
903.091	13438
903.21	13362
903.328	13324
903.446	13324
903.565	13202
903.683	13225
903.801	13103
903.919	13114
904.038	13187
904.156	12973
904.274	13050
904.392	12962
904.51	12909
904.627	12924
904.745	13008
904.863	13061
904.981	12738
905.098	12711
905.216	12665
905.334	12707
905.451	12631
905.569	12623
905.686	12719
905.803	12734
905.921	12475
906.038	12642
906.155	12525
906.272	12407
906.389	12433
906.506	12209
906.623	12296
906.74	12220
906.857	12171
906.974	12201
907.091	12357
907.208	12289
907.324	12319
907.441	12186
907.557	12053
907.674	11973
907.79	11939
907.907	11992
908.023	12034
908.139	11965
908.256	11996
908.372	11931
908.488	11950
908.604	11760
908.72	11752
908.836	11809
908.952	11718
909.068	11748
909.184	11920
909.3	11756
909.415	11855
909.531	11741
909.647	11577
909.762	11535
909.878	11524
909.993	11554
910.108	11520
910.224	11501
910.339	11581
910.454	11509
910.57	11330
910.685	11372
910.8	11554
910.915	11573
911.03	11402
911.145	11269
911.259	11159
911.374	11193
911.489	11258
911.604	11128
911.718	10873
911.833	11014
911.947	10854
912.062	10820
912.176	10957
912.291	10953
912.405	11025
912.519	11075
912.633	11261
912.748	10946
912.862	10972
912.976	10877
913.09	10675
913.204	10778
913.318	10831
913.431	10892
913.545	10930
913.659	10923
913.772	10793
913.886	10744
914	10672
914.113	10828
914.226	10847
914.34	10809
914.453	10733
914.566	10869
914.68	10645
914.793	10660
914.906	10519
915.019	10550
915.132	10485
915.245	10459
915.358	10550
915.47	10500
915.583	10588
915.696	10527
915.809	10611
915.921	10615
916.034	10535
916.146	10500
916.259	10371
916.371	10565
916.483	10535
916.595	10413
916.708	10459
916.82	10428
916.932	10485
917.044	10432
917.156	10367
917.268	10379
917.38	10382
917.491	10348
917.603	10367
917.715	10386
917.826	10485
917.938	10352
918.049	10280
918.161	10367
918.272	10527
918.384	10527
918.495	10318
918.606	10306
918.717	10162
918.828	10215
918.939	10306
919.05	10154
919.161	10276
919.272	10013
919.383	10051
919.494	10322
919.604	10413
919.715	10310
919.826	10166
919.936	10238
920.047	10398
920.157	10185
920.267	10451
920.378	10322
920.488	10291
920.598	10398
920.708	10653
920.818	10371
920.928	10474
921.038	10637
921.148	10519
921.258	10257
921.368	10192
921.477	10097
921.587	10086
921.697	10032
921.806	10093
921.916	10025
922.025	9869
922.134	9819
922.244	9785
922.353	9892
922.462	9641
922.571	9629
922.68	9485
922.789	9485
922.898	9519
923.007	9405
923.116	9549
923.224	9507
923.333	9526
923.442	9428
923.55	9397
923.659	9443
923.767	9378
923.876	9340
923.984	9401
924.092	9397
924.201	9408
924.309	9370
924.417	9340
924.525	9294
924.633	9382
924.741	10120
924.849	9104
924.956	9222
925.064	9184
925.172	9100
925.279	9089
925.387	9131
925.494	9104
925.602	9272
925.709	9264
925.816	9108
925.924	9146
926.031	9272
926.138	9207
926.245	9211
926.352	9074
926.459	9226
926.566	9245
926.673	9116
926.779	9077
926.886	9020
926.993	8902
927.099	8872
927.206	8830
927.312	8804
927.419	8918
927.525	8861
927.631	8929
927.737	8800
927.843	8788
927.95	8606
928.056	8758
928.162	8819
928.267	8804
928.373	9450
928.479	8868
928.585	8644
928.69	8792
928.796	8826
928.901	8670
929.007	8552
929.112	8697
929.218	8678
929.323	8602
929.428	8629
929.533	8724
929.638	8587
929.743	8590
929.848	8644
929.953	8621
930.058	8465
930.163	8332
930.267	8358
930.372	8499
930.477	8339
930.581	8564
930.685	8355
930.79	8339
930.894	8309
930.998	8298
931.103	8461
931.207	8107
931.311	8062
931.415	7989
931.519	7811
931.623	7799
