Data from test_V78500241_2574.txt Node
Date: Fri Mar 25 14:51:38 CST 2022
User: usil
Spectrometer: V785-0024
Trigger mode: 0
Integration Time (sec): 4.000000E-1
Scans to average: 1
Nonlinearity correction enabled: false
Boxcar width: 0
Storing dark spectrum: false
XAxis mode: Wavelengths
Number of Pixels in Spectrum: 1024
>>>>>Begin Spectral Data<<<<<
801.071	22074
801.214	21953
801.356	21694
801.499	21606
801.641	21549
801.783	21469
801.926	21469
802.068	21313
802.211	21348
802.353	21188
802.496	20960
802.638	20876
802.78	20868
802.923	20887
803.065	20796
803.208	20743
803.35	20800
803.492	20815
803.635	20891
803.777	20708
803.919	20872
804.061	21116
804.204	20819
804.346	20762
804.488	20697
804.63	20670
804.773	20571
804.915	20644
805.057	20754
805.199	20442
805.341	20792
805.483	20743
805.626	20724
805.768	20640
805.91	20655
806.052	20792
806.194	20556
806.336	20823
806.478	20746
806.62	20659
806.762	20712
806.904	20853
807.046	21116
807.188	21028
807.33	21001
807.472	21131
807.614	20834
807.756	20899
807.898	20735
808.04	20762
808.182	20705
808.324	20842
808.465	20777
808.607	21009
808.749	20956
808.891	21131
809.033	21203
809.174	21146
809.316	20990
809.458	20967
809.6	20941
809.741	21062
809.883	21020
810.025	21203
810.166	21226
810.308	21249
810.45	21203
810.591	21009
810.733	20929
810.875	20830
811.016	20716
811.158	20731
811.299	20906
811.441	20933
811.582	21013
811.724	20807
811.865	20754
812.007	20731
812.148	20773
812.29	20864
812.431	20815
812.573	21169
812.714	21211
812.855	21192
812.997	21348
813.138	21485
813.279	21389
813.421	21329
813.562	21294
813.703	21104
813.845	21005
813.986	20609
814.127	20537
814.268	20480
814.41	20423
814.551	20339
814.692	20461
814.833	20362
814.974	20267
815.115	20351
815.256	20237
815.397	20240
815.539	20142
815.68	19906
815.821	20103
815.962	19993
816.103	19928
816.244	20031
816.385	19875
816.526	19772
816.666	19704
816.807	19533
816.948	19578
817.089	19643
817.23	19597
817.371	19491
817.512	19426
817.653	19556
817.793	19381
817.934	19468
818.075	19518
818.216	19525
818.356	19453
818.497	19244
818.638	19187
818.778	19133
818.919	19107
819.06	19103
819.2	19206
819.341	19400
819.481	19377
819.622	19392
819.762	19662
819.903	19635
820.043	19472
820.184	19426
820.324	19483
820.465	19620
820.605	19506
820.746	19544
820.886	19232
821.026	19403
821.167	19441
821.307	19407
821.447	19403
821.588	19358
821.728	19198
821.868	18977
822.008	18939
822.149	18776
822.289	18897
822.429	18635
822.569	18593
822.709	18574
822.849	18433
822.99	18304
823.13	18456
823.27	18353
823.41	18251
823.55	18095
823.69	18216
823.83	18197
823.97	18060
824.11	17874
824.25	17942
824.389	17946
824.529	17973
824.669	17973
824.809	17996
824.949	18110
825.089	17946
825.228	18049
825.368	17703
825.508	17756
825.648	17874
825.787	17779
825.927	17729
826.067	17649
826.206	17524
826.346	17726
826.485	17680
826.625	17813
826.765	17798
826.904	17786
827.044	17516
827.183	17402
827.323	17459
827.462	17478
827.601	17444
827.741	17398
827.88	17414
828.02	17368
828.159	17414
828.298	17433
828.437	17410
828.577	17395
828.716	17611
828.855	17410
828.994	17265
829.134	17143
829.273	17193
829.412	17075
829.551	17155
829.69	17155
829.829	17071
829.968	17189
830.107	17273
830.246	17197
830.385	17204
830.524	17052
830.663	16942
830.802	16877
830.941	16744
831.08	16763
831.219	16915
831.357	16778
831.496	17018
831.635	16694
831.774	16790
831.913	16599
832.051	16481
832.19	16630
832.329	16577
832.467	16630
832.606	16428
832.744	16440
832.883	16417
833.022	16432
833.16	16470
833.299	16500
833.437	16394
833.576	16474
833.714	16550
833.852	16634
833.991	16519
834.129	16626
834.267	16656
834.406	16451
834.544	16535
834.682	16504
834.821	16645
834.959	16729
835.097	16546
835.235	16550
835.373	16462
835.511	16531
835.65	16550
835.788	16428
835.926	16360
836.064	16265
836.202	16253
836.34	16474
836.478	16489
836.615	16424
836.753	16413
836.891	16508
837.029	16485
837.167	16375
837.305	16421
837.443	16394
837.58	16253
837.718	16367
837.856	16322
837.993	16234
838.131	16390
838.269	16192
838.406	16257
838.544	16272
838.681	16040
838.819	15960
838.956	15880
839.094	15850
839.231	15884
839.369	15975
839.506	16265
839.643	16158
839.781	15838
839.918	15915
840.055	15861
840.193	15918
840.33	15785
840.467	15899
840.604	15903
840.742	16158
840.879	15766
841.016	15720
841.153	15743
841.29	16044
841.427	15823
841.564	15918
841.701	15876
841.838	15827
841.975	15762
842.112	15823
842.249	15720
842.385	15675
842.522	15865
842.659	15705
842.796	15599
842.933	15641
843.069	15606
843.206	15572
843.343	15701
843.479	15690
843.616	15766
843.752	15564
843.889	15523
844.025	15542
844.162	15428
844.298	15564
844.435	15386
844.571	15450
844.708	15519
844.844	15603
844.98	15603
845.117	15553
845.253	15367
845.389	15386
845.525	15359
845.661	15408
845.798	15344
845.934	15313
846.07	15249
846.206	15249
846.342	15393
846.478	15325
846.614	14994
846.75	14998
846.886	15036
847.022	15142
847.158	15123
847.294	15055
847.429	15070
847.565	14982
847.701	15272
847.837	14765
847.972	14708
848.108	14804
848.244	14750
848.379	14670
848.515	14689
848.65	14583
848.786	14640
848.921	14613
849.057	14697
849.192	14708
849.328	14689
849.463	14701
849.598	14629
849.734	14518
849.869	14400
850.004	14355
850.14	14522
850.275	14396
850.41	14332
850.545	14355
850.68	14427
850.815	14400
850.95	14427
851.085	14537
851.22	14469
851.355	14389
851.49	14457
851.625	14431
851.76	14290
851.895	14332
852.03	14233
852.165	14309
852.299	14484
852.434	14461
852.569	14457
852.703	14495
852.838	14476
852.973	14461
853.107	14522
853.242	14313
853.376	14298
853.511	14065
853.645	14240
853.78	14339
853.914	14278
854.048	14157
854.183	14301
854.317	14347
854.451	14465
854.585	14195
854.72	14199
854.854	14347
854.988	14248
855.122	14237
855.256	14115
855.39	14320
855.524	14301
855.658	14286
855.792	14259
855.926	14271
856.06	14374
856.194	14362
856.327	14267
856.461	14202
856.595	14263
856.729	14134
856.862	14324
856.996	14298
857.13	14400
857.263	14377
857.397	14351
857.53	14275
857.664	14290
857.797	14370
857.931	14336
858.064	14305
858.197	14423
858.331	14164
858.464	14183
858.597	14130
858.731	14092
858.864	14240
858.997	14286
859.13	14294
859.263	14317
859.396	14400
859.529	14195
859.662	14218
859.795	14237
859.928	14271
860.061	14400
860.194	14381
860.327	14328
860.46	14256
860.592	14377
860.725	14396
860.858	14332
860.99	14240
861.123	14199
861.256	14153
861.388	14256
861.521	14921
861.653	14126
861.786	14035
861.918	14183
862.05	14142
862.183	14237
862.315	14221
862.447	14298
862.58	14142
862.712	14043
862.844	13959
862.976	14084
863.108	14157
863.24	14457
863.372	14005
863.504	14058
863.636	13997
863.768	14054
863.9	14039
864.032	13978
864.164	14001
864.296	14046
864.428	14130
864.559	14157
864.691	14164
864.823	14008
864.954	14054
865.086	14149
865.217	14031
865.349	13944
865.48	14096
865.612	14035
865.743	14237
865.875	14100
866.006	14001
866.137	14119
866.269	14062
866.4	14020
866.531	13970
866.662	13936
866.793	13963
866.924	13940
867.055	14050
867.186	14035
867.317	13974
867.448	13959
867.579	13932
867.71	14031
867.841	13963
867.972	13989
868.103	13997
868.233	14077
868.364	14058
868.495	14126
868.625	14278
868.756	14343
868.886	14214
869.017	14218
869.147	14381
869.278	14351
869.408	14370
869.539	14271
869.669	14309
869.799	14271
869.929	14339
870.06	14339
870.19	14571
870.32	14571
870.45	14613
870.58	14689
870.71	14781
870.84	14800
870.97	14621
871.1	14571
871.23	14853
871.36	14796
871.489	14769
871.619	14762
871.749	14956
871.879	14929
872.008	14998
872.138	14914
872.267	14804
872.397	14781
872.526	14727
872.656	14712
872.785	14705
872.915	14842
873.044	14948
873.173	14834
873.303	14933
873.432	14967
873.561	14975
873.69	14937
873.819	14891
873.948	14937
874.077	14994
874.206	14857
874.335	14967
874.464	15032
874.593	15272
874.722	15093
874.851	15298
874.979	15184
875.108	15203
875.237	15195
875.365	15150
875.494	15192
875.623	15241
875.751	15218
875.88	15264
876.008	15374
876.136	15401
876.265	15717
876.393	15770
876.521	15766
876.65	15762
876.778	15739
876.906	15568
877.034	15599
877.162	15599
877.29	15622
877.418	15648
877.546	15641
877.674	15610
877.802	15637
877.93	15736
878.058	15663
878.185	15591
878.313	15660
878.441	15629
878.568	15492
878.696	15606
878.824	15625
878.951	15713
879.079	15827
879.206	15892
879.333	15778
879.461	15759
879.588	15823
879.715	15816
879.842	15857
879.97	15823
880.097	15488
880.224	15469
880.351	15538
880.478	15481
880.605	15492
880.732	15466
880.859	15759
880.986	15538
881.112	15587
881.239	15408
881.366	15245
881.493	15245
881.619	15135
881.746	15188
881.872	15176
881.999	15203
882.125	15093
882.252	15169
882.378	15131
882.505	15336
882.631	15123
882.757	14925
882.883	14967
883.01	14944
883.136	14891
883.262	14857
883.388	14811
883.514	14990
883.64	15097
883.766	14937
883.892	14857
884.018	14788
884.143	15032
884.269	14990
884.395	14724
884.52	14606
884.646	14678
884.772	14625
884.897	14560
885.023	14625
885.148	14845
885.274	14800
885.399	14800
885.524	14613
885.65	14708
885.775	14701
885.9	14758
886.025	14678
886.15	14655
886.275	14663
886.4	14564
886.525	14606
886.65	14564
886.775	14583
886.9	14781
887.025	14906
887.149	14773
887.274	14537
887.399	14473
887.523	14358
887.648	14381
887.773	14507
887.897	14552
888.021	14526
888.146	14461
888.27	14514
888.395	14644
888.519	14541
888.643	14526
888.767	14537
888.891	14404
889.015	14355
889.139	14408
889.263	14385
889.387	14366
889.511	14522
889.635	14511
889.759	14343
889.883	14362
890.006	14336
890.13	14450
890.254	14290
890.377	14362
890.501	14164
890.624	14107
890.748	14187
890.871	14202
890.995	14084
891.118	14012
891.241	14084
891.364	14077
891.488	14221
891.611	14065
891.734	14142
891.857	14134
891.98	14084
892.103	14157
892.226	14100
892.349	14088
892.471	13940
892.594	14062
892.717	14161
892.839	14054
892.962	14035
893.085	14111
893.207	14126
893.33	13955
893.452	13951
893.575	14100
893.697	14027
893.819	14161
893.941	14218
894.064	14187
894.186	14088
894.308	14115
894.43	14119
894.552	14278
894.674	14164
894.796	13906
894.918	14126
895.04	14115
895.161	14157
895.283	14111
895.405	14088
895.526	14149
895.648	14065
895.769	14229
895.891	14263
896.012	14298
896.134	14199
896.255	14282
896.376	14240
896.498	14187
896.619	14278
896.74	14111
896.861	14309
896.982	14583
897.103	14686
897.224	14522
897.345	14450
897.466	14457
897.587	14590
897.708	14739
897.828	14526
897.949	14522
898.07	14305
898.19	14442
898.311	14663
898.431	14545
898.552	14598
898.672	14670
898.792	14632
898.913	14663
899.033	14499
899.153	14343
899.273	14263
899.393	14381
899.513	14431
899.633	14488
899.753	14408
899.873	14393
899.993	14526
900.113	14408
900.232	14514
900.352	14492
900.472	14332
900.591	14320
900.711	14339
900.83	14263
900.95	14419
901.069	14370
901.189	14259
901.308	13951
901.427	14024
901.546	13936
901.665	14088
901.784	13909
901.904	13871
902.023	13803
902.141	13643
902.26	13434
902.379	13708
902.498	13628
902.617	13529
902.735	13537
902.854	13559
902.973	13506
903.091	13263
903.21	13232
903.328	13247
903.446	13236
903.565	13194
903.683	13114
903.801	13027
903.919	13084
904.038	13019
904.156	12913
904.274	13004
904.392	13015
904.51	12989
904.627	12897
904.745	12951
904.863	13053
904.981	12741
905.098	12544
905.216	12639
905.334	12658
905.451	12604
905.569	12536
905.686	12662
905.803	12604
905.921	12441
906.038	12574
906.155	12433
906.272	12285
906.389	12327
906.506	12167
906.623	12197
906.74	12254
906.857	12106
906.974	12167
907.091	12292
907.208	12357
907.324	12281
907.441	12102
907.557	11999
907.674	11980
907.79	11931
907.907	11927
908.023	12053
908.139	12019
908.256	11927
908.372	11904
908.488	11836
908.604	11764
908.72	11771
908.836	11657
908.952	11726
909.068	11722
909.184	11855
909.3	11760
909.415	11836
909.531	11802
909.647	11554
909.762	11520
909.878	11478
909.993	11463
910.108	11512
910.224	11463
910.339	11623
910.454	11425
910.57	11345
910.685	11258
910.8	11547
910.915	11520
911.03	11349
911.145	11231
911.259	11174
911.374	11220
911.489	11121
911.604	11083
911.718	10885
911.833	10972
911.947	10881
912.062	10748
912.176	10885
912.291	10995
912.405	10976
912.519	11143
912.633	11220
912.748	11014
912.862	10942
912.976	10877
913.09	10717
913.204	10824
913.318	10869
913.431	10946
913.545	11003
913.659	10984
913.772	10847
913.886	10809
914	10733
914.113	10835
914.226	10892
914.34	10824
914.453	10656
914.566	10835
914.68	10755
914.793	10584
914.906	10519
915.019	10424
915.132	10348
915.245	10459
915.358	10519
915.47	10405
915.583	10455
915.696	10455
915.809	10603
915.921	10615
916.034	10550
916.146	10436
916.259	10356
916.371	10554
916.483	10470
916.595	10447
916.708	10455
916.82	10363
916.932	10421
917.044	10421
917.156	10337
917.268	10356
917.38	10303
917.491	10215
917.603	10253
917.715	10394
917.826	10348
917.938	10268
918.049	10211
918.161	10322
918.272	10459
918.384	10375
918.495	10322
918.606	10162
918.717	10055
918.828	10143
918.939	10154
919.05	10097
919.161	10204
919.272	9983
919.383	10093
919.494	10188
919.604	10352
919.715	10227
919.826	10067
919.936	10101
920.047	10272
920.157	10238
920.267	10386
920.378	10181
920.488	10188
920.598	10413
920.708	10561
920.818	10341
920.928	10386
921.038	10569
921.148	10455
921.258	10166
921.368	10185
921.477	10071
921.587	10059
921.697	9979
921.806	10063
921.916	9907
922.025	9873
922.134	9751
922.244	9675
922.353	9720
922.462	9656
922.571	9519
922.68	9473
922.789	9424
922.898	9420
923.007	9481
923.116	9492
923.224	9473
923.333	9382
923.442	9374
923.55	9272
923.659	9348
923.767	9348
923.876	9351
923.984	9397
924.092	9256
924.201	9253
924.309	9370
924.417	9336
924.525	9214
924.633	9317
924.741	10040
924.849	9100
924.956	9260
925.064	9070
925.172	8986
925.279	9051
925.387	9119
925.494	9116
925.602	9291
925.709	9127
925.816	9055
925.924	9150
926.031	9195
926.138	9036
926.245	9127
926.352	9020
926.459	9211
926.566	9214
926.673	9062
926.779	8948
926.886	8952
926.993	8906
927.099	8842
927.206	8838
927.312	8830
927.419	8864
927.525	8838
927.631	8838
927.737	8689
927.843	8712
927.95	8610
928.056	8739
928.162	8625
928.267	8758
928.373	9424
928.479	8743
928.585	8541
928.69	8735
928.796	8731
928.901	8552
929.007	8473
929.112	8632
929.218	8625
929.323	8545
929.428	8564
929.533	8678
929.638	8404
929.743	8507
929.848	8594
929.953	8499
930.058	8408
930.163	8248
930.267	8279
930.372	8450
930.477	8237
930.581	8438
930.685	8347
930.79	8187
930.894	8313
930.998	8271
931.103	8408
931.207	8084
931.311	8012
931.415	7993
931.519	7712
931.623	7761
