Data from test_V78500241_956.txt Node
Date: Fri Mar 25 14:40:22 CST 2022
User: usil
Spectrometer: V785-0024
Trigger mode: 0
Integration Time (sec): 4.000000E-1
Scans to average: 1
Nonlinearity correction enabled: false
Boxcar width: 0
Storing dark spectrum: false
XAxis mode: Wavelengths
Number of Pixels in Spectrum: 1024
>>>>>Begin Spectral Data<<<<<
801.071	23539
801.214	23490
801.356	23155
801.499	23071
801.641	22915
801.783	22896
801.926	22953
802.068	22927
802.211	22592
802.353	22531
802.496	22382
802.638	22348
802.78	22363
802.923	22322
803.065	22192
803.208	22272
803.35	22310
803.492	22291
803.635	22500
803.777	22181
803.919	22219
804.061	22573
804.204	22329
804.346	22185
804.488	22063
804.63	22177
804.773	22185
804.915	22055
805.057	22200
805.199	22120
805.341	22261
805.483	22291
805.626	22280
805.768	22124
805.91	22287
806.052	22253
806.194	22128
806.336	22489
806.478	22348
806.62	22162
806.762	22382
806.904	22603
807.046	22778
807.188	22839
807.33	22900
807.472	22942
807.614	22915
807.756	22980
807.898	22980
808.04	23174
808.182	23250
808.324	23478
808.465	23851
808.607	24247
808.749	24726
808.891	24886
809.033	24920
809.174	24711
809.316	24323
809.458	23836
809.6	23577
809.741	23566
809.883	23334
810.025	23349
810.166	23284
810.308	23242
810.45	23121
810.591	22927
810.733	22793
810.875	22706
811.016	22516
811.158	22447
811.299	22672
811.441	22744
811.582	22599
811.724	22394
811.865	22489
812.007	22379
812.148	22519
812.29	22390
812.431	22637
812.573	22843
812.714	22892
812.855	22900
812.997	23029
813.138	23140
813.279	23094
813.421	22930
813.562	22934
813.703	22702
813.845	22584
813.986	22329
814.127	22029
814.268	22036
814.41	21987
814.551	21979
814.692	21991
814.833	21945
814.974	21953
815.115	21972
815.256	21679
815.397	21789
815.539	21854
815.68	21690
815.821	21656
815.962	21652
816.103	21660
816.244	21629
816.385	21454
816.526	21393
816.666	21218
816.807	21146
816.948	21260
817.089	21252
817.23	21116
817.371	21135
817.512	21123
817.653	20994
817.793	21066
817.934	21017
818.075	21081
818.216	20990
818.356	21020
818.497	20910
818.638	20735
818.778	20712
818.919	20811
819.06	20830
819.2	20899
819.341	20994
819.481	20975
819.622	21108
819.762	21294
819.903	21268
820.043	21058
820.184	21081
820.324	21055
820.465	21081
820.605	21131
820.746	20963
820.886	21009
821.026	20967
821.167	20929
821.307	21077
821.447	20887
821.588	20811
821.728	20712
821.868	20651
822.008	20404
822.149	20450
822.289	20358
822.429	20233
822.569	20134
822.709	20088
822.849	19951
822.99	19936
823.13	19925
823.27	19738
823.41	19723
823.55	19765
823.69	19681
823.83	19807
823.97	19563
824.11	19457
824.25	19487
824.389	19438
824.529	19563
824.669	19510
824.809	19567
824.949	19624
825.089	19578
825.228	19499
825.368	19221
825.508	19259
825.648	19365
825.787	19285
825.927	19316
826.067	19263
826.206	19232
826.346	19301
826.485	19320
826.625	19266
826.765	19282
826.904	19308
827.044	19000
827.183	18928
827.323	18886
827.462	19034
827.601	18890
827.741	18996
827.88	18932
828.02	18696
828.159	18875
828.298	18829
828.437	19031
828.577	18848
828.716	19088
828.855	18867
828.994	18707
829.134	18661
829.273	18726
829.412	18585
829.551	18620
829.69	18642
829.829	18779
829.968	18852
830.107	18753
830.246	18616
830.385	18620
830.524	18620
830.663	18471
830.802	18441
830.941	18304
831.08	18136
831.219	18399
831.357	18262
831.496	18555
831.635	18323
831.774	18194
831.913	18194
832.051	18068
832.19	18167
832.329	18129
832.467	18091
832.606	17946
832.744	18022
832.883	18076
833.022	17992
833.16	17973
833.299	18026
833.437	18003
833.576	18079
833.714	18129
833.852	18194
833.991	18129
834.129	18182
834.267	18106
834.406	18190
834.544	18125
834.682	18163
834.821	18114
834.959	18106
835.097	18049
835.235	18163
835.373	18068
835.511	18045
835.65	17984
835.788	17817
835.926	17729
836.064	17714
836.202	17657
836.34	17904
836.478	18038
836.615	17901
836.753	17931
836.891	17935
837.029	17897
837.167	17885
837.305	17779
837.443	17748
837.58	17680
837.718	17767
837.856	17726
837.993	17676
838.131	17684
838.269	17665
838.406	17649
838.544	17535
838.681	17433
838.819	17425
838.956	17265
839.094	17330
839.231	17250
839.369	17421
839.506	17604
839.643	17459
839.781	17258
839.918	17143
840.055	17322
840.193	17204
840.33	17181
840.467	17178
840.604	17239
840.742	17452
840.879	17143
841.016	17117
841.153	17124
841.29	17261
841.427	17296
841.564	17239
841.701	17200
841.838	17102
841.975	17037
842.112	17124
842.249	17052
842.385	16927
842.522	17121
842.659	16991
842.796	17064
842.933	17003
843.069	16900
843.206	17003
843.343	17071
843.479	17003
843.616	16999
843.752	16892
843.889	16717
844.025	16927
844.162	16809
844.298	16858
844.435	16793
844.571	16801
844.708	16938
844.844	17094
844.98	17079
845.117	17128
845.253	17056
845.389	17025
845.525	17429
845.661	17847
845.798	18437
845.934	18966
846.07	19141
846.206	19213
846.342	18852
846.478	17999
846.614	17444
846.75	16915
846.886	16694
847.022	16702
847.158	16546
847.294	16363
847.429	16413
847.565	16333
847.701	16493
847.837	16051
847.972	16044
848.108	16112
848.244	16082
848.379	15953
848.515	15934
848.65	16002
848.786	15979
848.921	15869
849.057	15998
849.192	16010
849.328	15949
849.463	15922
849.598	15899
849.734	15812
849.869	15789
850.004	15675
850.14	15724
850.275	15709
850.41	15564
850.545	15595
850.68	15618
850.815	15766
850.95	15599
851.085	15793
851.22	15694
851.355	15633
851.49	15618
851.625	15545
851.76	15652
851.895	15553
852.03	15530
852.165	15549
852.299	15717
852.434	15819
852.569	15705
852.703	15682
852.838	15656
852.973	15838
853.107	15781
853.242	15717
853.376	15591
853.511	15447
853.645	15515
853.78	15778
853.914	15622
854.048	15485
854.183	15572
854.317	15553
854.451	15804
854.585	15622
854.72	15519
854.854	15671
854.988	15462
855.122	15523
855.256	15428
855.39	15447
855.524	15568
855.658	15584
855.792	15435
855.926	15599
856.06	15561
856.194	15652
856.327	15633
856.461	15397
856.595	15511
856.729	15507
856.862	15667
856.996	15504
857.13	15557
857.263	15500
857.397	15751
857.53	15405
857.664	15515
857.797	15671
857.931	15584
858.064	15591
858.197	15572
858.331	15530
858.464	15439
858.597	15386
858.731	15458
858.864	15492
858.997	15416
859.13	15580
859.263	15584
859.396	15644
859.529	15511
859.662	15530
859.795	15447
859.928	15481
860.061	15599
860.194	15679
860.327	15572
860.46	15511
860.592	15500
860.725	15682
860.858	15523
860.99	15466
861.123	15378
861.256	15370
861.388	15473
861.521	16097
861.653	15416
861.786	15351
861.918	15393
862.05	15370
862.183	15469
862.315	15534
862.447	15462
862.58	15389
862.712	15294
862.844	15154
862.976	15416
863.108	15287
863.24	15705
863.372	15161
863.504	15192
863.636	15256
863.768	15245
863.9	15264
864.032	15256
864.164	15154
864.296	15264
864.428	15325
864.559	15336
864.691	15306
864.823	15298
864.954	15298
865.086	15275
865.217	15184
865.349	15252
865.48	15252
865.612	15302
865.743	15252
865.875	15260
866.006	15131
866.137	15184
866.269	15146
866.4	15169
866.531	15127
866.662	15154
866.793	15249
866.924	15192
867.055	15135
867.186	15252
867.317	15161
867.448	15074
867.579	15058
867.71	15161
867.841	15123
867.972	15131
868.103	15184
868.233	15268
868.364	15055
868.495	15313
868.625	15469
868.756	15504
868.886	15397
869.017	15511
869.147	15633
869.278	15606
869.408	15534
869.539	15481
869.669	15618
869.799	15542
869.929	15660
870.06	15568
870.19	15861
870.32	15766
870.45	15770
870.58	15823
870.71	15964
870.84	15911
870.97	15930
871.1	15880
871.23	16021
871.36	16059
871.489	15953
871.619	15975
871.749	16002
871.879	16128
872.008	16185
872.138	16086
872.267	16063
872.397	15930
872.526	15892
872.656	15785
872.785	15956
872.915	16124
873.044	16196
873.173	16074
873.303	16177
873.432	16181
873.561	16204
873.69	16116
873.819	16109
873.948	16204
874.077	16204
874.206	16147
874.335	16143
874.464	16261
874.593	16310
874.722	16379
874.851	16466
874.979	16497
875.108	16554
875.237	16428
875.365	16382
875.494	16386
875.623	16561
875.751	16371
875.88	16455
876.008	16523
876.136	16653
876.265	16908
876.393	17048
876.521	16900
876.65	16847
876.778	16881
876.906	16908
877.034	16816
877.162	16835
877.29	16900
877.418	16843
877.546	16862
877.674	16976
877.802	16942
877.93	16908
878.058	17010
878.185	16919
878.313	16862
878.441	16930
878.568	16949
878.696	17071
878.824	17197
878.951	17387
879.079	17520
879.206	17927
879.333	18011
879.461	18098
879.588	18144
879.715	18300
879.842	18380
879.97	17980
880.097	17596
880.224	17273
880.351	17223
880.478	17197
880.605	17018
880.732	17086
880.859	17292
880.986	16980
881.112	17048
881.239	16835
881.366	16812
881.493	16805
881.619	16588
881.746	16611
881.872	16630
881.999	16626
882.125	16516
882.252	16694
882.378	16752
882.505	16801
882.631	16649
882.757	16577
882.883	16603
883.01	16417
883.136	16466
883.262	16295
883.388	16348
883.514	16432
883.64	16508
883.766	16470
883.892	16272
884.018	16318
884.143	16424
884.269	16653
884.395	16268
884.52	16188
884.646	16192
884.772	16074
884.897	16013
885.023	16158
885.148	16215
885.274	16276
885.399	16333
885.524	16188
885.65	16207
885.775	16101
885.9	16067
886.025	16166
886.15	16284
886.275	16086
886.4	16048
886.525	15991
886.65	15953
886.775	15949
886.9	16120
887.025	16207
887.149	15979
887.274	15831
887.399	15770
887.523	15793
887.648	15755
887.773	15781
887.897	15838
888.021	15759
888.146	15778
888.27	15899
888.395	15922
888.519	15869
888.643	15770
888.767	15850
888.891	15652
889.015	15625
889.139	15705
889.263	15686
889.387	15785
889.511	15869
889.635	15732
889.759	15675
889.883	15690
890.006	15625
890.13	15614
890.254	15542
890.377	15511
890.501	15325
890.624	15374
890.748	15340
890.871	15275
890.995	15131
891.118	15173
891.241	15233
891.364	15241
891.488	15428
891.611	15241
891.734	15256
891.857	15298
891.98	15241
892.103	15260
892.226	15169
892.349	15214
892.471	15081
892.594	15195
892.717	15180
892.839	15184
892.962	15211
893.085	15203
893.207	15142
893.33	15047
893.452	15051
893.575	15165
893.697	15214
893.819	15336
893.941	15458
894.064	15329
894.186	15150
894.308	15119
894.43	15310
894.552	15370
894.674	15195
894.796	15192
894.918	15218
895.04	15287
895.161	15237
895.283	15233
895.405	15112
895.526	15176
895.648	15329
895.769	15203
895.891	15405
896.012	15389
896.134	15332
896.255	15302
896.376	15344
896.498	15382
896.619	15313
896.74	15302
896.861	15428
896.982	15587
897.103	15823
897.224	15648
897.345	15557
897.466	15500
897.587	15561
897.708	15652
897.828	15629
897.949	15542
898.07	15485
898.19	15515
898.311	15686
898.431	15580
898.552	15690
898.672	15584
898.792	15766
898.913	15603
899.033	15580
899.153	15530
899.273	15401
899.393	15549
899.513	15530
899.633	15473
899.753	15538
899.873	15401
899.993	15534
900.113	15416
900.232	15435
900.352	15568
900.472	15504
900.591	15374
900.711	15397
900.83	15359
900.95	15382
901.069	15481
901.189	15264
901.308	15089
901.427	14990
901.546	14979
901.665	14982
901.784	15028
901.904	14918
902.023	14834
902.141	14686
902.26	14594
902.379	14579
902.498	14571
902.617	14473
902.735	14674
902.854	14495
902.973	14465
903.091	14320
903.21	14317
903.328	14267
903.446	14142
903.565	14054
903.683	14145
903.801	14008
903.919	14069
904.038	14046
904.156	13944
904.274	13913
904.392	13845
904.51	13955
904.627	13860
904.745	13883
904.863	13963
904.981	13681
905.098	13552
905.216	13552
905.334	13578
905.451	13590
905.569	13537
905.686	13620
905.803	13571
905.921	13415
906.038	13457
906.155	13369
906.272	13259
906.389	13225
906.506	13076
906.623	13209
906.74	13084
906.857	12962
906.974	12996
907.091	13164
907.208	13236
907.324	13259
907.441	13015
907.557	12935
907.674	12825
907.79	12859
907.907	12844
908.023	12814
908.139	12863
908.256	12837
908.372	12722
908.488	12722
908.604	12494
908.72	12574
908.836	12570
908.952	12551
909.068	12582
909.184	12745
909.3	12658
909.415	12620
909.531	12612
909.647	12384
909.762	12353
909.878	12270
909.993	12300
910.108	12243
910.224	12380
910.339	12292
910.454	12201
910.57	12251
910.685	12235
910.8	12433
910.915	12426
911.03	12194
911.145	12030
911.259	12007
911.374	12064
911.489	11927
911.604	11855
911.718	11771
911.833	11737
911.947	11726
912.062	11653
912.176	11703
912.291	11695
912.405	11771
912.519	11920
912.633	12015
912.748	11802
912.862	11798
912.976	11710
913.09	11433
913.204	11630
913.318	11642
913.431	11672
913.545	11653
913.659	11843
913.772	11627
913.886	11520
914	11444
914.113	11592
914.226	11649
914.34	11608
914.453	11421
914.566	11589
914.68	11444
914.793	11410
914.906	11326
915.019	11201
915.132	11162
915.245	11265
915.358	11216
915.47	11242
915.583	11311
915.696	11265
915.809	11478
915.921	11444
916.034	11212
916.146	11239
916.259	11258
916.371	11204
916.483	11239
916.595	11121
916.708	11269
916.82	11132
916.932	11124
917.044	11083
917.156	11185
917.268	11006
917.38	11079
917.491	11029
917.603	11048
917.715	11162
917.826	11147
917.938	11037
918.049	10885
918.161	11029
918.272	11124
918.384	11193
918.495	11105
918.606	10934
918.717	10904
918.828	10968
918.939	10896
919.05	10835
919.161	10820
919.272	10771
919.383	10793
919.494	10949
919.604	11033
919.715	10919
919.826	10835
919.936	10873
920.047	10984
920.157	10953
920.267	11071
920.378	10953
920.488	10873
920.598	11140
920.708	11235
920.818	11124
920.928	11033
921.038	11242
921.148	11193
921.258	10896
921.368	10812
921.477	10725
921.587	10790
921.697	10599
921.806	10828
921.916	10656
922.025	10481
922.134	10497
922.244	10337
922.353	10447
922.462	10318
922.571	10215
922.68	10188
922.789	10082
922.898	10040
923.007	10025
923.116	10173
923.224	10048
923.333	10101
923.442	9994
923.55	9930
923.659	9994
923.767	10044
923.876	9956
923.984	10036
924.092	9934
924.201	9956
924.309	9895
924.417	9972
924.525	9846
924.633	9850
924.741	10733
924.849	9816
924.956	9873
925.064	9728
925.172	9667
925.279	9709
925.387	9808
925.494	9732
925.602	9869
925.709	9819
925.816	9610
925.924	9732
926.031	9903
926.138	9728
926.245	9812
926.352	9625
926.459	9797
926.566	9823
926.673	9656
926.779	9675
926.886	9564
926.993	9523
927.099	9401
927.206	9348
927.312	9485
927.419	9500
927.525	9424
927.631	9549
927.737	9336
927.843	9348
927.95	9138
928.056	9313
928.162	9348
928.267	9325
928.373	9850
928.479	9389
928.585	9157
928.69	9264
928.796	9386
928.901	9211
929.007	9055
929.112	9199
929.218	9218
929.323	9161
929.428	9116
929.533	9260
929.638	9089
929.743	9074
929.848	9131
929.953	9112
930.058	8994
930.163	8861
930.267	8883
930.372	9070
930.477	8929
930.581	9036
930.685	8887
930.79	8800
930.894	8811
930.998	8724
931.103	8811
931.207	8651
931.311	8613
931.415	8446
931.519	8279
931.623	8301
