Data from test_V78500241_2202.txt Node
Date: Fri Mar 25 14:49:02 CST 2022
User: usil
Spectrometer: V785-0024
Trigger mode: 0
Integration Time (sec): 4.000000E-1
Scans to average: 1
Nonlinearity correction enabled: false
Boxcar width: 0
Storing dark spectrum: false
XAxis mode: Wavelengths
Number of Pixels in Spectrum: 1024
>>>>>Begin Spectral Data<<<<<
801.071	22211
801.214	22051
801.356	21724
801.499	21793
801.641	21572
801.783	21450
801.926	21595
802.068	21435
802.211	21389
802.353	21374
802.496	21017
802.638	21013
802.78	20937
802.923	20895
803.065	20963
803.208	20849
803.35	21001
803.492	21013
803.635	20994
803.777	20785
803.919	20937
804.061	21249
804.204	20902
804.346	20804
804.488	20678
804.63	20800
804.773	20727
804.915	20796
805.057	20982
805.199	20857
805.341	20910
805.483	20857
805.626	20925
805.768	20845
805.91	20777
806.052	20834
806.194	20682
806.336	21096
806.478	20743
806.62	20769
806.762	20857
806.904	20994
807.046	21161
807.188	21089
807.33	21127
807.472	21142
807.614	20986
807.756	20956
807.898	20925
808.04	20819
808.182	20826
808.324	20830
808.465	20944
808.607	21112
808.749	21150
808.891	21222
809.033	21382
809.174	21237
809.316	20986
809.458	21169
809.6	21096
809.741	21169
809.883	21180
810.025	21313
810.166	21397
810.308	21287
810.45	21340
810.591	21241
810.733	20948
810.875	20929
811.016	20937
811.158	20819
811.299	21043
811.441	21226
811.582	21001
811.724	20952
811.865	20925
812.007	20956
812.148	20929
812.29	20933
812.431	21138
812.573	21294
812.714	21325
812.855	21477
812.997	21557
813.138	21606
813.279	21576
813.421	21511
813.562	21359
813.703	21214
813.845	21039
813.986	20868
814.127	20674
814.268	20446
814.41	20454
814.551	20495
814.692	20522
814.833	20396
814.974	20545
815.115	20556
815.256	20290
815.397	20328
815.539	20275
815.68	20157
815.821	20119
815.962	20164
816.103	20214
816.244	19997
816.385	19982
816.526	20027
816.666	19746
816.807	19571
816.948	19727
817.089	19693
817.23	19765
817.371	19597
817.512	19582
817.653	19571
817.793	19628
817.934	19540
818.075	19563
818.216	19632
818.356	19590
818.497	19518
818.638	19308
818.778	19301
818.919	19171
819.06	19422
819.2	19430
819.341	19483
819.481	19491
819.622	19635
819.762	19795
819.903	19708
820.043	19647
820.184	19556
820.324	19544
820.465	19601
820.605	19521
820.746	19639
820.886	19445
821.026	19525
821.167	19510
821.307	19662
821.447	19567
821.588	19464
821.728	19441
821.868	19183
822.008	19103
822.149	19076
822.289	18947
822.429	18795
822.569	18715
822.709	18715
822.849	18585
822.99	18422
823.13	18445
823.27	18403
823.41	18296
823.55	18239
823.69	18323
823.83	18296
823.97	18064
824.11	18091
824.25	18057
824.389	18079
824.529	18114
824.669	18121
824.809	18106
824.949	18114
825.089	18171
825.228	18091
825.368	17828
825.508	17935
825.648	17843
825.787	17840
825.927	17977
826.067	17878
826.206	17783
826.346	17847
826.485	17863
826.625	17767
826.765	17942
826.904	17897
827.044	17623
827.183	17566
827.323	17478
827.462	17661
827.601	17585
827.741	17551
827.88	17535
828.02	17425
828.159	17543
828.298	17581
828.437	17547
828.577	17398
828.716	17627
828.855	17577
828.994	17220
829.134	17299
829.273	17261
829.412	17280
829.551	17242
829.69	17277
829.829	17250
829.968	17402
830.107	17368
830.246	17364
830.385	17208
830.524	17246
830.663	17117
830.802	17010
830.941	16873
831.08	16877
831.219	16980
831.357	16946
831.496	17246
831.635	16862
831.774	16839
831.913	16812
832.051	16596
832.19	16653
832.329	16694
832.467	16599
832.606	16538
832.744	16569
832.883	16523
833.022	16497
833.16	16550
833.299	16538
833.437	16538
833.576	16710
833.714	16660
833.852	16729
833.991	16691
834.129	16664
834.267	16706
834.406	16694
834.544	16687
834.682	16618
834.821	16603
834.959	16782
835.097	16508
835.235	16683
835.373	16599
835.511	16641
835.65	16554
835.788	16493
835.926	16424
836.064	16329
836.202	16417
836.34	16584
836.478	16611
836.615	16481
836.753	16630
836.891	16660
837.029	16599
837.167	16455
837.305	16363
837.443	16531
837.58	16398
837.718	16447
837.856	16421
837.993	16325
838.131	16519
838.269	16276
838.406	16272
838.544	16291
838.681	16090
838.819	16078
838.956	15960
839.094	16029
839.231	15972
839.369	16051
839.506	16424
839.643	16219
839.781	15945
839.918	15892
840.055	15922
840.193	16025
840.33	15846
840.467	15831
840.604	15972
840.742	16131
840.879	15823
841.016	15888
841.153	15895
841.29	16032
841.427	15937
841.564	15964
841.701	15987
841.838	15968
841.975	15736
842.112	15918
842.249	15736
842.385	15724
842.522	15895
842.659	15736
842.796	15732
842.933	15850
843.069	15698
843.206	15713
843.343	15842
843.479	15720
843.616	15865
843.752	15507
843.889	15488
844.025	15633
844.162	15477
844.298	15622
844.435	15405
844.571	15466
844.708	15625
844.844	15663
844.98	15637
845.117	15595
845.253	15420
845.389	15439
845.525	15382
845.661	15420
845.798	15287
845.934	15348
846.07	15207
846.206	15359
846.342	15386
846.478	15272
846.614	15093
846.75	15013
846.886	15077
847.022	15154
847.158	15138
847.294	15085
847.429	15157
847.565	14982
847.701	15245
847.837	14872
847.972	14876
848.108	14921
848.244	14925
848.379	14739
848.515	14716
848.65	14606
848.786	14712
848.921	14697
849.057	14701
849.192	14838
849.328	14705
849.463	14765
849.598	14670
849.734	14571
849.869	14473
850.004	14423
850.14	14533
850.275	14419
850.41	14355
850.545	14400
850.68	14469
850.815	14404
850.95	14408
851.085	14522
851.22	14590
851.355	14454
851.49	14366
851.625	14393
851.76	14431
851.895	14374
852.03	14336
852.165	14404
852.299	14473
852.434	14526
852.569	14476
852.703	14530
852.838	14537
852.973	14648
853.107	14640
853.242	14457
853.376	14294
853.511	14271
853.645	14370
853.78	14324
853.914	14317
854.048	14309
854.183	14343
854.317	14278
854.451	14499
854.585	14355
854.72	14282
854.854	14393
854.988	14240
855.122	14320
855.256	14225
855.39	14320
855.524	14396
855.658	14400
855.792	14351
855.926	14358
856.06	14362
856.194	14362
856.327	14343
856.461	14301
856.595	14282
856.729	14267
856.862	14507
856.996	14385
857.13	14499
857.263	14431
857.397	14343
857.53	14324
857.664	14476
857.797	14362
857.931	14423
858.064	14332
858.197	14454
858.331	14347
858.464	14305
858.597	14244
858.731	14358
858.864	14313
858.997	14286
859.13	14381
859.263	14358
859.396	14415
859.529	14370
859.662	14404
859.795	14431
859.928	14366
860.061	14541
860.194	14575
860.327	14328
860.46	14358
860.592	14514
860.725	14457
860.858	14434
860.99	14305
861.123	14278
861.256	14320
861.388	14347
861.521	14948
861.653	14237
861.786	14221
861.918	14202
862.05	14336
862.183	14271
862.315	14294
862.447	14393
862.58	14385
862.712	14134
862.844	14065
862.976	14180
863.108	14172
863.24	14442
863.372	13997
863.504	14054
863.636	14161
863.768	14187
863.9	14145
864.032	14008
864.164	14123
864.296	14107
864.428	14214
864.559	14275
864.691	14199
864.823	14233
864.954	14153
865.086	14199
865.217	14020
865.349	14077
865.48	14062
865.612	14111
865.743	14263
865.875	14161
866.006	14058
866.137	14161
866.269	14149
866.4	14157
866.531	14164
866.662	14043
866.793	14031
866.924	14054
867.055	14081
867.186	14168
867.317	13986
867.448	14024
867.579	14001
867.71	14016
867.841	14008
867.972	14088
868.103	14096
868.233	14100
868.364	14134
868.495	14176
868.625	14431
868.756	14431
868.886	14278
869.017	14267
869.147	14495
869.278	14427
869.408	14374
869.539	14355
869.669	14427
869.799	14408
869.929	14450
870.06	14457
870.19	14697
870.32	14625
870.45	14708
870.58	14754
870.71	14906
870.84	14883
870.97	14724
871.1	14632
871.23	14921
871.36	14895
871.489	14804
871.619	14933
871.749	14857
871.879	14944
872.008	15001
872.138	14963
872.267	14925
872.397	14804
872.526	14686
872.656	14785
872.785	14800
872.915	14845
873.044	15001
873.173	14994
873.303	15036
873.432	15017
873.561	15131
873.69	14994
873.819	14952
873.948	15233
874.077	15100
874.206	14963
874.335	15001
874.464	15184
874.593	15287
874.722	15214
874.851	15321
874.979	15294
875.108	15298
875.237	15317
875.365	15245
875.494	15275
875.623	15370
875.751	15233
875.88	15329
876.008	15435
876.136	15545
876.265	15781
876.393	15827
876.521	15736
876.65	15774
876.778	15770
876.906	15656
877.034	15747
877.162	15648
877.29	15720
877.418	15629
877.546	15709
877.674	15701
877.802	15747
877.93	15675
878.058	15709
878.185	15576
878.313	15751
878.441	15747
878.568	15720
878.696	15587
878.824	15785
878.951	15797
879.079	15895
879.206	16135
879.333	15937
879.461	15739
879.588	15816
879.715	15991
879.842	16029
879.97	15663
880.097	15526
880.224	15485
880.351	15625
880.478	15473
880.605	15599
880.732	15606
880.859	15728
880.986	15580
881.112	15576
881.239	15454
881.366	15321
881.493	15348
881.619	15192
881.746	15279
881.872	15218
881.999	15249
882.125	15146
882.252	15302
882.378	15306
882.505	15313
882.631	15161
882.757	15081
882.883	15135
883.01	15169
883.136	15001
883.262	14937
883.388	14887
883.514	15005
883.64	15043
883.766	15108
883.892	14750
884.018	14853
884.143	14960
884.269	15119
884.395	14880
884.52	14743
884.646	14716
884.772	14762
884.897	14670
885.023	14678
885.148	14853
885.274	14986
885.399	14857
885.524	14785
885.65	14842
885.775	14788
885.9	14758
886.025	14891
886.15	14819
886.275	14708
886.4	14648
886.525	14773
886.65	14689
886.775	14678
886.9	14811
887.025	14902
887.149	14762
887.274	14720
887.399	14495
887.523	14587
887.648	14507
887.773	14511
887.897	14693
888.021	14663
888.146	14415
888.27	14750
888.395	14674
888.519	14545
888.643	14556
888.767	14659
888.891	14476
889.015	14461
889.139	14514
889.263	14339
889.387	14518
889.511	14648
889.635	14594
889.759	14415
889.883	14358
890.006	14465
890.13	14590
890.254	14374
890.377	14434
890.501	14168
890.624	14237
890.748	14461
890.871	14164
890.995	14088
891.118	14054
891.241	14115
891.364	14123
891.488	14294
891.611	14145
891.734	14126
891.857	14176
891.98	14202
892.103	14218
892.226	14164
892.349	14119
892.471	14039
892.594	14142
892.717	14142
892.839	14153
892.962	14054
893.085	14199
893.207	14138
893.33	14043
893.452	14142
893.575	14206
893.697	14157
893.819	14229
893.941	14278
894.064	14286
894.186	14088
894.308	14073
894.43	14244
894.552	14393
894.674	14313
894.796	14134
894.918	14138
895.04	14278
895.161	14313
895.283	14218
895.405	14202
895.526	14294
895.648	14259
895.769	14343
895.891	14252
896.012	14370
896.134	14400
896.255	14400
896.376	14210
896.498	14324
896.619	14240
896.74	14278
896.861	14404
896.982	14644
897.103	14815
897.224	14651
897.345	14598
897.466	14556
897.587	14625
897.708	14758
897.828	14575
897.949	14579
898.07	14473
898.19	14579
898.311	14792
898.431	14522
898.552	14697
898.672	14819
898.792	14701
898.913	14651
899.033	14651
899.153	14484
899.273	14442
899.393	14556
899.513	14522
899.633	14511
899.753	14533
899.873	14526
899.993	14579
900.113	14575
900.232	14537
900.352	14469
900.472	14480
900.591	14393
900.711	14389
900.83	14324
900.95	14480
901.069	14488
901.189	14332
901.308	14168
901.427	14077
901.546	14168
901.665	14145
901.784	14130
901.904	14103
902.023	13890
902.141	13639
902.26	13647
902.379	13696
902.498	13666
902.617	13651
902.735	13639
902.854	13643
902.973	13552
903.091	13331
903.21	13354
903.328	13415
903.446	13240
903.565	13228
903.683	13213
903.801	13053
903.919	13251
904.038	13091
904.156	13072
904.274	13088
904.392	12962
904.51	12935
904.627	13019
904.745	13076
904.863	13046
904.981	12810
905.098	12703
905.216	12741
905.334	12745
905.451	12673
905.569	12631
905.686	12700
905.803	12757
905.921	12464
906.038	12616
906.155	12604
906.272	12376
906.389	12486
906.506	12319
906.623	12353
906.74	12285
906.857	12216
906.974	12194
907.091	12338
907.208	12429
907.324	12338
907.441	12190
907.557	12026
907.674	11984
907.79	11942
907.907	12049
908.023	12060
908.139	12041
908.256	11984
908.372	11992
908.488	11984
908.604	11942
908.72	11752
908.836	11775
908.952	11668
909.068	11775
909.184	11866
909.3	11809
909.415	11847
909.531	11882
909.647	11577
909.762	11684
909.878	11474
909.993	11634
910.108	11615
910.224	11535
910.339	11608
910.454	11459
910.57	11429
910.685	11322
910.8	11581
910.915	11551
911.03	11452
911.145	11322
911.259	11292
911.374	11277
911.489	11151
911.604	11178
911.718	10987
911.833	11037
911.947	10904
912.062	10881
912.176	11006
912.291	11022
912.405	10976
912.519	11261
912.633	11265
912.748	11105
912.862	11037
912.976	10904
913.09	10759
913.204	10896
913.318	10850
913.431	10972
913.545	10961
913.659	11003
913.772	10854
913.886	10759
914	10759
914.113	10831
914.226	10938
914.34	10904
914.453	10698
914.566	10873
914.68	10721
914.793	10675
914.906	10573
915.019	10497
915.132	10485
915.245	10493
915.358	10615
915.47	10474
915.583	10489
915.696	10588
915.809	10641
915.921	10672
916.034	10493
916.146	10535
916.259	10474
916.371	10580
916.483	10558
916.595	10440
916.708	10508
916.82	10466
916.932	10459
917.044	10470
917.156	10436
917.268	10352
917.38	10352
917.491	10325
917.603	10360
917.715	10413
917.826	10489
917.938	10375
918.049	10242
918.161	10356
918.272	10485
918.384	10516
918.495	10344
918.606	10192
918.717	10177
918.828	10265
918.939	10227
919.05	10124
919.161	10131
919.272	9972
919.383	10040
919.494	10356
919.604	10424
919.715	10333
919.826	10169
919.936	10261
920.047	10299
920.157	10257
920.267	10382
920.378	10280
920.488	10234
920.598	10455
920.708	10554
920.818	10440
920.928	10379
921.038	10607
921.148	10519
921.258	10261
921.368	10169
921.477	10131
921.587	10101
921.697	10032
921.806	10143
921.916	10021
922.025	9816
922.134	9778
922.244	9759
922.353	9903
922.462	9705
922.571	9652
922.68	9568
922.789	9462
922.898	9553
923.007	9485
923.116	9584
923.224	9519
923.333	9515
923.442	9481
923.55	9332
923.659	9370
923.767	9477
923.876	9393
923.984	9500
924.092	9313
924.201	9424
924.309	9348
924.417	9344
924.525	9355
924.633	9332
924.741	10276
924.849	9207
924.956	9389
925.064	9188
925.172	9123
925.279	9085
925.387	9207
925.494	9203
925.602	9321
925.709	9310
925.816	9108
925.924	9211
926.031	9302
926.138	9207
926.245	9275
926.352	9138
926.459	9195
926.566	9279
926.673	9214
926.779	9017
926.886	9070
926.993	8944
927.099	8891
927.206	8830
927.312	8868
927.419	8948
927.525	8906
927.631	8986
927.737	8788
927.843	8819
927.95	8708
928.056	8735
928.162	8830
928.267	8819
928.373	9454
928.479	8891
928.585	8640
928.69	8800
928.796	8788
928.901	8716
929.007	8632
929.112	8773
929.218	8674
929.323	8651
929.428	8583
929.533	8811
929.638	8514
929.743	8545
929.848	8648
929.953	8564
930.058	8537
930.163	8305
930.267	8374
930.372	8552
930.477	8389
930.581	8610
930.685	8415
930.79	8339
930.894	8317
930.998	8328
931.103	8465
931.207	8100
931.311	8081
931.415	8046
931.519	7833
931.623	7780
