Data from test_V78500241_1687.txt Node
Date: Fri Mar 25 14:45:27 CST 2022
User: usil
Spectrometer: V785-0024
Trigger mode: 0
Integration Time (sec): 4.000000E-1
Scans to average: 1
Nonlinearity correction enabled: false
Boxcar width: 0
Storing dark spectrum: false
XAxis mode: Wavelengths
Number of Pixels in Spectrum: 1024
>>>>>Begin Spectral Data<<<<<
801.071	22230
801.214	22143
801.356	21926
801.499	21770
801.641	21641
801.783	21618
801.926	21587
802.068	21500
802.211	21622
802.353	21530
802.496	21222
802.638	21157
802.78	21058
802.923	21036
803.065	20853
803.208	20899
803.35	20944
803.492	21150
803.635	21112
803.777	20899
803.919	21119
804.061	21389
804.204	21062
804.346	20937
804.488	20861
804.63	21032
804.773	20754
804.915	20887
805.057	21093
805.199	20998
805.341	20952
805.483	21005
805.626	20910
805.768	20864
805.91	20994
806.052	20979
806.194	20785
806.336	21070
806.478	20902
806.62	20796
806.762	20975
806.904	21081
807.046	21306
807.188	21188
807.33	21203
807.472	21359
807.614	21131
807.756	21154
807.898	20975
808.04	20933
808.182	20998
808.324	21017
808.465	21028
808.607	21192
808.749	21351
808.891	21401
809.033	21542
809.174	21393
809.316	21283
809.458	21291
809.6	21401
809.741	21310
809.883	21412
810.025	21507
810.166	21557
810.308	21386
810.45	21397
810.591	21359
810.733	21165
810.875	21020
811.016	20887
811.158	21013
811.299	21161
811.441	21112
811.582	21157
811.724	21089
811.865	21058
812.007	21039
812.148	20941
812.29	21119
812.431	21211
812.573	21363
812.714	21473
812.855	21507
812.997	21641
813.138	21690
813.279	21591
813.421	21534
813.562	21466
813.703	21351
813.845	21268
813.986	20937
814.127	20857
814.268	20689
814.41	20701
814.551	20606
814.692	20564
814.833	20552
814.974	20701
815.115	20625
815.256	20526
815.397	20434
815.539	20533
815.68	20271
815.821	20412
815.962	20423
816.103	20419
816.244	20248
816.385	20183
816.526	20024
816.666	19909
816.807	19788
816.948	19955
817.089	19784
817.23	19791
817.371	19791
817.512	19662
817.653	19772
817.793	19772
817.934	19731
818.075	19750
818.216	19826
818.356	19887
818.497	19480
818.638	19346
818.778	19411
818.919	19480
819.06	19464
819.2	19689
819.341	19658
819.481	19674
819.622	19837
819.762	19978
819.903	19947
820.043	19879
820.184	19814
820.324	19742
820.465	19780
820.605	19746
820.746	19723
820.886	19601
821.026	19727
821.167	19521
821.307	19704
821.447	19616
821.588	19575
821.728	19422
821.868	19354
822.008	19065
822.149	19031
822.289	19141
822.429	18867
822.569	18798
822.709	18650
822.849	18555
822.99	18574
823.13	18650
823.27	18559
823.41	18395
823.55	18361
823.69	18372
823.83	18388
823.97	18262
824.11	18136
824.25	18243
824.389	18216
824.529	18232
824.669	18304
824.809	18369
824.949	18319
825.089	18315
825.228	18209
825.368	18019
825.508	18060
825.648	17961
825.787	18167
825.927	18034
826.067	17942
826.206	17950
826.346	17988
826.485	17992
826.625	17999
826.765	18076
826.904	17988
827.044	17745
827.183	17805
827.323	17771
827.462	17695
827.601	17726
827.741	17638
827.88	17630
828.02	17630
828.159	17615
828.298	17657
828.437	17726
828.577	17722
828.716	17657
828.855	17509
828.994	17421
829.134	17448
829.273	17436
829.412	17452
829.551	17307
829.69	17395
829.829	17448
829.968	17516
830.107	17429
830.246	17417
830.385	17296
830.524	17296
830.663	17239
830.802	17098
830.941	17010
831.08	16892
831.219	17090
831.357	17094
831.496	17292
831.635	16965
831.774	16911
831.913	16877
832.051	16877
832.19	16767
832.329	16850
832.467	16683
832.606	16653
832.744	16710
832.883	16626
833.022	16691
833.16	16698
833.299	16797
833.437	16679
833.576	16805
833.714	16744
833.852	16778
833.991	16839
834.129	16877
834.267	16831
834.406	16759
834.544	16812
834.682	16782
834.821	16733
834.959	16927
835.097	16706
835.235	16824
835.373	16843
835.511	16736
835.65	16668
835.788	16523
835.926	16462
836.064	16459
836.202	16497
836.34	16668
836.478	16771
836.615	16698
836.753	16687
836.891	16733
837.029	16717
837.167	16615
837.305	16596
837.443	16512
837.58	16542
837.718	16637
837.856	16504
837.993	16504
838.131	16554
838.269	16504
838.406	16508
838.544	16303
838.681	16188
838.819	16200
838.956	16147
839.094	16044
839.231	16135
839.369	16185
839.506	16466
839.643	16322
839.781	16032
839.918	16074
840.055	16063
840.193	16112
840.33	16128
840.467	15998
840.604	16036
840.742	16215
840.879	15960
841.016	15998
841.153	15979
841.29	16158
841.427	16238
841.564	16124
841.701	16128
841.838	15964
841.975	16078
842.112	15968
842.249	15827
842.385	15797
842.522	16029
842.659	15865
842.796	15808
842.933	15827
843.069	15831
843.206	15869
843.343	16059
843.479	15857
843.616	15850
843.752	15618
843.889	15663
844.025	15838
844.162	15603
844.298	15732
844.435	15618
844.571	15595
844.708	15686
844.844	15747
844.98	15755
845.117	15644
845.253	15629
845.389	15507
845.525	15637
845.661	15568
845.798	15462
845.934	15462
846.07	15466
846.206	15526
846.342	15481
846.478	15549
846.614	15207
846.75	15264
846.886	15188
847.022	15291
847.158	15188
847.294	15230
847.429	15252
847.565	15112
847.701	15435
847.837	14895
847.972	14895
848.108	15020
848.244	14960
848.379	14830
848.515	14804
848.65	14727
848.786	14819
848.921	14769
849.057	14979
849.192	14800
849.328	14845
849.463	14845
849.598	14792
849.734	14826
849.869	14629
850.004	14621
850.14	14598
850.275	14568
850.41	14499
850.545	14499
850.68	14571
850.815	14590
850.95	14549
851.085	14804
851.22	14678
851.355	14530
851.49	14537
851.625	14480
851.76	14560
851.895	14488
852.03	14320
852.165	14648
852.299	14533
852.434	14667
852.569	14651
852.703	14545
852.838	14571
852.973	14754
853.107	14739
853.242	14549
853.376	14457
853.511	14396
853.645	14317
853.78	14507
853.914	14499
854.048	14434
854.183	14385
854.317	14526
854.451	14648
854.585	14438
854.72	14347
854.854	14450
854.988	14301
855.122	14495
855.256	14275
855.39	14415
855.524	14488
855.658	14495
855.792	14511
855.926	14507
856.06	14484
856.194	14587
856.327	14465
856.461	14362
856.595	14419
856.729	14385
856.862	14575
856.996	14488
857.13	14541
857.263	14533
857.397	14617
857.53	14511
857.664	14499
857.797	14514
857.931	14556
858.064	14560
858.197	14473
858.331	14431
858.464	14381
858.597	14313
858.731	14469
858.864	14438
858.997	14454
859.13	14419
859.263	14473
859.396	14469
859.529	14374
859.662	14526
859.795	14400
859.928	14438
860.061	14587
860.194	14625
860.327	14469
860.46	14408
860.592	14552
860.725	14560
860.858	14571
860.99	14450
861.123	14317
861.256	14324
861.388	14454
861.521	14990
861.653	14248
861.786	14252
861.918	14294
862.05	14434
862.183	14366
862.315	14446
862.447	14446
862.58	14415
862.712	14187
862.844	14183
862.976	14309
863.108	14263
863.24	14667
863.372	14088
863.504	14164
863.636	14168
863.768	14263
863.9	14206
864.032	14161
864.164	14199
864.296	14240
864.428	14298
864.559	14393
864.691	14332
864.823	14343
864.954	14267
865.086	14233
865.217	14164
865.349	14134
865.48	14218
865.612	14332
865.743	14282
865.875	14202
866.006	14199
866.137	14229
866.269	14199
866.4	14248
866.531	14176
866.662	14096
866.793	14153
866.924	14157
867.055	14290
867.186	14161
867.317	14092
867.448	14153
867.579	14081
867.71	14054
867.841	14126
867.972	14214
868.103	14092
868.233	14206
868.364	14195
868.495	14301
868.625	14404
868.756	14533
868.886	14328
869.017	14454
869.147	14514
869.278	14552
869.408	14507
869.539	14389
869.669	14511
869.799	14514
869.929	14522
870.06	14590
870.19	14792
870.32	14754
870.45	14777
870.58	14876
870.71	14960
870.84	15005
870.97	14876
871.1	14849
871.23	14990
871.36	15055
871.489	14960
871.619	15017
871.749	15024
871.879	15070
872.008	15077
872.138	15074
872.267	15070
872.397	14861
872.526	14895
872.656	14853
872.785	14868
872.915	15108
873.044	15222
873.173	15093
873.303	15036
873.432	15184
873.561	15192
873.69	15081
873.819	15066
873.948	15138
874.077	15062
874.206	15043
874.335	15055
874.464	15203
874.593	15416
874.722	15272
874.851	15435
874.979	15355
875.108	15424
875.237	15355
875.365	15378
875.494	15473
875.623	15458
875.751	15313
875.88	15454
876.008	15526
876.136	15572
876.265	15846
876.393	15888
876.521	15903
876.65	15937
876.778	15926
876.906	15774
877.034	15751
877.162	15747
877.29	15793
877.418	15797
877.546	15823
877.674	15781
877.802	15854
877.93	15762
878.058	15789
878.185	15698
878.313	15857
878.441	15861
878.568	15698
878.696	15785
878.824	15838
878.951	15895
879.079	16025
879.206	16143
879.333	16109
879.461	15797
879.588	15876
879.715	16021
879.842	16055
879.97	15800
880.097	15717
880.224	15572
880.351	15720
880.478	15606
880.605	15671
880.732	15637
880.859	15991
880.986	15762
881.112	15747
881.239	15641
881.366	15462
881.493	15435
881.619	15306
881.746	15359
881.872	15401
881.999	15386
882.125	15321
882.252	15313
882.378	15389
882.505	15469
882.631	15313
882.757	15218
882.883	15230
883.01	15173
883.136	15074
883.262	14971
883.388	14937
883.514	15245
883.64	15112
883.766	15055
883.892	14902
884.018	14944
884.143	15135
884.269	15241
884.395	14842
884.52	14754
884.646	14830
884.772	14792
884.897	14731
885.023	14864
885.148	14925
885.274	14864
885.399	14948
885.524	14750
885.65	14857
885.775	14891
885.9	14800
886.025	15055
886.15	14891
886.275	14792
886.4	14731
886.525	14785
886.65	14773
886.775	14769
886.9	14929
887.025	15093
887.149	14868
887.274	14788
887.399	14552
887.523	14750
887.648	14617
887.773	14571
887.897	14693
888.021	14663
888.146	14568
888.27	14720
888.395	14777
888.519	14663
888.643	14762
888.767	14689
888.891	14640
889.015	14583
889.139	14568
889.263	14400
889.387	14629
889.511	14815
889.635	14644
889.759	14469
889.883	14514
890.006	14541
890.13	14705
890.254	14488
890.377	14537
890.501	14343
890.624	14385
890.748	14415
890.871	14233
890.995	14149
891.118	14168
891.241	14229
891.364	14267
891.488	14313
891.611	14237
891.734	14301
891.857	14210
891.98	14393
892.103	14259
892.226	14240
892.349	14130
892.471	14161
892.594	14195
892.717	14206
892.839	14161
892.962	14233
893.085	14339
893.207	14301
893.33	14183
893.452	14164
893.575	14294
893.697	14229
893.819	14381
893.941	14366
894.064	14374
894.186	14161
894.308	14134
894.43	14419
894.552	14434
894.674	14339
894.796	14240
894.918	14351
895.04	14191
895.161	14358
895.283	14408
895.405	14294
895.526	14263
895.648	14271
895.769	14324
895.891	14355
896.012	14381
896.134	14404
896.255	14408
896.376	14332
896.498	14465
896.619	14290
896.74	14419
896.861	14476
896.982	14697
897.103	14823
897.224	14720
897.345	14701
897.466	14571
897.587	14777
897.708	14929
897.828	14533
897.949	14670
898.07	14507
898.19	14632
898.311	14811
898.431	14716
898.552	14716
898.672	14868
898.792	14785
898.913	14769
899.033	14701
899.153	14560
899.273	14480
899.393	14560
899.513	14674
899.633	14617
899.753	14644
899.873	14583
899.993	14655
900.113	14598
900.232	14514
900.352	14541
900.472	14556
900.591	14362
900.711	14412
900.83	14457
900.95	14446
901.069	14533
901.189	14381
901.308	14142
901.427	14119
901.546	14240
901.665	14172
901.784	14191
901.904	14005
902.023	13879
902.141	13700
902.26	13811
902.379	13753
902.498	13689
902.617	13677
902.735	13776
902.854	13704
902.973	13647
903.091	13438
903.21	13422
903.328	13552
903.446	13312
903.565	13263
903.683	13263
903.801	13183
903.919	13217
904.038	13251
904.156	13038
904.274	13202
904.392	13069
904.51	13015
904.627	13145
904.745	13023
904.863	13145
904.981	12848
905.098	12817
905.216	12646
905.334	12787
905.451	12711
905.569	12821
905.686	12795
905.803	12768
905.921	12642
906.038	12650
906.155	12597
906.272	12517
906.389	12585
906.506	12399
906.623	12350
906.74	12327
906.857	12289
906.974	12285
907.091	12441
907.208	12502
907.324	12403
907.441	12308
907.557	12114
907.674	12060
907.79	12015
907.907	12064
908.023	12095
908.139	12079
908.256	11958
908.372	11958
908.488	11996
908.604	11859
908.72	11882
908.836	11847
908.952	11851
909.068	11904
909.184	11961
909.3	11950
909.415	11878
909.531	11908
909.647	11649
909.762	11615
909.878	11642
909.993	11688
910.108	11634
910.224	11554
910.339	11604
910.454	11547
910.57	11467
910.685	11448
910.8	11623
910.915	11634
911.03	11497
911.145	11353
911.259	11414
911.374	11303
911.489	11162
911.604	11288
911.718	11102
911.833	11071
911.947	11018
912.062	10896
912.176	11094
912.291	11083
912.405	11094
912.519	11288
912.633	11254
912.748	11185
912.862	11083
912.976	10946
913.09	10828
913.204	10854
913.318	10980
913.431	10999
913.545	11067
913.659	11159
913.772	10889
913.886	10843
914	10839
914.113	10961
914.226	10938
914.34	10972
914.453	10767
914.566	10927
914.68	10786
914.793	10729
914.906	10634
915.019	10592
915.132	10523
915.245	10611
915.358	10588
915.47	10531
915.583	10649
915.696	10577
915.809	10702
915.921	10816
916.034	10508
916.146	10573
916.259	10561
916.371	10611
916.483	10618
916.595	10440
916.708	10588
916.82	10607
916.932	10493
917.044	10474
917.156	10550
917.268	10390
917.38	10390
917.491	10329
917.603	10459
917.715	10516
917.826	10550
917.938	10386
918.049	10367
918.161	10421
918.272	10481
918.384	10523
918.495	10440
918.606	10230
918.717	10223
918.828	10382
918.939	10348
919.05	10238
919.161	10257
919.272	10128
919.383	10086
919.494	10223
919.604	10538
919.715	10314
919.826	10287
919.936	10238
920.047	10379
920.157	10310
920.267	10538
920.378	10306
920.488	10314
920.598	10527
920.708	10660
920.818	10497
920.928	10424
921.038	10653
921.148	10569
921.258	10280
921.368	10257
921.477	10185
921.587	10116
921.697	10074
921.806	10185
921.916	10029
922.025	9918
922.134	9857
922.244	9884
922.353	9865
922.462	9740
922.571	9736
922.68	9557
922.789	9481
922.898	9584
923.007	9458
923.116	9572
923.224	9576
923.333	9507
923.442	9500
923.55	9416
923.659	9408
923.767	9511
923.876	9435
923.984	9526
924.092	9310
924.201	9367
924.309	9374
924.417	9443
924.525	9408
924.633	9435
924.741	10223
924.849	9211
924.956	9420
925.064	9237
925.172	9165
925.279	9142
925.387	9207
925.494	9184
925.602	9306
925.709	9306
925.816	9138
925.924	9184
926.031	9321
926.138	9237
926.245	9192
926.352	9138
926.459	9340
926.566	9306
926.673	9138
926.779	9013
926.886	9047
926.993	8948
927.099	8963
927.206	8883
927.312	8826
927.419	8975
927.525	8952
927.631	8929
927.737	8830
927.843	8838
927.95	8739
928.056	8773
928.162	8830
928.267	8800
928.373	9412
928.479	8975
928.585	8746
928.69	8883
928.796	8921
928.901	8720
929.007	8590
929.112	8842
929.218	8724
929.323	8674
929.428	8621
929.533	8769
929.638	8590
929.743	8617
929.848	8663
929.953	8545
930.058	8556
930.163	8438
930.267	8442
930.372	8549
930.477	8457
930.581	8610
930.685	8590
930.79	8374
930.894	8438
930.998	8366
931.103	8526
931.207	8191
931.311	8168
931.415	8081
931.519	7925
931.623	7906
