Data from test_V78500241_2294.txt Node
Date: Fri Mar 25 14:49:41 CST 2022
User: usil
Spectrometer: V785-0024
Trigger mode: 0
Integration Time (sec): 4.000000E-1
Scans to average: 1
Nonlinearity correction enabled: false
Boxcar width: 0
Storing dark spectrum: false
XAxis mode: Wavelengths
Number of Pixels in Spectrum: 1024
>>>>>Begin Spectral Data<<<<<
801.071	22139
801.214	22025
801.356	21846
801.499	21648
801.641	21549
801.783	21523
801.926	21644
802.068	21481
802.211	21386
802.353	21355
802.496	21173
802.638	20914
802.78	20963
802.923	20960
803.065	20765
803.208	20838
803.35	20895
803.492	20914
803.635	21096
803.777	20823
803.919	20956
804.061	21203
804.204	20864
804.346	20880
804.488	20689
804.63	20819
804.773	20758
804.915	20842
805.057	20914
805.199	20750
805.341	20807
805.483	20914
805.626	20834
805.768	20746
805.91	20895
806.052	20929
806.194	20746
806.336	20941
806.478	20815
806.62	20830
806.762	20883
806.904	20967
807.046	21370
807.188	21146
807.33	21119
807.472	21081
807.614	21089
807.756	21199
807.898	20967
808.04	20937
808.182	20826
808.324	20944
808.465	20872
808.607	21070
808.749	21203
808.891	21233
809.033	21378
809.174	21222
809.316	21104
809.458	21074
809.6	21154
809.741	21302
809.883	21188
810.025	21412
810.166	21310
810.308	21306
810.45	21268
810.591	21173
810.733	20948
810.875	20956
811.016	20876
811.158	20872
811.299	21028
811.441	21070
811.582	21043
811.724	20963
811.865	20952
812.007	20857
812.148	20876
812.29	20941
812.431	21036
812.573	21287
812.714	21340
812.855	21481
812.997	21496
813.138	21739
813.279	21542
813.421	21340
813.562	21370
813.703	21211
813.845	21165
813.986	20796
814.127	20571
814.268	20697
814.41	20545
814.551	20560
814.692	20514
814.833	20499
814.974	20522
815.115	20530
815.256	20442
815.397	20404
815.539	20358
815.68	20294
815.821	20126
815.962	20199
816.103	20149
816.244	20031
816.385	19936
816.526	19830
816.666	19761
816.807	19605
816.948	19746
817.089	19746
817.23	19727
817.371	19719
817.512	19556
817.653	19628
817.793	19556
817.934	19685
818.075	19548
818.216	19658
818.356	19544
818.497	19510
818.638	19358
818.778	19308
818.919	19392
819.06	19293
819.2	19312
819.341	19616
819.481	19613
819.622	19609
819.762	19727
819.903	19559
820.043	19658
820.184	19731
820.324	19597
820.465	19605
820.605	19616
820.746	19582
820.886	19441
821.026	19639
821.167	19537
821.307	19605
821.447	19563
821.588	19369
821.728	19354
821.868	19095
822.008	19008
822.149	18970
822.289	18894
822.429	18810
822.569	18658
822.709	18730
822.849	18475
822.99	18532
823.13	18422
823.27	18342
823.41	18410
823.55	18205
823.69	18281
823.83	18342
823.97	18178
824.11	18102
824.25	18053
824.389	17954
824.529	18095
824.669	17980
824.809	18163
824.949	18117
825.089	18129
825.228	18076
825.368	17878
825.508	17969
825.648	17840
825.787	17984
825.927	17904
826.067	17824
826.206	17775
826.346	17923
826.485	17863
826.625	17729
826.765	17950
826.904	17885
827.044	17547
827.183	17630
827.323	17482
827.462	17615
827.601	17532
827.741	17463
827.88	17535
828.02	17353
828.159	17505
828.298	17486
828.437	17577
828.577	17501
828.716	17699
828.855	17471
828.994	17288
829.134	17379
829.273	17254
829.412	17200
829.551	17109
829.69	17250
829.829	17269
829.968	17383
830.107	17307
830.246	17178
830.385	17246
830.524	17117
830.663	17147
830.802	17010
830.941	16896
831.08	16850
831.219	16984
831.357	16961
831.496	17159
831.635	16896
831.774	16801
831.913	16786
832.051	16584
832.19	16641
832.329	16668
832.467	16599
832.606	16542
832.744	16535
832.883	16493
833.022	16478
833.16	16500
833.299	16584
833.437	16630
833.576	16538
833.714	16641
833.852	16618
833.991	16626
834.129	16599
834.267	16622
834.406	16588
834.544	16618
834.682	16588
834.821	16649
834.959	16721
835.097	16542
835.235	16748
835.373	16607
835.511	16618
835.65	16538
835.788	16394
835.926	16360
836.064	16322
836.202	16276
836.34	16481
836.478	16599
836.615	16485
836.753	16546
836.891	16516
837.029	16504
837.167	16421
837.305	16432
837.443	16382
837.58	16386
837.718	16481
837.856	16421
837.993	16242
838.131	16424
838.269	16234
838.406	16344
838.544	16238
838.681	16071
838.819	16086
838.956	15994
839.094	15842
839.231	15918
839.369	16029
839.506	16234
839.643	16173
839.781	15911
839.918	15953
840.055	15922
840.193	15899
840.33	15842
840.467	15861
840.604	15922
840.742	16204
840.879	15781
841.016	15869
841.153	15831
841.29	16074
841.427	15941
841.564	15983
841.701	15892
841.838	15816
841.975	15838
842.112	15789
842.249	15701
842.385	15610
842.522	15831
842.659	15663
842.796	15793
842.933	15720
843.069	15641
843.206	15701
843.343	15812
843.479	15637
843.616	15667
843.752	15542
843.889	15564
844.025	15576
844.162	15435
844.298	15511
844.435	15488
844.571	15466
844.708	15469
844.844	15622
844.98	15644
845.117	15633
845.253	15496
845.389	15336
845.525	15492
845.661	15340
845.798	15173
845.934	15230
846.07	15374
846.206	15374
846.342	15416
846.478	15363
846.614	15066
846.75	14986
846.886	14956
847.022	15188
847.158	15013
847.294	15112
847.429	15043
847.565	14933
847.701	15249
847.837	14861
847.972	14777
848.108	14895
848.244	14830
848.379	14644
848.515	14610
848.65	14651
848.786	14705
848.921	14712
849.057	14785
849.192	14655
849.328	14686
849.463	14659
849.598	14632
849.734	14663
849.869	14514
850.004	14503
850.14	14537
850.275	14415
850.41	14343
850.545	14332
850.68	14278
850.815	14442
850.95	14366
851.085	14556
851.22	14385
851.355	14518
851.49	14355
851.625	14461
851.76	14370
851.895	14267
852.03	14366
852.165	14408
852.299	14393
852.434	14393
852.569	14400
852.703	14396
852.838	14461
852.973	14632
853.107	14533
853.242	14427
853.376	14278
853.511	14221
853.645	14233
853.78	14461
853.914	14332
854.048	14214
854.183	14336
854.317	14252
854.451	14408
854.585	14229
854.72	14218
854.854	14454
854.988	14244
855.122	14313
855.256	14134
855.39	14377
855.524	14324
855.658	14339
855.792	14214
855.926	14244
856.06	14324
856.194	14343
856.327	14290
856.461	14172
856.595	14259
856.729	14202
856.862	14374
856.996	14221
857.13	14301
857.263	14370
857.397	14446
857.53	14210
857.664	14377
857.797	14377
857.931	14457
858.064	14355
858.197	14396
858.331	14282
858.464	14221
858.597	14237
858.731	14256
858.864	14377
858.997	14153
859.13	14294
859.263	14324
859.396	14450
859.529	14202
859.662	14229
859.795	14313
859.928	14294
860.061	14423
860.194	14511
860.327	14229
860.46	14286
860.592	14317
860.725	14377
860.858	14370
860.99	14164
861.123	14157
861.256	14187
861.388	14286
861.521	14807
861.653	14130
861.786	14233
861.918	14130
862.05	14107
862.183	14187
862.315	14301
862.447	14275
862.58	14298
862.712	14145
862.844	13898
862.976	14153
863.108	14111
863.24	14313
863.372	13921
863.504	14016
863.636	13974
863.768	14092
863.9	14111
864.032	14046
864.164	13993
864.296	14088
864.428	14134
864.559	14145
864.691	14073
864.823	14134
864.954	14065
865.086	14134
865.217	13947
865.349	13913
865.48	14050
865.612	14153
865.743	14218
865.875	14065
866.006	13955
866.137	14035
866.269	13959
866.4	13967
866.531	14020
866.662	13963
866.793	13913
866.924	14054
867.055	14012
867.186	14024
867.317	14001
867.448	13963
867.579	14005
867.71	14005
867.841	14008
867.972	14111
868.103	14069
868.233	14096
868.364	14050
868.495	14126
868.625	14210
868.756	14301
868.886	14240
869.017	14298
869.147	14381
869.278	14370
869.408	14332
869.539	14400
869.669	14377
869.799	14377
869.929	14404
870.06	14454
870.19	14640
870.32	14644
870.45	14743
870.58	14720
870.71	14819
870.84	14807
870.97	14724
871.1	14651
871.23	14914
871.36	14902
871.489	14807
871.619	14861
871.749	14921
871.879	15043
872.008	14952
872.138	14925
872.267	14853
872.397	14777
872.526	14765
872.656	14796
872.785	14754
872.915	14948
873.044	14982
873.173	14960
873.303	15093
873.432	14990
873.561	15028
873.69	14967
873.819	14963
873.948	15062
874.077	15028
874.206	14960
874.335	14975
874.464	15108
874.593	15321
874.722	15218
874.851	15287
874.979	15283
875.108	15279
875.237	15351
875.365	15203
875.494	15298
875.623	15393
875.751	15279
875.88	15279
876.008	15500
876.136	15515
876.265	15701
876.393	15899
876.521	15823
876.65	15743
876.778	15709
876.906	15663
877.034	15584
877.162	15755
877.29	15701
877.418	15682
877.546	15713
877.674	15667
877.802	15629
877.93	15652
878.058	15568
878.185	15488
878.313	15595
878.441	15637
878.568	15519
878.696	15561
878.824	15789
878.951	15694
879.079	15838
879.206	16010
879.333	15903
879.461	15717
879.588	15732
879.715	15797
879.842	15949
879.97	15819
880.097	15488
880.224	15538
880.351	15618
880.478	15534
880.605	15519
880.732	15526
880.859	15759
880.986	15500
881.112	15564
881.239	15397
881.366	15275
881.493	15245
881.619	15146
881.746	15203
881.872	15192
881.999	15199
882.125	15070
882.252	15207
882.378	15173
882.505	15329
882.631	15169
882.757	14971
882.883	15055
883.01	14880
883.136	14982
883.262	14853
883.388	14857
883.514	15112
883.64	15070
883.766	14910
883.892	14830
884.018	14834
884.143	14971
884.269	15131
884.395	14712
884.52	14648
884.646	14670
884.772	14667
884.897	14560
885.023	14754
885.148	14800
885.274	14838
885.399	14834
885.524	14746
885.65	14781
885.775	14773
885.9	14651
886.025	14754
886.15	14880
886.275	14686
886.4	14602
886.525	14636
886.65	14587
886.775	14636
886.9	14800
887.025	14914
887.149	14693
887.274	14530
887.399	14545
887.523	14457
887.648	14446
887.773	14457
887.897	14636
888.021	14568
888.146	14518
888.27	14636
888.395	14678
888.519	14590
888.643	14587
888.767	14583
888.891	14511
889.015	14385
889.139	14457
889.263	14396
889.387	14560
889.511	14564
889.635	14526
889.759	14298
889.883	14362
890.006	14427
890.13	14499
890.254	14343
890.377	14355
890.501	14309
890.624	14183
890.748	14259
890.871	14206
890.995	14054
891.118	14008
891.241	14180
891.364	14138
891.488	14290
891.611	14153
891.734	14020
891.857	14240
891.98	14168
892.103	14206
892.226	14126
892.349	14107
892.471	13932
892.594	14027
892.717	14058
892.839	13989
892.962	14153
893.085	14142
893.207	14069
893.33	14005
893.452	14062
893.575	14206
893.697	14084
893.819	14301
893.941	14362
894.064	14191
894.186	14100
894.308	14088
894.43	14237
894.552	14317
894.674	14267
894.796	14103
894.918	14161
895.04	14096
895.161	14320
895.283	14267
895.405	14016
895.526	14183
895.648	14252
895.769	14221
895.891	14339
896.012	14450
896.134	14362
896.255	14244
896.376	14278
896.498	14256
896.619	14317
896.74	14244
896.861	14362
896.982	14549
897.103	14716
897.224	14587
897.345	14438
897.466	14476
897.587	14495
897.708	14670
897.828	14617
897.949	14507
898.07	14438
898.19	14507
898.311	14682
898.431	14648
898.552	14602
898.672	14655
898.792	14731
898.913	14617
899.033	14617
899.153	14503
899.273	14484
899.393	14495
899.513	14503
899.633	14533
899.753	14571
899.873	14461
899.993	14587
900.113	14507
900.232	14526
900.352	14473
900.472	14431
900.591	14339
900.711	14362
900.83	14389
900.95	14446
901.069	14495
901.189	14252
901.308	14031
901.427	13993
901.546	13993
901.665	13978
901.784	14119
901.904	13898
902.023	13822
902.141	13689
902.26	13506
902.379	13655
902.498	13666
902.617	13552
902.735	13666
902.854	13647
902.973	13609
903.091	13392
903.21	13301
903.328	13327
903.446	13225
903.565	13141
903.683	13217
903.801	13072
903.919	13255
904.038	13160
904.156	13084
904.274	13027
904.392	12989
904.51	12951
904.627	13008
904.745	13000
904.863	13061
904.981	12856
905.098	12741
905.216	12692
905.334	12692
905.451	12696
905.569	12627
905.686	12734
905.803	12677
905.921	12498
906.038	12608
906.155	12429
906.272	12486
906.389	12437
906.506	12334
906.623	12220
906.74	12209
906.857	12129
906.974	12243
907.091	12346
907.208	12399
907.324	12353
907.441	12216
907.557	12053
907.674	11973
907.79	11920
907.907	11992
908.023	12034
908.139	12003
908.256	11939
908.372	11931
908.488	11870
908.604	11760
908.72	11790
908.836	11805
908.952	11714
909.068	11824
909.184	11935
909.3	11790
909.415	11904
909.531	11737
909.647	11509
909.762	11619
909.878	11478
909.993	11592
910.108	11486
910.224	11551
910.339	11581
910.454	11406
910.57	11398
910.685	11242
910.8	11585
910.915	11585
911.03	11387
911.145	11277
911.259	11265
911.374	11102
911.489	11102
911.604	11060
911.718	11003
911.833	11037
911.947	10896
912.062	10767
912.176	11014
912.291	10911
912.405	10938
912.519	11189
912.633	11189
912.748	11083
912.862	10961
912.976	10934
913.09	10763
913.204	10820
913.318	10911
913.431	10953
913.545	10930
913.659	11006
913.772	10782
913.886	10714
914	10729
914.113	10843
914.226	10961
914.34	10771
914.453	10649
914.566	10782
914.68	10630
914.793	10736
914.906	10565
915.019	10481
915.132	10447
915.245	10546
915.358	10424
915.47	10455
915.583	10607
915.696	10523
915.809	10691
915.921	10683
916.034	10485
916.146	10424
916.259	10470
916.371	10569
916.483	10588
916.595	10504
916.708	10440
916.82	10421
916.932	10409
917.044	10318
917.156	10455
917.268	10329
917.38	10284
917.491	10329
917.603	10341
917.715	10428
917.826	10493
917.938	10360
918.049	10246
918.161	10268
918.272	10497
918.384	10436
918.495	10375
918.606	10223
918.717	10188
918.828	10215
918.939	10253
919.05	10131
919.161	10211
919.272	9998
919.383	10040
919.494	10325
919.604	10375
919.715	10249
919.826	10105
919.936	10280
920.047	10272
920.157	10227
920.267	10451
920.378	10234
920.488	10238
920.598	10470
920.708	10516
920.818	10504
920.928	10382
921.038	10603
921.148	10523
921.258	10291
921.368	10181
921.477	10154
921.587	10055
921.697	9979
921.806	10051
921.916	9991
922.025	9884
922.134	9831
922.244	9663
922.353	9785
922.462	9724
922.571	9584
922.68	9462
922.789	9553
922.898	9485
923.007	9416
923.116	9534
923.224	9416
923.333	9500
923.442	9359
923.55	9389
923.659	9386
923.767	9397
923.876	9313
923.984	9454
924.092	9291
924.201	9397
924.309	9420
924.417	9359
924.525	9272
924.633	9359
924.741	10276
924.849	9138
924.956	9249
925.064	9135
925.172	9093
925.279	9047
925.387	9154
925.494	9089
925.602	9260
925.709	9260
925.816	9127
925.924	9127
926.031	9241
926.138	9203
926.245	9176
926.352	9032
926.459	9184
926.566	9203
926.673	9081
926.779	9043
926.886	9028
926.993	8826
927.099	8792
927.206	8792
927.312	8815
927.419	8921
927.525	8819
927.631	8845
927.737	8815
927.843	8777
927.95	8701
928.056	8693
928.162	8746
928.267	8781
928.373	9348
928.479	8876
928.585	8571
928.69	8689
928.796	8796
928.901	8598
929.007	8526
929.112	8682
929.218	8590
929.323	8606
929.428	8625
929.533	8712
929.638	8526
929.743	8545
929.848	8613
929.953	8511
930.058	8415
930.163	8336
930.267	8336
930.372	8473
930.477	8259
930.581	8541
930.685	8408
930.79	8301
930.894	8263
930.998	8225
931.103	8431
931.207	8054
931.311	8008
931.415	7864
931.519	7761
931.623	7784
