Data from test_V78500241_1593.txt Node
Date: Fri Mar 25 14:44:48 CST 2022
User: usil
Spectrometer: V785-0024
Trigger mode: 0
Integration Time (sec): 4.000000E-1
Scans to average: 1
Nonlinearity correction enabled: false
Boxcar width: 0
Storing dark spectrum: false
XAxis mode: Wavelengths
Number of Pixels in Spectrum: 1024
>>>>>Begin Spectral Data<<<<<
801.071	22386
801.214	22303
801.356	22150
801.499	22013
801.641	21873
801.783	21819
801.926	21797
802.068	21667
802.211	21660
802.353	21523
802.496	21298
802.638	21355
802.78	21154
802.923	21108
803.065	21032
803.208	21001
803.35	21043
803.492	21161
803.635	21230
803.777	21093
803.919	21119
804.061	21454
804.204	21100
804.346	20982
804.488	20963
804.63	20986
804.773	20975
804.915	21077
805.057	21192
805.199	21119
805.341	21131
805.483	21146
805.626	21043
805.768	21020
805.91	20937
806.052	21001
806.194	20910
806.336	21108
806.478	21047
806.62	20929
806.762	21047
806.904	21260
807.046	21321
807.188	21382
807.33	21405
807.472	21443
807.614	21264
807.756	21233
807.898	21138
808.04	21070
808.182	21062
808.324	21195
808.465	21222
808.607	21370
808.749	21587
808.891	21614
809.033	21603
809.174	21641
809.316	21481
809.458	21481
809.6	21397
809.741	21420
809.883	21519
810.025	21667
810.166	21652
810.308	21542
810.45	21549
810.591	21355
810.733	21325
810.875	21222
811.016	21108
811.158	21066
811.299	21275
811.441	21332
811.582	21355
811.724	21161
811.865	21230
812.007	21169
812.148	21108
812.29	21207
812.431	21317
812.573	21523
812.714	21629
812.855	21751
812.997	21610
813.138	21934
813.279	21797
813.421	21625
813.562	21717
813.703	21370
813.845	21214
813.986	20914
814.127	20918
814.268	20765
814.41	20765
814.551	20739
814.692	20765
814.833	20655
814.974	20590
815.115	20716
815.256	20670
815.397	20632
815.539	20648
815.68	20522
815.821	20381
815.962	20518
816.103	20454
816.244	20336
816.385	20256
816.526	20195
816.666	20088
816.807	19894
816.948	19944
817.089	19947
817.23	19868
817.371	19864
817.512	19909
817.653	19776
817.793	19757
817.934	19986
818.075	19833
818.216	19864
818.356	19883
818.497	19708
818.638	19540
818.778	19559
818.919	19514
819.06	19635
819.2	19681
819.341	19757
819.481	19769
819.622	19818
819.762	20062
819.903	19944
820.043	19871
820.184	19784
820.324	19803
820.465	19986
820.605	19753
820.746	19811
820.886	19753
821.026	19769
821.167	19784
821.307	19871
821.447	19624
821.588	19658
821.728	19594
821.868	19304
822.008	19255
822.149	19270
822.289	19343
822.429	19057
822.569	18954
822.709	18901
822.849	18806
822.99	18837
823.13	18779
823.27	18707
823.41	18585
823.55	18521
823.69	18494
823.83	18627
823.97	18460
824.11	18300
824.25	18220
824.389	18361
824.529	18429
824.669	18304
824.809	18357
824.949	18475
825.089	18319
825.228	18258
825.368	18045
825.508	18068
825.648	18152
825.787	18171
825.927	18213
826.067	18026
826.206	17973
826.346	18201
826.485	18102
826.625	18057
826.765	18228
826.904	18045
827.044	17786
827.183	17805
827.323	17741
827.462	17779
827.601	17779
827.741	17771
827.88	17832
828.02	17649
828.159	17668
828.298	17813
828.437	17920
828.577	17718
828.716	17866
828.855	17684
828.994	17516
829.134	17562
829.273	17493
829.412	17512
829.551	17482
829.69	17433
829.829	17497
829.968	17558
830.107	17532
830.246	17592
830.385	17455
830.524	17486
830.663	17376
830.802	17250
830.941	17090
831.08	17121
831.219	17216
831.357	17155
831.496	17402
831.635	17079
831.774	17071
831.913	16987
832.051	16862
832.19	16904
832.329	16965
832.467	16774
832.606	16736
832.744	16752
832.883	16839
833.022	16869
833.16	16824
833.299	16812
833.437	16892
833.576	16881
833.714	16824
833.852	16972
833.991	16927
834.129	16984
834.267	16919
834.406	16881
834.544	16877
834.682	16892
834.821	16774
834.959	17045
835.097	16759
835.235	16953
835.373	16843
835.511	16809
835.65	16839
835.788	16763
835.926	16630
836.064	16542
836.202	16497
836.34	16820
836.478	16843
836.615	16717
836.753	16839
836.891	16812
837.029	16721
837.167	16702
837.305	16706
837.443	16653
837.58	16599
837.718	16664
837.856	16694
837.993	16565
838.131	16683
838.269	16645
838.406	16497
838.544	16462
838.681	16291
838.819	16276
838.956	16158
839.094	16162
839.231	16318
839.369	16329
839.506	16440
839.643	16421
839.781	16112
839.918	16097
840.055	16166
840.193	16303
840.33	16181
840.467	16135
840.604	16207
840.742	16409
840.879	15880
841.016	16109
841.153	16006
841.29	16284
841.427	16204
841.564	16158
841.701	16162
841.838	16055
841.975	16021
842.112	16124
842.249	15945
842.385	15968
842.522	16166
842.659	15907
842.796	16017
842.933	15930
843.069	15934
843.206	15975
843.343	15975
843.479	15850
843.616	15949
843.752	15720
843.889	15736
844.025	15861
844.162	15751
844.298	15876
844.435	15709
844.571	15690
844.708	15705
844.844	15884
844.98	15945
845.117	15816
845.253	15656
845.389	15694
845.525	15835
845.661	15747
845.798	15500
845.934	15717
846.07	15538
846.206	15599
846.342	15762
846.478	15663
846.614	15344
846.75	15317
846.886	15230
847.022	15344
847.158	15283
847.294	15214
847.429	15367
847.565	15230
847.701	15519
847.837	14967
847.972	14956
848.108	15036
848.244	15066
848.379	14952
848.515	14887
848.65	14861
848.786	14895
848.921	14956
849.057	14990
849.192	15017
849.328	14982
849.463	14929
849.598	14857
849.734	14826
849.869	14727
850.004	14708
850.14	14621
850.275	14674
850.41	14568
850.545	14583
850.68	14568
850.815	14632
850.95	14674
851.085	14746
851.22	14590
851.355	14724
851.49	14583
851.625	14579
851.76	14583
851.895	14560
852.03	14549
852.165	14575
852.299	14648
852.434	14765
852.569	14731
852.703	14743
852.838	14590
852.973	14819
853.107	14788
853.242	14594
853.376	14526
853.511	14408
853.645	14549
853.78	14571
853.914	14461
854.048	14495
854.183	14457
854.317	14484
854.451	14682
854.585	14518
854.72	14423
854.854	14708
854.988	14450
855.122	14408
855.256	14408
855.39	14480
855.524	14571
855.658	14473
855.792	14530
855.926	14476
856.06	14514
856.194	14545
856.327	14450
856.461	14495
856.595	14385
856.729	14484
856.862	14625
856.996	14450
857.13	14522
857.263	14670
857.397	14610
857.53	14514
857.664	14632
857.797	14575
857.931	14648
858.064	14533
858.197	14610
858.331	14492
858.464	14488
858.597	14419
858.731	14412
858.864	14492
858.997	14537
859.13	14408
859.263	14590
859.396	14530
859.529	14469
859.662	14438
859.795	14389
859.928	14533
860.061	14590
860.194	14621
860.327	14541
860.46	14480
860.592	14743
860.725	14682
860.858	14549
860.99	14533
861.123	14469
861.256	14381
861.388	14457
861.521	15268
861.653	14275
861.786	14355
861.918	14370
862.05	14381
862.183	14465
862.315	14533
862.447	14560
862.58	14412
862.712	14317
862.844	14225
862.976	14332
863.108	14244
863.24	14739
863.372	14244
863.504	14248
863.636	14244
863.768	14248
863.9	14290
864.032	14176
864.164	14301
864.296	14221
864.428	14408
864.559	14351
864.691	14465
864.823	14324
864.954	14366
865.086	14320
865.217	14290
865.349	14244
865.48	14294
865.612	14305
865.743	14530
865.875	14259
866.006	14244
866.137	14176
866.269	14305
866.4	14206
866.531	14210
866.662	14191
866.793	14298
866.924	14187
867.055	14248
867.186	14309
867.317	14161
867.448	14164
867.579	14252
867.71	14088
867.841	14149
867.972	14229
868.103	14278
868.233	14301
868.364	14332
868.495	14305
868.625	14507
868.756	14514
868.886	14400
869.017	14427
869.147	14613
869.278	14556
869.408	14492
869.539	14556
869.669	14644
869.799	14499
869.929	14629
870.06	14613
870.19	14868
870.32	14883
870.45	14880
870.58	14864
870.71	15039
870.84	15005
870.97	14807
871.1	14902
871.23	15032
871.36	15169
871.489	14975
871.619	15154
871.749	15123
871.879	15070
872.008	15241
872.138	15112
872.267	15058
872.397	14986
872.526	14872
872.656	14895
872.785	14906
872.915	15169
873.044	15230
873.173	15039
873.303	15233
873.432	15245
873.561	15241
873.69	15085
873.819	15203
873.948	15188
874.077	15070
874.206	15127
874.335	15131
874.464	15336
874.593	15435
874.722	15408
874.851	15564
874.979	15507
875.108	15447
875.237	15458
875.365	15408
875.494	15469
875.623	15511
875.751	15519
875.88	15511
876.008	15587
876.136	15720
876.265	15816
876.393	15945
876.521	16010
876.65	15865
876.778	15865
876.906	15835
877.034	15797
877.162	15816
877.29	15793
877.418	15888
877.546	15895
877.674	15789
877.802	15823
877.93	15895
878.058	15968
878.185	15732
878.313	15937
878.441	15816
878.568	15739
878.696	15774
878.824	15991
878.951	15934
879.079	16131
879.206	16242
879.333	16067
879.461	15953
879.588	16090
879.715	16086
879.842	16154
879.97	16055
880.097	15831
880.224	15686
880.351	15793
880.478	15793
880.605	15675
880.732	15675
880.859	15884
880.986	15812
881.112	15827
881.239	15504
881.366	15515
881.493	15523
881.619	15397
881.746	15507
881.872	15431
881.999	15443
882.125	15420
882.252	15408
882.378	15408
882.505	15511
882.631	15302
882.757	15203
882.883	15207
883.01	15294
883.136	15119
883.262	15093
883.388	15058
883.514	15260
883.64	15195
883.766	15074
883.892	14982
884.018	15062
884.143	15252
884.269	15199
884.395	14979
884.52	14948
884.646	14887
884.772	14857
884.897	14838
885.023	14826
885.148	14918
885.274	15119
885.399	15051
885.524	14876
885.65	14925
885.775	14891
885.9	14937
886.025	14994
886.15	14998
886.275	14819
886.4	14773
886.525	14963
886.65	14785
886.775	14857
886.9	15062
887.025	15017
887.149	14880
887.274	14735
887.399	14746
887.523	14754
887.648	14617
887.773	14632
887.897	14864
888.021	14750
888.146	14670
888.27	14765
888.395	14785
888.519	14792
888.643	14739
888.767	14845
888.891	14610
889.015	14583
889.139	14708
889.263	14495
889.387	14598
889.511	14823
889.635	14712
889.759	14537
889.883	14564
890.006	14651
890.13	14712
890.254	14518
890.377	14526
890.501	14374
890.624	14351
890.748	14552
890.871	14305
890.995	14233
891.118	14149
891.241	14263
891.364	14301
891.488	14427
891.611	14210
891.734	14305
891.857	14358
891.98	14358
892.103	14362
892.226	14339
892.349	14225
892.471	14084
892.594	14301
892.717	14332
892.839	14282
892.962	14195
893.085	14305
893.207	14210
893.33	14138
893.452	14210
893.575	14423
893.697	14195
893.819	14419
893.941	14400
894.064	14518
894.186	14275
894.308	14244
894.43	14423
894.552	14450
894.674	14370
894.796	14248
894.918	14328
895.04	14446
895.161	14560
895.283	14358
895.405	14294
895.526	14339
895.648	14347
895.769	14381
895.891	14431
896.012	14511
896.134	14480
896.255	14362
896.376	14454
896.498	14476
896.619	14541
896.74	14381
896.861	14518
896.982	14785
897.103	14880
897.224	14655
897.345	14655
897.466	14648
897.587	14746
897.708	14792
897.828	14720
897.949	14621
898.07	14602
898.19	14697
898.311	14864
898.431	14724
898.552	14819
898.672	14785
898.792	14887
898.913	14944
899.033	14655
899.153	14610
899.273	14568
899.393	14663
899.513	14629
899.633	14674
899.753	14678
899.873	14587
899.993	14716
900.113	14579
900.232	14701
900.352	14587
900.472	14629
900.591	14499
900.711	14533
900.83	14492
900.95	14598
901.069	14602
901.189	14431
901.308	14256
901.427	14096
901.546	14225
901.665	14237
901.784	14202
901.904	14130
902.023	14016
902.141	13822
902.26	13761
902.379	13784
902.498	13723
902.617	13803
902.735	13791
902.854	13772
902.973	13715
903.091	13400
903.21	13434
903.328	13537
903.446	13373
903.565	13297
903.683	13354
903.801	13278
903.919	13346
904.038	13339
904.156	13126
904.274	13236
904.392	13107
904.51	13171
904.627	13164
904.745	13194
904.863	13255
904.981	12928
905.098	12856
905.216	12909
905.334	12924
905.451	12776
905.569	12730
905.686	12829
905.803	12821
905.921	12593
906.038	12753
906.155	12559
906.272	12555
906.389	12589
906.506	12391
906.623	12426
906.74	12346
906.857	12304
906.974	12319
907.091	12475
907.208	12513
907.324	12445
907.441	12285
907.557	12190
907.674	12106
907.79	12117
907.907	12136
908.023	12213
908.139	12121
908.256	12167
908.372	12030
908.488	12026
908.604	11988
908.72	11870
908.836	11866
908.952	11931
909.068	11889
909.184	12026
909.3	11931
909.415	11920
909.531	11992
909.647	11707
909.762	11745
909.878	11672
909.993	11737
910.108	11596
910.224	11684
910.339	11668
910.454	11554
910.57	11482
910.685	11509
910.8	11866
910.915	11752
911.03	11573
911.145	11436
911.259	11406
911.374	11379
911.489	11334
911.604	11311
911.718	11170
911.833	11128
911.947	11056
912.062	11056
912.176	11151
912.291	11189
912.405	11208
912.519	11296
912.633	11395
912.748	11208
912.862	11147
912.976	11029
913.09	10987
913.204	10984
913.318	11090
913.431	11147
913.545	11083
913.659	11197
913.772	11155
913.886	10915
914	10919
914.113	11052
914.226	11098
914.34	10965
914.453	10843
914.566	10968
914.68	10809
914.793	10839
914.906	10698
915.019	10615
915.132	10573
915.245	10645
915.358	10645
915.47	10744
915.583	10668
915.696	10717
915.809	10782
915.921	10831
916.034	10714
916.146	10592
916.259	10611
916.371	10717
916.483	10615
916.595	10569
916.708	10660
916.82	10618
916.932	10596
917.044	10542
917.156	10538
917.268	10481
917.38	10417
917.491	10565
917.603	10519
917.715	10573
917.826	10577
917.938	10424
918.049	10394
918.161	10527
918.272	10592
918.384	10558
918.495	10500
918.606	10360
918.717	10325
918.828	10424
918.939	10367
919.05	10284
919.161	10318
919.272	10173
919.383	10246
919.494	10398
919.604	10565
919.715	10451
919.826	10272
919.936	10386
920.047	10409
920.157	10341
920.267	10565
920.378	10470
920.488	10352
920.598	10596
920.708	10721
920.818	10569
920.928	10558
921.038	10683
921.148	10687
921.258	10447
921.368	10344
921.477	10287
921.587	10246
921.697	10116
921.806	10219
921.916	10025
922.025	9968
922.134	9945
922.244	9804
922.353	9991
922.462	9774
922.571	9778
922.68	9663
922.789	9625
922.898	9644
923.007	9557
923.116	9667
923.224	9652
923.333	9584
923.442	9511
923.55	9447
923.659	9557
923.767	9538
923.876	9450
923.984	9538
924.092	9389
924.201	9526
924.309	9435
924.417	9443
924.525	9412
924.633	9408
924.741	10333
924.849	9351
924.956	9473
925.064	9287
925.172	9146
925.279	9241
925.387	9321
925.494	9287
925.602	9321
925.709	9306
925.816	9237
925.924	9260
926.031	9389
926.138	9340
926.245	9264
926.352	9150
926.459	9317
926.566	9397
926.673	9222
926.779	9116
926.886	9123
926.993	9070
927.099	8971
927.206	8906
927.312	8998
927.419	9036
927.525	9020
927.631	8994
927.737	8887
927.843	8838
927.95	8766
928.056	8876
928.162	8937
928.267	8952
928.373	9492
928.479	9024
928.585	8754
928.69	8883
928.796	8876
928.901	8766
929.007	8629
929.112	8815
929.218	8754
929.323	8651
929.428	8625
929.533	8834
929.638	8579
929.743	8629
929.848	8701
929.953	8678
930.058	8674
930.163	8454
930.267	8473
930.372	8617
930.477	8469
930.581	8587
930.685	8602
930.79	8389
930.894	8415
930.998	8362
931.103	8480
931.207	8206
931.311	8180
931.415	8050
931.519	7830
931.623	7849
