Data from test_V78500241_116.txt Node
Date: Fri Mar 25 14:34:32 CST 2022
User: usil
Spectrometer: V785-0024
Trigger mode: 0
Integration Time (sec): 4.000000E-1
Scans to average: 1
Nonlinearity correction enabled: false
Boxcar width: 0
Storing dark spectrum: false
XAxis mode: Wavelengths
Number of Pixels in Spectrum: 1024
>>>>>Begin Spectral Data<<<<<
801.071	30125
801.214	30038
801.356	29824
801.499	29653
801.641	29505
801.783	29642
801.926	29657
802.068	29630
802.211	29459
802.353	29486
802.496	29216
802.638	29337
802.78	29284
802.923	29242
803.065	29280
803.208	29166
803.35	29436
803.492	29414
803.635	29505
803.777	29455
803.919	29592
804.061	29775
804.204	29752
804.346	29463
804.488	29562
804.63	29501
804.773	29512
804.915	29672
805.057	29870
805.199	29684
805.341	29999
805.483	30011
805.626	30022
805.768	29920
805.91	30174
806.052	30281
806.194	30102
806.336	30525
806.478	30547
806.62	30620
806.762	30817
806.904	31065
807.046	31491
807.188	31689
807.33	31807
807.472	32294
807.614	32689
807.756	33313
807.898	33895
808.04	34653
808.182	35988
808.324	37670
808.465	39504
808.607	41417
808.749	43301
808.891	44168
809.033	44313
809.174	43217
809.316	41471
809.458	39435
809.6	37331
809.741	35672
809.883	34455
810.025	33709
810.166	33005
810.308	32537
810.45	32191
810.591	31772
810.733	31327
810.875	31126
811.016	31088
811.158	30852
811.299	30833
811.441	30852
811.582	30692
811.724	30578
811.865	30479
812.007	30334
812.148	30429
812.29	30209
812.431	30464
812.573	30547
812.714	30441
812.855	30627
812.997	30700
813.138	30821
813.279	30688
813.421	30551
813.562	30513
813.703	30384
813.845	30155
813.986	29847
814.127	29665
814.268	29577
814.41	29528
814.551	29505
814.692	29524
814.833	29433
814.974	29375
815.115	29360
815.256	29239
815.397	29052
815.539	29318
815.68	29128
815.821	29029
815.962	28972
816.103	29022
816.244	28866
816.385	28885
816.526	28824
816.666	28531
816.807	28310
816.948	28447
817.089	28451
817.23	28478
817.371	28398
817.512	28344
817.653	28333
817.793	28169
817.934	28493
818.075	28261
818.216	28257
818.356	28337
818.497	28158
818.638	28002
818.778	28013
818.919	28032
819.06	28086
819.2	28059
819.341	28261
819.481	28215
819.622	28386
819.762	28641
819.903	28352
820.043	28428
820.184	28325
820.324	28177
820.465	28371
820.605	28379
820.746	28276
820.886	28013
821.026	28166
821.167	28177
821.307	28207
821.447	28021
821.588	27854
821.728	27850
821.868	27599
822.008	27439
822.149	27424
822.289	27427
822.429	27188
822.569	27100
822.709	27116
822.849	26971
822.99	26937
823.13	26792
823.27	26864
823.41	26712
823.55	26465
823.69	26655
823.83	26648
823.97	26651
824.11	26564
824.25	26488
824.389	26381
824.529	26556
824.669	26446
824.809	26507
824.949	26549
825.089	26396
825.228	26514
825.368	26339
825.508	26419
825.648	26271
825.787	26339
825.927	26305
826.067	26256
826.206	26298
826.346	26309
826.485	26385
826.625	26278
826.765	26453
826.904	26271
827.044	26069
827.183	26073
827.323	25940
827.462	25982
827.601	25811
827.741	25826
827.88	25928
828.02	25704
828.159	25993
828.298	25887
828.437	25868
828.577	25871
828.716	25951
828.855	25757
828.994	25632
829.134	25552
829.273	25605
829.412	25483
829.551	25438
829.69	25575
829.829	25537
829.968	25586
830.107	25567
830.246	25666
830.385	25605
830.524	25457
830.663	25460
830.802	25217
830.941	25179
831.08	25187
831.219	25103
831.357	25061
831.496	25457
831.635	25171
831.774	25145
831.913	25114
832.051	25015
832.19	24958
832.329	24935
832.467	24878
832.606	24863
832.744	24882
832.883	25008
833.022	24924
833.16	25034
833.299	25095
833.437	25126
833.576	25225
833.714	25187
833.852	25491
833.991	25601
834.129	25594
834.267	25537
834.406	25445
834.544	25381
834.682	25411
834.821	25354
834.959	25400
835.097	25061
835.235	25114
835.373	25050
835.511	24985
835.65	24779
835.788	24730
835.926	24612
836.064	24380
836.202	24555
836.34	24604
836.478	24707
836.615	24521
836.753	24547
836.891	24661
837.029	24452
837.167	24505
837.305	24486
837.443	24334
837.58	24528
837.718	24426
837.856	24372
837.993	24376
838.131	24365
838.269	24277
838.406	24277
838.544	24190
838.681	23901
838.819	24015
838.956	23885
839.094	23771
839.231	23779
839.369	23908
839.506	24171
839.643	24053
839.781	23832
839.918	23680
840.055	23699
840.193	23649
840.33	23547
840.467	23528
840.604	23874
840.742	23790
840.879	23528
841.016	23627
841.153	23608
841.29	23676
841.427	23661
841.564	23741
841.701	23676
841.838	23646
841.975	23585
842.112	23577
842.249	23402
842.385	23372
842.522	23562
842.659	23474
842.796	23444
842.933	23387
843.069	23311
843.206	23509
843.343	23649
843.479	23452
843.616	23452
843.752	23204
843.889	23376
844.025	23376
844.162	23307
844.298	23516
844.435	23649
844.571	23524
844.708	23870
844.844	24106
844.98	24448
845.117	24821
845.253	25289
845.389	26317
845.525	28394
845.661	31822
845.798	35870
845.934	39203
846.07	40341
846.206	39758
846.342	36882
846.478	32823
846.614	29067
846.75	26617
846.886	25339
847.022	24300
847.158	23824
847.294	23471
847.429	23277
847.565	23052
847.701	23254
847.837	22672
847.972	22443
848.108	22721
848.244	22683
848.379	22379
848.515	22428
848.65	22234
848.786	22154
848.921	22200
849.057	22462
849.192	22246
849.328	22223
849.463	22181
849.598	22109
849.734	21987
849.869	22093
850.004	21888
850.14	22013
850.275	21979
850.41	21861
850.545	21819
850.68	21876
850.815	21823
850.95	21846
851.085	22029
851.22	21956
851.355	21899
851.49	21918
851.625	21873
851.76	21842
851.895	21846
852.03	21774
852.165	21876
852.299	21903
852.434	21937
852.569	21960
852.703	21968
852.838	21983
852.973	21960
853.107	21964
853.242	21876
853.376	21922
853.511	21656
853.645	21892
853.78	21949
853.914	21915
854.048	21918
854.183	21857
854.317	21994
854.451	22143
854.585	21903
854.72	21816
854.854	21892
854.988	21865
855.122	21835
855.256	21652
855.39	21717
855.524	21937
855.658	21880
855.792	21888
855.926	21743
856.06	21766
856.194	21675
856.327	21789
856.461	21580
856.595	21698
856.729	21648
856.862	21759
856.996	21637
857.13	21679
857.263	21713
857.397	21656
857.53	21545
857.664	21561
857.797	21781
857.931	21698
858.064	21564
858.197	21576
858.331	21679
858.464	21462
858.597	21488
858.731	21485
858.864	21572
858.997	21523
859.13	21523
859.263	21443
859.396	21576
859.529	21561
859.662	21389
859.795	21564
859.928	21534
860.061	21644
860.194	21747
860.327	21542
860.46	21599
860.592	21564
860.725	21591
860.858	21496
860.99	21671
861.123	21340
861.256	21485
861.388	21469
861.521	22177
861.653	21359
861.786	21310
861.918	21401
862.05	21447
862.183	21481
862.315	21557
862.447	21583
862.58	21530
862.712	21325
862.844	21211
862.976	21317
863.108	21283
863.24	21618
863.372	21089
863.504	21127
863.636	21176
863.768	21279
863.9	21146
864.032	21104
864.164	21157
864.296	21291
864.428	21275
864.559	21081
864.691	21241
864.823	21203
864.954	21017
865.086	21123
865.217	21062
865.349	21005
865.48	21062
865.612	21096
865.743	21119
865.875	21028
866.006	20960
866.137	21093
866.269	21036
866.4	21135
866.531	21001
866.662	20952
866.793	20929
866.924	20986
867.055	20967
867.186	20986
867.317	20944
867.448	20815
867.579	20921
867.71	20868
867.841	20902
867.972	20937
868.103	20994
868.233	21074
868.364	20982
868.495	21036
868.625	21142
868.756	21245
868.886	21131
869.017	21123
869.147	21249
869.278	21237
869.408	21241
869.539	21127
869.669	21272
869.799	21275
869.929	21298
870.06	21340
870.19	21538
870.32	21526
870.45	21610
870.58	21595
870.71	21861
870.84	21629
870.97	21698
871.1	21686
871.23	21690
871.36	21876
871.489	21686
871.619	21800
871.749	21861
871.879	21819
872.008	21953
872.138	21846
872.267	21922
872.397	21759
872.526	21751
872.656	21781
872.785	21793
872.915	21934
873.044	22051
873.173	21934
873.303	22109
873.432	22188
873.561	22139
873.69	22105
873.819	22112
873.948	22306
874.077	22112
874.206	22162
874.335	22166
874.464	22344
874.593	22413
874.722	22417
874.851	22360
874.979	22504
875.108	22508
875.237	22485
875.365	22382
875.494	22440
875.623	22618
875.751	22527
875.88	22672
876.008	22721
876.136	22866
876.265	23140
876.393	23227
876.521	23242
876.65	23200
876.778	23383
876.906	23299
877.034	23223
877.162	23356
877.29	23212
877.418	23474
877.546	23497
877.674	23448
877.802	23733
877.93	23657
878.058	23703
878.185	23638
878.313	24110
878.441	24228
878.568	24376
878.696	24700
878.824	25175
878.951	26031
879.079	27001
879.206	28432
879.333	29433
879.461	30486
879.588	31156
879.715	31362
879.842	30791
879.97	29493
880.097	28173
880.224	27272
880.351	26484
880.478	25852
880.605	25441
880.732	25335
880.859	25400
880.986	25031
881.112	24939
881.239	24787
881.366	24703
881.493	24547
881.619	24471
881.746	24631
881.872	24391
881.999	24536
882.125	24429
882.252	24597
882.378	24555
882.505	24730
882.631	24593
882.757	24456
882.883	24532
883.01	24483
883.136	24342
883.262	24380
883.388	24334
883.514	24273
883.64	24300
883.766	24178
883.892	24064
884.018	24174
884.143	24311
884.269	24410
884.395	24163
884.52	24167
884.646	24060
884.772	23984
884.897	23946
885.023	24022
885.148	24144
885.274	24114
885.399	23935
885.524	23748
885.65	23790
885.775	23733
885.9	23646
886.025	23714
886.15	23467
886.275	23318
886.4	23204
886.525	23200
886.65	22999
886.775	23071
886.9	23086
887.025	23151
887.149	22866
887.274	22725
887.399	22592
887.523	22481
887.648	22516
887.773	22215
887.897	22421
888.021	22478
888.146	22200
888.27	22322
888.395	22265
888.519	22261
888.643	22017
888.767	22086
888.891	21838
889.015	21880
889.139	21816
889.263	21800
889.387	21861
889.511	22048
889.635	21701
889.759	21705
889.883	21644
890.006	21739
890.13	21701
890.254	21622
890.377	21587
890.501	21424
890.624	21260
890.748	21412
890.871	21161
890.995	21138
891.118	21001
891.241	21131
891.364	20941
891.488	21077
891.611	20998
891.734	21024
891.857	21131
891.98	20853
892.103	20956
892.226	20963
892.349	20796
892.471	20735
892.594	20800
892.717	20762
892.839	20811
892.962	20785
893.085	20796
893.207	20659
893.33	20594
893.452	20514
893.575	20670
893.697	20579
893.819	20743
893.941	20819
894.064	20762
894.186	20522
894.308	20438
894.43	20537
894.552	20727
894.674	20568
894.796	20450
894.918	20396
895.04	20381
895.161	20590
895.283	20465
895.405	20400
895.526	20328
895.648	20320
895.769	20480
895.891	20286
896.012	20389
896.134	20381
896.255	20396
896.376	20389
896.498	20396
896.619	20362
896.74	20450
896.861	20423
896.982	20655
897.103	20659
897.224	20609
897.345	20530
897.466	20473
897.587	20484
897.708	20598
897.828	20457
897.949	20488
898.07	20301
898.19	20309
898.311	20549
898.431	20408
898.552	20450
898.672	20522
898.792	20465
898.913	20320
899.033	20305
899.153	20248
899.273	20031
899.393	20145
899.513	20191
899.633	20096
899.753	20058
899.873	20054
899.993	20164
900.113	19970
900.232	20043
900.352	20088
900.472	19860
900.591	19860
900.711	19822
900.83	19727
900.95	19898
901.069	19989
901.189	19696
901.308	19620
901.427	19533
901.546	19510
901.665	19502
901.784	19426
901.904	19373
902.023	19198
902.141	19084
902.26	19034
902.379	19012
902.498	18966
902.617	18897
902.735	18939
902.854	18791
902.973	18711
903.091	18521
903.21	18734
903.328	18601
903.446	18426
903.565	18315
903.683	18357
903.801	18289
903.919	18319
904.038	18380
904.156	18060
904.274	18117
904.392	18030
904.51	18194
904.627	18171
904.745	18136
904.863	18125
904.981	17893
905.098	17714
905.216	17802
905.334	17729
905.451	17752
905.569	17592
905.686	17790
905.803	17646
905.921	17509
906.038	17608
906.155	17566
906.272	17429
906.389	17509
906.506	17265
906.623	17307
906.74	17337
906.857	17208
906.974	17231
907.091	17296
907.208	17414
907.324	17334
907.441	17083
907.557	16957
907.674	17060
907.79	16820
907.907	16877
908.023	17064
908.139	16927
908.256	16820
908.372	16793
908.488	16748
908.604	16820
908.72	16615
908.836	16744
908.952	16702
909.068	16675
909.184	16691
909.3	16618
909.415	16653
909.531	16683
909.647	16443
909.762	16295
909.878	16234
909.993	16405
910.108	16291
910.224	16185
910.339	16348
910.454	16242
910.57	16185
910.685	16162
910.8	16295
910.915	16287
911.03	16128
911.145	16128
911.259	15941
911.374	15903
911.489	15785
911.604	15736
911.718	15724
911.833	15785
911.947	15584
912.062	15485
912.176	15538
912.291	15663
912.405	15641
912.519	15838
912.633	15842
912.748	15644
912.862	15473
912.976	15549
913.09	15340
913.204	15355
913.318	15393
913.431	15576
913.545	15523
913.659	15523
913.772	15359
913.886	15332
914	15332
914.113	15420
914.226	15466
914.34	15310
914.453	15207
914.566	15264
914.68	15154
914.793	15131
914.906	15005
915.019	15009
915.132	14838
915.245	14941
915.358	15070
915.47	14971
915.583	14899
915.696	14910
915.809	15062
915.921	15070
916.034	14887
916.146	14861
916.259	14838
916.371	14933
916.483	14952
916.595	14853
916.708	14781
916.82	14811
916.932	14842
917.044	14663
917.156	14693
917.268	14560
917.38	14655
917.491	14579
917.603	14606
917.715	14659
917.826	14708
917.938	14571
918.049	14469
918.161	14473
918.272	14693
918.384	14648
918.495	14503
918.606	14404
918.717	14183
918.828	14370
918.939	14328
919.05	14229
919.161	14332
919.272	13955
919.383	14202
919.494	14305
919.604	14454
919.715	14320
919.826	14176
919.936	14202
920.047	14240
920.157	14237
920.267	14511
920.378	14176
920.488	14298
920.598	14511
920.708	14518
920.818	14244
920.928	14259
921.038	14495
921.148	14412
921.258	14195
921.368	14001
921.477	13963
921.587	13959
921.697	13875
921.806	13944
921.916	13791
922.025	13624
922.134	13723
922.244	13533
922.353	13655
922.462	13468
922.571	13441
922.68	13259
922.789	13198
922.898	13244
923.007	13179
923.116	13270
923.224	13213
923.333	13198
923.442	13050
923.55	13042
923.659	12954
923.767	13091
923.876	12970
923.984	13072
924.092	12901
924.201	12958
924.309	12928
924.417	12939
924.525	12935
924.633	12985
924.741	13803
924.849	12635
924.956	12905
925.064	12684
925.172	12612
925.279	12665
925.387	12665
925.494	12650
925.602	12734
925.709	12658
925.816	12620
925.924	12604
926.031	12646
926.138	12578
926.245	12570
926.352	12490
926.459	12601
926.566	12646
926.673	12483
926.779	12353
926.886	12353
926.993	12175
927.099	12232
927.206	12148
927.312	12133
927.419	12235
927.525	12148
927.631	12232
927.737	12178
927.843	12060
927.95	11954
928.056	11980
928.162	12076
928.267	12121
928.373	12623
928.479	12079
928.585	11908
928.69	11908
928.796	12030
928.901	11843
929.007	11775
929.112	11927
929.218	11863
929.323	11805
929.428	11760
929.533	11809
929.638	11638
929.743	11680
929.848	11718
929.953	11767
930.058	11577
930.163	11516
930.267	11387
930.372	11573
930.477	11364
930.581	11566
930.685	11455
930.79	11330
930.894	11387
930.998	11337
931.103	11360
931.207	10987
931.311	10938
931.415	10911
931.519	10683
931.623	10698
