Data from test_V78500241_344.txt Node
Date: Fri Mar 25 14:36:07 CST 2022
User: usil
Spectrometer: V785-0024
Trigger mode: 0
Integration Time (sec): 4.000000E-1
Scans to average: 1
Nonlinearity correction enabled: false
Boxcar width: 0
Storing dark spectrum: false
XAxis mode: Wavelengths
Number of Pixels in Spectrum: 1024
>>>>>Begin Spectral Data<<<<<
801.071	26773
801.214	26842
801.356	26518
801.499	26507
801.641	26427
801.783	26370
801.926	26381
802.068	26419
802.211	26259
802.353	26043
802.496	25951
802.638	25974
802.78	25841
802.923	25917
803.065	25803
803.208	25731
803.35	25833
803.492	25887
803.635	25917
803.777	25875
803.919	25940
804.061	26221
804.204	25982
804.346	25772
804.488	25826
804.63	25818
804.773	25753
804.915	25826
805.057	25928
805.199	25727
805.341	25986
805.483	25894
805.626	25852
805.768	25906
805.91	25959
806.052	25944
806.194	25704
806.336	26027
806.478	25997
806.62	25772
806.762	25890
806.904	26084
807.046	26320
807.188	26290
807.33	26210
807.472	26355
807.614	26134
807.756	26240
807.898	25966
808.04	25921
808.182	25989
808.324	26077
808.465	26115
808.607	26259
808.749	26339
808.891	26609
809.033	26693
809.174	26530
809.316	26469
809.458	26336
809.6	26324
809.741	26446
809.883	26301
810.025	26594
810.166	26648
810.308	26514
810.45	26522
810.591	26488
810.733	26393
810.875	26298
811.016	26157
811.158	26240
811.299	26290
811.441	26263
811.582	26469
811.724	26301
811.865	26115
812.007	26191
812.148	26259
812.29	26278
812.431	26358
812.573	26393
812.714	26412
812.855	26602
812.997	26758
813.138	26876
813.279	26826
813.421	26693
813.562	26549
813.703	26568
813.845	26453
813.986	26111
814.127	25887
814.268	25753
814.41	25830
814.551	25803
814.692	25864
814.833	25761
814.974	25723
815.115	25685
815.256	25518
815.397	25590
815.539	25704
815.68	25582
815.821	25422
815.962	25510
816.103	25479
816.244	25362
816.385	25152
816.526	25129
816.666	25019
816.807	25019
816.948	25023
817.089	24943
817.23	24787
817.371	24897
817.512	24958
817.653	24882
817.793	24829
817.934	24947
818.075	24924
818.216	24882
818.356	24863
818.497	24730
818.638	24620
818.778	24597
818.919	24635
819.06	24684
819.2	24707
819.341	24681
819.481	24802
819.622	24833
819.762	25118
819.903	24966
820.043	24989
820.184	25114
820.324	24787
820.465	24928
820.605	24867
820.746	24840
820.886	24753
821.026	24878
821.167	24821
821.307	24970
821.447	24696
821.588	24681
821.728	24555
821.868	24372
822.008	24220
822.149	24201
822.289	24289
822.429	24038
822.569	23756
822.709	23920
822.849	23653
822.99	23630
823.13	23707
823.27	23589
823.41	23383
823.55	23395
823.69	23570
823.83	23474
823.97	23509
824.11	23242
824.25	23250
824.389	23299
824.529	23311
824.669	23223
824.809	23387
824.949	23231
825.089	23387
825.228	23090
825.368	22991
825.508	23048
825.648	22953
825.787	23098
825.927	23147
826.067	23052
826.206	22908
826.346	23090
826.485	23083
826.625	23037
826.765	22980
826.904	22980
827.044	22805
827.183	22748
827.323	22797
827.462	22755
827.601	22713
827.741	22752
827.88	22771
828.02	22672
828.159	22710
828.298	22698
828.437	22771
828.577	22588
828.716	22881
828.855	22641
828.994	22360
829.134	22485
829.273	22519
829.412	22451
829.551	22337
829.69	22356
829.829	22352
829.968	22367
830.107	22394
830.246	22348
830.385	22185
830.524	22249
830.663	22318
830.802	22150
830.941	21991
831.08	21998
831.219	22029
831.357	21994
831.496	22204
831.635	21960
831.774	21907
831.913	21926
832.051	21690
832.19	21778
832.329	21819
832.467	21656
832.606	21648
832.744	21477
832.883	21576
833.022	21641
833.16	21610
833.299	21728
833.437	21587
833.576	21553
833.714	21663
833.852	21713
833.991	21629
834.129	21705
834.267	21629
834.406	21641
834.544	21561
834.682	21641
834.821	21549
834.959	21888
835.097	21534
835.235	21603
835.373	21656
835.511	21583
835.65	21603
835.788	21481
835.926	21157
836.064	21245
836.202	21287
836.34	21462
836.478	21595
836.615	21389
836.753	21447
836.891	21504
837.029	21534
837.167	21507
837.305	21389
837.443	21363
837.58	21416
837.718	21447
837.856	21317
837.993	21176
838.131	21325
838.269	21203
838.406	21188
838.544	21058
838.681	20929
838.819	20952
838.956	20819
839.094	20697
839.231	20834
839.369	20895
839.506	21096
839.643	21047
839.781	20739
839.918	20663
840.055	20663
840.193	20754
840.33	20678
840.467	20651
840.604	20617
840.742	20857
840.879	20617
841.016	20511
841.153	20484
841.29	20621
841.427	20735
841.564	20644
841.701	20724
841.838	20537
841.975	20503
842.112	20617
842.249	20450
842.385	20332
842.522	20651
842.659	20393
842.796	20332
842.933	20480
843.069	20244
843.206	20374
843.343	20377
843.479	20263
843.616	20499
843.752	20214
843.889	20077
844.025	20244
844.162	20088
844.298	20351
844.435	20008
844.571	20130
844.708	20153
844.844	20278
844.98	20218
845.117	20183
845.253	20210
845.389	20027
845.525	19986
845.661	19989
845.798	19879
845.934	20024
846.07	19959
846.206	19936
846.342	20145
846.478	19890
846.614	19814
846.75	19605
846.886	19651
847.022	19757
847.158	19632
847.294	19601
847.429	19563
847.565	19597
847.701	19879
847.837	19499
847.972	19377
848.108	19438
848.244	19358
848.379	19164
848.515	19202
848.65	19179
848.786	19202
848.921	19266
849.057	19168
849.192	19240
849.328	19103
849.463	19164
849.598	19129
849.734	19145
849.869	18973
850.004	18916
850.14	18928
850.275	18878
850.41	18935
850.545	18932
850.68	18863
850.815	18909
850.95	18894
851.085	19076
851.22	19031
851.355	19000
851.49	18894
851.625	18882
851.76	18970
851.895	18821
852.03	18757
852.165	18932
852.299	18916
852.434	19012
852.569	18954
852.703	18920
852.838	18909
852.973	19076
853.107	19015
853.242	18875
853.376	18734
853.511	18673
853.645	18711
853.78	18757
853.914	18798
854.048	18669
854.183	18661
854.317	18745
854.451	18932
854.585	18684
854.72	18730
854.854	18779
854.988	18669
855.122	18703
855.256	18483
855.39	18772
855.524	18867
855.658	18795
855.792	18719
855.926	18760
856.06	18745
856.194	18753
856.327	18677
856.461	18734
856.595	18631
856.729	18616
856.862	18871
856.996	18684
857.13	18760
857.263	18886
857.397	18871
857.53	18764
857.664	18711
857.797	18878
857.931	18875
858.064	18787
858.197	18840
858.331	18696
858.464	18692
858.597	18726
858.731	18696
858.864	18681
858.997	18673
859.13	18650
859.263	18768
859.396	18768
859.529	18582
859.662	18635
859.795	18642
859.928	18719
860.061	18859
860.194	18817
860.327	18574
860.46	18593
860.592	18814
860.725	18776
860.858	18738
860.99	18597
861.123	18566
861.256	18616
861.388	18604
861.521	19369
861.653	18506
861.786	18547
861.918	18661
862.05	18585
862.183	18528
862.315	18707
862.447	18749
862.58	18650
862.712	18506
862.844	18369
862.976	18566
863.108	18429
863.24	18677
863.372	18342
863.504	18464
863.636	18414
863.768	18445
863.9	18330
864.032	18262
864.164	18323
864.296	18403
864.428	18479
864.559	18452
864.691	18452
864.823	18448
864.954	18372
865.086	18521
865.217	18232
865.349	18308
865.48	18289
865.612	18334
865.743	18388
865.875	18365
866.006	18308
866.137	18460
866.269	18422
866.4	18273
866.531	18243
866.662	18194
866.793	18247
866.924	18285
867.055	18338
867.186	18258
867.317	18209
867.448	18121
867.579	18144
867.71	18224
867.841	18296
867.972	18300
868.103	18285
868.233	18232
868.364	18216
868.495	18277
868.625	18353
868.756	18532
868.886	18384
869.017	18289
869.147	18456
869.278	18563
869.408	18597
869.539	18486
869.669	18498
869.799	18490
869.929	18639
870.06	18612
870.19	18806
870.32	18734
870.45	18753
870.58	18825
870.71	18951
870.84	18989
870.97	18867
871.1	18882
871.23	19031
871.36	18996
871.489	18993
871.619	19118
871.749	19042
871.879	19129
872.008	19107
872.138	19046
872.267	19072
872.397	18981
872.526	18844
872.656	18821
872.785	18924
872.915	19053
873.044	19145
873.173	19137
873.303	19088
873.432	19129
873.561	19095
873.69	19057
873.819	19164
873.948	19259
874.077	19171
874.206	19019
874.335	19152
874.464	19213
874.593	19381
874.722	19244
874.851	19426
874.979	19464
875.108	19407
875.237	19282
875.365	19335
875.494	19259
875.623	19403
875.751	19301
875.88	19411
876.008	19487
876.136	19567
876.265	19849
876.393	19898
876.521	19959
876.65	19860
876.778	19746
876.906	19658
877.034	19769
877.162	19799
877.29	19765
877.418	19624
877.546	19693
877.674	19830
877.802	19807
877.93	19750
878.058	19757
878.185	19605
878.313	19750
878.441	19727
878.568	19624
878.696	19655
878.824	19894
878.951	19864
879.079	19906
879.206	20119
879.333	20115
879.461	19788
879.588	19970
879.715	20039
879.842	20058
879.97	19902
880.097	19666
880.224	19563
880.351	19632
880.478	19658
880.605	19693
880.732	19628
880.859	19936
880.986	19712
881.112	19655
881.239	19529
881.366	19335
881.493	19175
881.619	19206
881.746	19171
881.872	19247
881.999	19095
882.125	19133
882.252	19312
882.378	19335
882.505	19343
882.631	19297
882.757	19046
882.883	19091
883.01	19023
883.136	18935
883.262	18848
883.388	18802
883.514	18973
883.64	18939
883.766	18901
883.892	18719
884.018	18734
884.143	18954
884.269	19038
884.395	18753
884.52	18642
884.646	18669
884.772	18684
884.897	18464
885.023	18688
885.148	18730
885.274	18810
885.399	18734
885.524	18700
885.65	18661
885.775	18627
885.9	18665
886.025	18745
886.15	18665
886.275	18525
886.4	18582
886.525	18582
886.65	18551
886.775	18715
886.9	18688
887.025	18833
887.149	18650
887.274	18426
887.399	18388
887.523	18376
887.648	18292
887.773	18292
887.897	18426
888.021	18448
888.146	18319
888.27	18509
888.395	18559
888.519	18429
888.643	18467
888.767	18353
888.891	18258
889.015	18216
889.139	18258
889.263	18144
889.387	18437
889.511	18369
889.635	18277
889.759	18186
889.883	18232
890.006	18239
890.13	18384
890.254	18155
890.377	18136
890.501	17999
890.624	18003
890.748	18098
890.871	17863
890.995	17699
891.118	17786
891.241	17817
891.364	17779
891.488	18015
891.611	17889
891.734	17859
891.857	17859
891.98	17874
892.103	17984
892.226	17767
892.349	17752
892.471	17748
892.594	17908
892.717	17764
892.839	17794
892.962	17726
893.085	17703
893.207	17824
893.33	17596
893.452	17684
893.575	17863
893.697	17668
893.819	17863
893.941	17882
894.064	17923
894.186	17642
894.308	17767
894.43	17798
894.552	17923
894.674	17901
894.796	17809
894.918	17699
895.04	17703
895.161	17847
895.283	17889
895.405	17672
895.526	17748
895.648	17908
895.769	17847
895.891	17897
896.012	17882
896.134	17950
896.255	17885
896.376	17786
896.498	17923
896.619	17965
896.74	17786
896.861	17935
896.982	18190
897.103	18422
897.224	18182
897.345	18064
897.466	17988
897.587	18083
897.708	18270
897.828	18171
897.949	17965
898.07	18022
898.19	18015
898.311	18251
898.431	17980
898.552	18159
898.672	18117
898.792	18159
898.913	18129
899.033	18053
899.153	17973
899.273	17741
899.393	17790
899.513	17942
899.633	17840
899.753	17863
899.873	17836
899.993	17954
900.113	17889
900.232	17817
900.352	17771
900.472	17615
900.591	17611
900.711	17786
900.83	17592
900.95	17729
901.069	17809
901.189	17649
901.308	17398
901.427	17220
901.546	17284
901.665	17345
901.784	17307
901.904	17147
902.023	17075
902.141	16831
902.26	16854
902.379	16980
902.498	16892
902.617	16740
902.735	16850
902.854	16843
902.973	16759
903.091	16462
903.21	16550
903.328	16516
903.446	16405
903.565	16280
903.683	16314
903.801	16166
903.919	16303
904.038	16306
904.156	16105
904.274	16112
904.392	16051
904.51	16055
904.627	16086
904.745	16158
904.863	16139
904.981	15968
905.098	15705
905.216	15694
905.334	15876
905.451	15759
905.569	15766
905.686	15675
905.803	15751
905.921	15542
906.038	15804
906.155	15500
906.272	15473
906.389	15519
906.506	15389
906.623	15306
906.74	15321
906.857	15173
906.974	15245
907.091	15443
907.208	15412
907.324	15408
907.441	15169
907.557	15058
907.674	15020
907.79	14952
907.907	14990
908.023	14910
908.139	14990
908.256	15062
908.372	14906
908.488	14800
908.604	14800
908.72	14773
908.836	14708
908.952	14655
909.068	14758
909.184	14842
909.3	14697
909.415	14788
909.531	14785
909.647	14473
909.762	14549
909.878	14385
909.993	14385
910.108	14377
910.224	14366
910.339	14339
910.454	14358
910.57	14218
910.685	14172
910.8	14606
910.915	14374
911.03	14218
911.145	14081
911.259	14043
911.374	14035
911.489	14027
911.604	13951
911.718	13871
911.833	13776
911.947	13605
912.062	13586
912.176	13887
912.291	13868
912.405	13757
912.519	13978
912.633	14027
912.748	13845
912.862	13833
912.976	13647
913.09	13510
913.204	13582
913.318	13639
913.431	13784
913.545	13700
913.659	13814
913.772	13578
913.886	13544
914	13487
914.113	13548
914.226	13655
914.34	13514
914.453	13426
914.566	13495
914.68	13400
914.793	13381
914.906	13289
915.019	13129
915.132	13084
915.245	13118
915.358	13137
915.47	13247
915.583	13152
915.696	13164
915.809	13335
915.921	13335
916.034	13202
916.146	13061
916.259	13008
916.371	13137
916.483	13088
916.595	13012
916.708	13065
916.82	13103
916.932	13023
917.044	12981
917.156	12985
917.268	12882
917.38	12890
917.491	12890
917.603	12837
917.715	13038
917.826	12981
917.938	12848
918.049	12852
918.161	12882
918.272	13046
918.384	12954
918.495	12825
918.606	12734
918.717	12650
918.828	12681
918.939	12722
919.05	12631
919.161	12616
919.272	12544
919.383	12536
919.494	12677
919.604	12897
919.715	12688
919.826	12589
919.936	12677
920.047	12741
920.157	12741
920.267	12886
920.378	12620
920.488	12540
920.598	12829
920.708	12973
920.818	12760
920.928	12825
921.038	13038
921.148	12966
921.258	12563
921.368	12525
921.477	12407
921.587	12509
921.697	12330
921.806	12483
921.916	12277
922.025	12144
922.134	12117
922.244	12003
922.353	12175
922.462	12022
922.571	11904
922.68	11824
922.789	11668
922.898	11752
923.007	11729
923.116	11824
923.224	11729
923.333	11695
923.442	11668
923.55	11539
923.659	11604
923.767	11676
923.876	11554
923.984	11688
924.092	11528
924.201	11551
924.309	11490
924.417	11566
924.525	11493
924.633	11573
924.741	12323
924.849	11334
924.956	11330
925.064	11292
925.172	11277
925.279	11258
925.387	11334
925.494	11242
925.602	11433
925.709	11318
925.816	11258
925.924	11277
926.031	11398
926.138	11315
926.245	11269
926.352	11117
926.459	11277
926.566	11223
926.673	11151
926.779	11098
926.886	11170
926.993	10885
927.099	10866
927.206	10850
927.312	10828
927.419	10938
927.525	10854
927.631	10987
927.737	10812
927.843	10847
927.95	10607
928.056	10771
928.162	10809
928.267	10790
928.373	11433
928.479	10858
928.585	10630
928.69	10634
928.796	10763
928.901	10622
929.007	10485
929.112	10672
929.218	10592
929.323	10493
929.428	10481
929.533	10641
929.638	10474
929.743	10527
929.848	10462
929.953	10447
930.058	10344
930.163	10215
930.267	10272
930.372	10329
930.477	10227
930.581	10432
930.685	10280
930.79	10040
930.894	10147
930.998	10071
931.103	10196
931.207	9907
931.311	9895
931.415	9747
931.519	9587
931.623	9500
