Data from test_V78500241_883.txt Node
Date: Fri Mar 25 14:39:52 CST 2022
User: usil
Spectrometer: V785-0024
Trigger mode: 0
Integration Time (sec): 4.000000E-1
Scans to average: 1
Nonlinearity correction enabled: false
Boxcar width: 0
Storing dark spectrum: false
XAxis mode: Wavelengths
Number of Pixels in Spectrum: 1024
>>>>>Begin Spectral Data<<<<<
801.071	25377
801.214	25308
801.356	24958
801.499	24905
801.641	24825
801.783	24749
801.926	24817
802.068	24810
802.211	24738
802.353	24513
802.496	24239
802.638	24239
802.78	24262
802.923	24117
803.065	24159
803.208	24292
803.35	24102
803.492	24171
803.635	24209
803.777	24102
803.919	24209
804.061	24475
804.204	24228
804.346	24155
804.488	24163
804.63	24159
804.773	24053
804.915	24144
805.057	24315
805.199	24102
805.341	24369
805.483	24350
805.626	24201
805.768	24251
805.91	24323
806.052	24391
806.194	24342
806.336	24642
806.478	24528
806.62	24604
806.762	24810
806.904	24966
807.046	25171
807.188	25308
807.33	25479
807.472	25628
807.614	25738
807.756	26008
807.898	26381
808.04	26758
808.182	27427
808.324	28314
808.465	29174
808.607	30174
808.749	31118
808.891	31696
809.033	31738
809.174	31065
809.316	30015
809.458	29197
809.6	28166
809.741	27378
809.883	26804
810.025	26514
810.166	26142
810.308	25807
810.45	25670
810.591	25384
810.733	25190
810.875	24962
811.016	24947
811.158	24665
811.299	24901
811.441	24894
811.582	24772
811.724	24616
811.865	24521
812.007	24563
812.148	24460
812.29	24505
812.431	24669
812.573	24779
812.714	24856
812.855	25034
812.997	25038
813.138	25171
813.279	25057
813.421	25015
813.562	24840
813.703	24867
813.845	24570
813.986	24296
814.127	24117
814.268	23996
814.41	24030
814.551	23851
814.692	23920
814.833	23840
814.974	23805
815.115	23885
815.256	23824
815.397	23672
815.539	23726
815.68	23573
815.821	23539
815.962	23672
816.103	23467
816.244	23402
816.385	23265
816.526	23212
816.666	23105
816.807	22965
816.948	23056
817.089	23109
817.23	22900
817.371	22987
817.512	22961
817.653	22946
817.793	22839
817.934	22904
818.075	22961
818.216	22980
818.356	22812
818.497	22755
818.638	22573
818.778	22634
818.919	22607
819.06	22538
819.2	22774
819.341	22831
819.481	22790
819.622	23006
819.762	23143
819.903	23006
820.043	22911
820.184	22839
820.324	22873
820.465	22957
820.605	22892
820.746	22892
820.886	22596
821.026	22812
821.167	22786
821.307	22824
821.447	22725
821.588	22656
821.728	22436
821.868	22242
822.008	22158
822.149	22150
822.289	22211
822.429	21972
822.569	21705
822.709	21751
822.849	21538
822.99	21698
823.13	21641
823.27	21739
823.41	21515
823.55	21447
823.69	21439
823.83	21477
823.97	21408
824.11	21195
824.25	21100
824.389	21226
824.529	21214
824.669	21241
824.809	21412
824.949	21302
825.089	21386
825.228	21203
825.368	20941
825.508	21055
825.648	21013
825.787	21062
825.927	21013
826.067	20971
826.206	21005
826.346	20998
826.485	21070
826.625	21001
826.765	21161
826.904	20948
827.044	20701
827.183	20697
827.323	20640
827.462	20708
827.601	20712
827.741	20587
827.88	20670
828.02	20476
828.159	20579
828.298	20644
828.437	20533
828.577	20632
828.716	20720
828.855	20564
828.994	20377
829.134	20343
829.273	20434
829.412	20381
829.551	20347
829.69	20244
829.829	20446
829.968	20377
830.107	20301
830.246	20263
830.385	20233
830.524	20252
830.663	20012
830.802	20035
830.941	19932
831.08	19967
831.219	19997
831.357	19833
831.496	20138
831.635	19814
831.774	19852
831.913	19803
832.051	19772
832.19	19666
832.329	19799
832.467	19685
832.606	19655
832.744	19575
832.883	19746
833.022	19647
833.16	19791
833.299	19757
833.437	19807
833.576	19715
833.714	19807
833.852	19909
833.991	19978
834.129	20111
834.267	20134
834.406	19890
834.544	19997
834.682	19963
834.821	19849
834.959	20020
835.097	19704
835.235	19879
835.373	19868
835.511	19647
835.65	19616
835.788	19540
835.926	19438
836.064	19403
836.202	19327
836.34	19415
836.478	19525
836.615	19419
836.753	19525
836.891	19597
837.029	19453
837.167	19407
837.305	19365
837.443	19343
837.58	19266
837.718	19419
837.856	19194
837.993	19168
838.131	19373
838.269	19145
838.406	19183
838.544	19175
838.681	18878
838.819	18951
838.956	18764
839.094	18776
839.231	18810
839.369	18916
839.506	19171
839.643	19084
839.781	18760
839.918	18642
840.055	18764
840.193	18757
840.33	18688
840.467	18783
840.604	18711
840.742	19012
840.879	18582
841.016	18623
841.153	18681
841.29	18814
841.427	18688
841.564	18783
841.701	18738
841.838	18616
841.975	18555
842.112	18532
842.249	18471
842.385	18395
842.522	18646
842.659	18464
842.796	18437
842.933	18494
843.069	18475
843.206	18456
843.343	18429
843.479	18574
843.616	18525
843.752	18213
843.889	18247
844.025	18486
844.162	18319
844.298	18452
844.435	18426
844.571	18410
844.708	18559
844.844	18833
844.98	18817
845.117	19065
845.253	19259
845.389	19655
845.525	20667
845.661	22287
845.798	24251
845.934	26012
846.07	26720
846.206	26366
846.342	25118
846.478	23060
846.614	21176
846.75	19727
846.886	18985
847.022	18696
847.158	18346
847.294	18220
847.429	18125
847.565	18041
847.701	18216
847.837	17779
847.972	17482
848.108	17657
848.244	17630
848.379	17448
848.515	17372
848.65	17364
848.786	17311
848.921	17250
849.057	17406
849.192	17452
849.328	17414
849.463	17417
849.598	17311
849.734	17212
849.869	17189
850.004	17147
850.14	17109
850.275	17185
850.41	17014
850.545	17006
850.68	17048
850.815	17006
850.95	17010
851.085	17239
851.22	17166
851.355	17025
851.49	17075
851.625	17064
851.76	17048
851.895	16938
852.03	16915
852.165	16968
852.299	17045
852.434	17117
852.569	17090
852.703	17033
852.838	17223
852.973	17208
853.107	17174
853.242	17105
853.376	17018
853.511	16919
853.645	16930
853.78	17166
853.914	17018
854.048	17045
854.183	16984
854.317	17056
854.451	17105
854.585	16984
854.72	16968
854.854	17181
854.988	16900
855.122	16961
855.256	16873
855.39	16927
855.524	16957
855.658	16938
855.792	16927
855.926	16987
856.06	17094
856.194	17067
856.327	16995
856.461	16847
856.595	16809
856.729	16889
856.862	16930
856.996	16942
857.13	16930
857.263	17029
857.397	16972
857.53	16938
857.664	17018
857.797	16946
857.931	17045
858.064	16957
858.197	16869
858.331	16809
858.464	16850
858.597	16786
858.731	16866
858.864	16862
858.997	16759
859.13	16934
859.263	16771
859.396	16862
859.529	16873
859.662	16736
859.795	16816
859.928	16858
860.061	16961
860.194	16987
860.327	16831
860.46	16820
860.592	16923
860.725	16968
860.858	16923
860.99	16774
861.123	16763
861.256	16752
861.388	16839
861.521	17429
861.653	16721
861.786	16771
861.918	16649
862.05	16713
862.183	16675
862.315	16828
862.447	16744
862.58	16812
862.712	16538
862.844	16481
862.976	16710
863.108	16668
863.24	17060
863.372	16535
863.504	16599
863.636	16546
863.768	16599
863.9	16531
864.032	16481
864.164	16535
864.296	16660
864.428	16641
864.559	16645
864.691	16626
864.823	16607
864.954	16508
865.086	16531
865.217	16569
865.349	16531
865.48	16558
865.612	16523
865.743	16656
865.875	16478
866.006	16478
866.137	16493
866.269	16542
866.4	16481
866.531	16443
866.662	16459
866.793	16489
866.924	16405
867.055	16649
867.186	16519
867.317	16428
867.448	16390
867.579	16470
867.71	16295
867.841	16402
867.972	16455
868.103	16478
868.233	16531
868.364	16470
868.495	16516
868.625	16729
868.756	16835
868.886	16691
869.017	16691
869.147	16828
869.278	16733
869.408	16793
869.539	16683
869.669	16790
869.799	16850
869.929	16759
870.06	16900
870.19	16946
870.32	17048
870.45	17151
870.58	17090
870.71	17147
870.84	17280
870.97	17029
871.1	17189
871.23	17277
871.36	17322
871.489	17216
871.619	17376
871.749	17250
871.879	17273
872.008	17497
872.138	17398
872.267	17440
872.397	17193
872.526	17200
872.656	17170
872.785	17162
872.915	17379
873.044	17554
873.173	17433
873.303	17440
873.432	17490
873.561	17551
873.69	17383
873.819	17516
873.948	17410
874.077	17478
874.206	17543
874.335	17585
874.464	17615
874.593	17840
874.722	17668
874.851	17817
874.979	17756
875.108	17817
875.237	17707
875.365	17726
875.494	17836
875.623	17984
875.751	17821
875.88	17870
876.008	17954
876.136	18121
876.265	18247
876.393	18506
876.521	18353
876.65	18464
876.778	18464
876.906	18403
877.034	18357
877.162	18403
877.29	18483
877.418	18536
877.546	18494
877.674	18528
877.802	18566
877.93	18635
878.058	18559
878.185	18658
878.313	18703
878.441	18856
878.568	18856
878.696	19213
878.824	19510
878.951	19776
879.079	20381
879.206	21043
879.333	21618
879.461	22063
879.588	22432
879.715	22527
879.842	22360
879.97	21587
880.097	20807
880.224	20263
880.351	19830
880.478	19681
880.605	19343
880.732	19346
880.859	19392
880.986	19255
881.112	19141
881.239	19084
881.366	18837
881.493	18787
881.619	18722
881.746	18863
881.872	18776
881.999	18806
882.125	18787
882.252	18935
882.378	18886
882.505	18977
882.631	18760
882.757	18734
882.883	18700
883.01	18608
883.136	18559
883.262	18521
883.388	18471
883.514	18566
883.64	18715
883.766	18551
883.892	18604
884.018	18570
884.143	18646
884.269	18673
884.395	18391
884.52	18292
884.646	18456
884.772	18258
884.897	18262
885.023	18365
885.148	18464
885.274	18486
885.399	18384
885.524	18251
885.65	18190
885.775	18190
885.9	18106
886.025	18296
886.15	18102
886.275	18121
886.4	17874
886.525	17942
886.65	17935
886.775	17912
886.9	17927
887.025	18057
887.149	17809
887.274	17581
887.399	17512
887.523	17505
887.648	17402
887.773	17360
887.897	17482
888.021	17501
888.146	17459
888.27	17433
888.395	17516
888.519	17463
888.643	17353
888.767	17417
888.891	17261
889.015	17143
889.139	17178
889.263	17109
889.387	17277
889.511	17284
889.635	17189
889.759	16942
889.883	17003
890.006	17079
890.13	17239
890.254	16946
890.377	16911
890.501	16854
890.624	16786
890.748	16820
890.871	16752
890.995	16740
891.118	16702
891.241	16637
891.364	16717
891.488	16774
891.611	16675
891.734	16653
891.857	16767
891.98	16573
892.103	16637
892.226	16584
892.349	16500
892.471	16394
892.594	16577
892.717	16550
892.839	16489
892.962	16497
893.085	16615
893.207	16542
893.33	16371
893.452	16421
893.575	16462
893.697	16417
893.819	16603
893.941	16634
894.064	16611
894.186	16360
894.308	16318
894.43	16455
894.552	16607
894.674	16504
894.796	16318
894.918	16466
895.04	16512
895.161	16474
895.283	16478
895.405	16318
895.526	16409
895.648	16344
895.769	16504
895.891	16466
896.012	16554
896.134	16546
896.255	16497
896.376	16508
896.498	16405
896.619	16584
896.74	16569
896.861	16569
896.982	16767
897.103	16968
897.224	16744
897.345	16858
897.466	16694
897.587	16725
897.708	16873
897.828	16668
897.949	16729
898.07	16538
898.19	16683
898.311	16862
898.431	16641
898.552	16843
898.672	16889
898.792	16835
898.913	16755
899.033	16721
899.153	16592
899.273	16630
899.393	16584
899.513	16611
899.633	16660
899.753	16725
899.873	16558
899.993	16580
900.113	16542
900.232	16596
900.352	16447
900.472	16504
900.591	16402
900.711	16527
900.83	16386
900.95	16519
901.069	16527
901.189	16341
901.308	16086
901.427	16055
901.546	16078
901.665	16112
901.784	16177
901.904	15926
902.023	15774
902.141	15644
902.26	15580
902.379	15694
902.498	15481
902.617	15557
902.735	15633
902.854	15549
902.973	15439
903.091	15287
903.21	15268
903.328	15321
903.446	15260
903.565	15097
903.683	15009
903.801	14963
903.919	15013
904.038	15017
904.156	14921
904.274	14952
904.392	14895
904.51	14899
904.627	14804
904.745	14895
904.863	14891
904.981	14651
905.098	14507
905.216	14480
905.334	14545
905.451	14480
905.569	14396
905.686	14518
905.803	14492
905.921	14339
906.038	14332
906.155	14377
906.272	14214
906.389	14119
906.506	13970
906.623	14123
906.74	14035
906.857	13852
906.974	13925
907.091	14020
907.208	14107
907.324	14103
907.441	13928
907.557	13776
907.674	13734
907.79	13791
907.907	13776
908.023	13750
908.139	13715
908.256	13582
908.372	13769
908.488	13499
908.604	13460
908.72	13468
908.836	13434
908.952	13483
909.068	13499
909.184	13578
909.3	13605
909.415	13571
909.531	13567
909.647	13362
909.762	13266
909.878	13240
909.993	13209
910.108	13145
910.224	13236
910.339	13206
910.454	13126
910.57	13069
910.685	12897
910.8	13217
910.915	13133
911.03	12993
911.145	12928
911.259	12791
911.374	12776
911.489	12795
911.604	12722
911.718	12719
911.833	12570
911.947	12551
912.062	12452
912.176	12608
912.291	12642
912.405	12578
912.519	12779
912.633	12791
912.748	12620
912.862	12642
912.976	12536
913.09	12319
913.204	12399
913.318	12471
913.431	12589
913.545	12544
913.659	12521
913.772	12471
913.886	12247
914	12357
914.113	12414
914.226	12513
914.34	12414
914.453	12239
914.566	12403
914.68	12171
914.793	12228
914.906	12095
915.019	11958
915.132	11935
915.245	12003
915.358	12083
915.47	12060
915.583	12079
915.696	12076
915.809	12068
915.921	12209
916.034	12041
916.146	12030
916.259	11870
916.371	12038
916.483	12072
916.595	11855
916.708	11961
916.82	11950
916.932	11950
917.044	11790
917.156	11882
917.268	11813
917.38	11878
917.491	11775
917.603	11786
917.715	11961
917.826	11855
917.938	11790
918.049	11691
918.161	11779
918.272	11821
918.384	11901
918.495	11767
918.606	11680
918.717	11509
918.828	11695
918.939	11634
919.05	11512
919.161	11570
919.272	11410
919.383	11524
919.494	11649
919.604	11821
919.715	11668
919.826	11490
919.936	11562
920.047	11695
920.157	11596
920.267	11821
920.378	11676
920.488	11573
920.598	11779
920.708	11954
920.818	11783
920.928	11824
921.038	11946
921.148	11851
921.258	11657
921.368	11539
921.477	11467
921.587	11356
921.697	11273
921.806	11467
921.916	11376
922.025	11170
922.134	11064
922.244	11052
922.353	11143
922.462	10904
922.571	10885
922.68	10812
922.789	10744
922.898	10805
923.007	10786
923.116	10782
923.224	10721
923.333	10736
923.442	10656
923.55	10664
923.659	10683
923.767	10725
923.876	10516
923.984	10672
924.092	10500
924.201	10561
924.309	10573
924.417	10611
924.525	10512
924.633	10561
924.741	11284
924.849	10352
924.956	10519
925.064	10344
925.172	10306
925.279	10341
925.387	10352
925.494	10356
925.602	10561
925.709	10554
925.816	10230
925.924	10306
926.031	10436
926.138	10344
926.245	10371
926.352	10280
926.459	10398
926.566	10329
926.673	10246
926.779	10204
926.886	10185
926.993	10124
927.099	10032
927.206	9949
927.312	10010
927.419	10002
927.525	10071
927.631	10097
927.737	9869
927.843	9945
927.95	9842
928.056	9888
928.162	9880
928.267	9960
928.373	10580
928.479	9983
928.585	9740
928.69	9869
928.796	9884
928.901	9823
929.007	9648
929.112	9797
929.218	9899
929.323	9743
929.428	9793
929.533	9804
929.638	9648
929.743	9637
929.848	9720
929.953	9720
930.058	9610
930.163	9466
930.267	9450
930.372	9656
930.477	9389
930.581	9682
930.685	9454
930.79	9389
930.894	9466
930.998	9355
931.103	9511
931.207	9116
931.311	9138
931.415	9051
931.519	8834
931.623	8781
