Data from test_V78500241_1266.txt Node
Date: Fri Mar 25 14:42:31 CST 2022
User: usil
Spectrometer: V785-0024
Trigger mode: 0
Integration Time (sec): 4.000000E-1
Scans to average: 1
Nonlinearity correction enabled: false
Boxcar width: 0
Storing dark spectrum: false
XAxis mode: Wavelengths
Number of Pixels in Spectrum: 1024
>>>>>Begin Spectral Data<<<<<
801.071	22523
801.214	22280
801.356	21937
801.499	21930
801.641	21816
801.783	21663
801.926	21759
802.068	21629
802.211	21637
802.353	21519
802.496	21363
802.638	21245
802.78	21211
802.923	21142
803.065	21055
803.208	21043
803.35	21062
803.492	21142
803.635	21127
803.777	21070
803.919	21161
804.061	21466
804.204	21199
804.346	21036
804.488	20994
804.63	21058
804.773	20849
804.915	21051
805.057	21176
805.199	21055
805.341	20914
805.483	21104
805.626	21028
805.768	20948
805.91	20998
806.052	20967
806.194	20948
806.336	21119
806.478	20963
806.62	20998
806.762	21081
806.904	21252
807.046	21428
807.188	21268
807.33	21329
807.472	21397
807.614	21264
807.756	21279
807.898	21207
808.04	21074
808.182	21184
808.324	21237
808.465	21256
808.607	21477
808.749	21507
808.891	21675
809.033	21564
809.174	21557
809.316	21492
809.458	21507
809.6	21519
809.741	21485
809.883	21504
810.025	21557
810.166	21606
810.308	21542
810.45	21469
810.591	21336
810.733	21275
810.875	21245
811.016	21180
811.158	21070
811.299	21275
811.441	21378
811.582	21264
811.724	21135
811.865	21161
812.007	21233
812.148	21180
812.29	21135
812.431	21389
812.573	21481
812.714	21515
812.855	21606
812.997	21766
813.138	21762
813.279	21652
813.421	21812
813.562	21599
813.703	21538
813.845	21408
813.986	21066
814.127	20910
814.268	20785
814.41	20823
814.551	20796
814.692	20746
814.833	20621
814.974	20705
815.115	20746
815.256	20556
815.397	20537
815.539	20552
815.68	20552
815.821	20377
815.962	20526
816.103	20473
816.244	20218
816.385	20259
816.526	20191
816.666	20092
816.807	19883
816.948	20008
817.089	19894
817.23	19921
817.371	19841
817.512	19902
817.653	19803
817.793	19776
817.934	19902
818.075	19917
818.216	19879
818.356	19784
818.497	19719
818.638	19472
818.778	19521
818.919	19575
819.06	19632
819.2	19750
819.341	19601
819.481	19791
819.622	19887
819.762	20084
819.903	20016
820.043	19970
820.184	19925
820.324	19784
820.465	19928
820.605	19864
820.746	19818
820.886	19719
821.026	19925
821.167	19837
821.307	19944
821.447	19845
821.588	19700
821.728	19597
821.868	19407
822.008	19343
822.149	19282
822.289	19217
822.429	19057
822.569	18882
822.709	18935
822.849	18726
822.99	18833
823.13	18741
823.27	18722
823.41	18585
823.55	18506
823.69	18559
823.83	18631
823.97	18536
824.11	18304
824.25	18361
824.389	18407
824.529	18403
824.669	18452
824.809	18429
824.949	18361
825.089	18410
825.228	18346
825.368	18133
825.508	18098
825.648	18114
825.787	18209
825.927	18273
826.067	18194
826.206	18205
826.346	18190
826.485	18148
826.625	18098
826.765	18194
826.904	18121
827.044	17977
827.183	17863
827.323	17863
827.462	17859
827.601	17893
827.741	17794
827.88	17710
828.02	17676
828.159	17859
828.298	17794
828.437	17904
828.577	17729
828.716	17935
828.855	17813
828.994	17661
829.134	17570
829.273	17535
829.412	17627
829.551	17585
829.69	17592
829.829	17581
829.968	17623
830.107	17589
830.246	17512
830.385	17566
830.524	17459
830.663	17387
830.802	17277
830.941	17235
831.08	17193
831.219	17315
831.357	17315
831.496	17490
831.635	17117
831.774	17140
831.913	17086
832.051	16923
832.19	16930
832.329	17014
832.467	16980
832.606	16839
832.744	16968
832.883	16896
833.022	16889
833.16	16968
833.299	16938
833.437	16908
833.576	16938
833.714	16892
833.852	16980
833.991	17056
834.129	17132
834.267	16991
834.406	17064
834.544	17056
834.682	16976
834.821	16927
834.959	17197
835.097	16930
835.235	17014
835.373	16927
835.511	17014
835.65	16786
835.788	16892
835.926	16626
836.064	16698
836.202	16607
836.34	16987
836.478	16828
836.615	16904
836.753	16972
836.891	16923
837.029	16984
837.167	16885
837.305	16790
837.443	16721
837.58	16759
837.718	16889
837.856	16717
837.993	16599
838.131	16835
838.269	16710
838.406	16672
838.544	16656
838.681	16516
838.819	16409
838.956	16204
839.094	16299
839.231	16310
839.369	16440
839.506	16664
839.643	16462
839.781	16284
839.918	16287
840.055	16409
840.193	16265
840.33	16226
840.467	16242
840.604	16280
840.742	16558
840.879	16135
841.016	16192
841.153	16284
841.29	16386
841.427	16348
841.564	16314
841.701	16314
841.838	16211
841.975	16226
842.112	16207
842.249	16086
842.385	16147
842.522	16314
842.659	16017
842.796	15991
842.933	16036
843.069	15926
843.206	16082
843.343	16223
843.479	16010
843.616	16158
843.752	15854
843.889	15884
844.025	15949
844.162	15850
844.298	15964
844.435	15880
844.571	15861
844.708	15953
844.844	16116
844.98	16059
845.117	15945
845.253	15888
845.389	15720
845.525	15869
845.661	15903
845.798	15766
845.934	15842
846.07	15717
846.206	15842
846.342	15918
846.478	15717
846.614	15564
846.75	15420
846.886	15435
847.022	15428
847.158	15492
847.294	15420
847.429	15355
847.565	15424
847.701	15671
847.837	15214
847.972	15119
848.108	15329
848.244	15203
848.379	15150
848.515	15024
848.65	15020
848.786	15066
848.921	14986
849.057	15017
849.192	15237
849.328	15131
849.463	15127
849.598	14914
849.734	14956
849.869	14849
850.004	14788
850.14	14842
850.275	14785
850.41	14659
850.545	14785
850.68	14712
850.815	14773
850.95	14720
851.085	14998
851.22	14800
851.355	14815
851.49	14864
851.625	14815
851.76	14785
851.895	14773
852.03	14613
852.165	14724
852.299	14800
852.434	14906
852.569	14853
852.703	14864
852.838	14960
852.973	15028
853.107	14960
853.242	14792
853.376	14667
853.511	14564
853.645	14598
853.78	14682
853.914	14667
854.048	14644
854.183	14594
854.317	14705
854.451	14845
854.585	14583
854.72	14648
854.854	14739
854.988	14686
855.122	14640
855.256	14495
855.39	14712
855.524	14807
855.658	14689
855.792	14708
855.926	14655
856.06	14693
856.194	14720
856.327	14720
856.461	14545
856.595	14571
856.729	14617
856.862	14720
856.996	14727
857.13	14682
857.263	14792
857.397	14807
857.53	14697
857.664	14750
857.797	14708
857.931	14769
858.064	14659
858.197	14712
858.331	14686
858.464	14598
858.597	14465
858.731	14632
858.864	14648
858.997	14560
859.13	14708
859.263	14598
859.396	14746
859.529	14648
859.662	14560
859.795	14705
859.928	14697
860.061	14781
860.194	14887
860.327	14629
860.46	14693
860.592	14667
860.725	14880
860.858	14773
860.99	14697
861.123	14648
861.256	14629
861.388	14648
861.521	15340
861.653	14499
861.786	14454
861.918	14457
862.05	14575
862.183	14632
862.315	14701
862.447	14682
862.58	14488
862.712	14362
862.844	14377
862.976	14461
863.108	14454
863.24	14921
863.372	14294
863.504	14355
863.636	14495
863.768	14389
863.9	14484
864.032	14370
864.164	14461
864.296	14469
864.428	14507
864.559	14533
864.691	14465
864.823	14473
864.954	14393
865.086	14514
865.217	14450
865.349	14298
865.48	14385
865.612	14438
865.743	14610
865.875	14415
866.006	14404
866.137	14415
866.269	14294
866.4	14454
866.531	14355
866.662	14419
866.793	14355
866.924	14454
867.055	14556
867.186	14396
867.317	14320
867.448	14389
867.579	14271
867.71	14301
867.841	14347
867.972	14290
868.103	14469
868.233	14465
868.364	14385
868.495	14415
868.625	14598
868.756	14678
868.886	14594
869.017	14583
869.147	14708
869.278	14826
869.408	14682
869.539	14731
869.669	14800
869.799	14731
869.929	14682
870.06	14773
870.19	14914
870.32	14998
870.45	14914
870.58	15039
870.71	15161
870.84	15150
870.97	15013
871.1	15039
871.23	15249
871.36	15127
871.489	15104
871.619	15199
871.749	15260
871.879	15340
872.008	15412
872.138	15176
872.267	15249
872.397	14994
872.526	15055
872.656	15055
872.785	15108
872.915	15154
873.044	15367
873.173	15298
873.303	15367
873.432	15313
873.561	15351
873.69	15325
873.819	15294
873.948	15393
874.077	15294
874.206	15317
874.335	15344
874.464	15481
874.593	15561
874.722	15599
874.851	15572
874.979	15637
875.108	15637
875.237	15561
875.365	15473
875.494	15523
875.623	15831
875.751	15656
875.88	15682
876.008	15618
876.136	15846
876.265	15941
876.393	16211
876.521	16131
876.65	15983
876.778	16086
876.906	16032
877.034	15926
877.162	16021
877.29	15876
877.418	16017
877.546	16048
877.674	16017
877.802	16029
877.93	15983
878.058	15903
878.185	15816
878.313	16055
878.441	16021
878.568	15899
878.696	15918
878.824	16021
878.951	16124
879.079	16310
879.206	16379
879.333	16211
879.461	16109
879.588	16215
879.715	16188
879.842	16379
879.97	16097
880.097	16006
880.224	15880
880.351	15888
880.478	15816
880.605	15812
880.732	15903
880.859	16063
880.986	15819
881.112	15850
881.239	15698
881.366	15713
881.493	15629
881.619	15568
881.746	15504
881.872	15515
881.999	15504
882.125	15557
882.252	15530
882.378	15530
882.505	15774
882.631	15408
882.757	15359
882.883	15428
883.01	15306
883.136	15416
883.262	15279
883.388	15313
883.514	15340
883.64	15473
883.766	15272
883.892	15287
884.018	15119
884.143	15313
884.269	15443
884.395	15142
884.52	14986
884.646	15116
884.772	15024
884.897	14963
885.023	15161
885.148	15081
885.274	15272
885.399	15127
885.524	15039
885.65	15100
885.775	15028
885.9	15085
886.025	15135
886.15	15119
886.275	14956
886.4	15009
886.525	15089
886.65	14994
886.775	14994
886.9	15066
887.025	15359
887.149	15112
887.274	14826
887.399	14914
887.523	14899
887.648	14861
887.773	14792
887.897	14967
888.021	14937
888.146	14914
888.27	14982
888.395	15062
888.519	14880
888.643	14941
888.767	14967
888.891	14864
889.015	14640
889.139	14815
889.263	14746
889.387	14796
889.511	14880
889.635	14788
889.759	14705
889.883	14750
890.006	14800
890.13	14883
890.254	14682
890.377	14716
890.501	14583
890.624	14377
890.748	14571
890.871	14454
890.995	14294
891.118	14374
891.241	14499
891.364	14446
891.488	14507
891.611	14457
891.734	14366
891.857	14488
891.98	14404
892.103	14522
892.226	14431
892.349	14389
892.471	14161
892.594	14404
892.717	14480
892.839	14556
892.962	14396
893.085	14450
893.207	14423
893.33	14305
893.452	14396
893.575	14488
893.697	14336
893.819	14617
893.941	14610
894.064	14492
894.186	14362
894.308	14412
894.43	14476
894.552	14560
894.674	14518
894.796	14412
894.918	14377
895.04	14404
895.161	14606
895.283	14454
895.405	14499
895.526	14526
895.648	14560
895.769	14545
895.891	14476
896.012	14549
896.134	14575
896.255	14560
896.376	14583
896.498	14549
896.619	14659
896.74	14587
896.861	14636
896.982	14952
897.103	15081
897.224	14902
897.345	14815
897.466	14735
897.587	14708
897.708	14925
897.828	14823
897.949	14743
898.07	14712
898.19	14655
898.311	14933
898.431	14861
898.552	14944
898.672	14990
898.792	14994
898.913	15039
899.033	14842
899.153	14746
899.273	14655
899.393	14758
899.513	14743
899.633	14785
899.753	14758
899.873	14800
899.993	14868
900.113	14746
900.232	14830
900.352	14651
900.472	14754
900.591	14568
900.711	14720
900.83	14568
900.95	14632
901.069	14743
901.189	14404
901.308	14396
901.427	14271
901.546	14263
901.665	14377
901.784	14343
901.904	14195
902.023	14149
902.141	13894
902.26	13818
902.379	13959
902.498	13944
902.617	13772
902.735	13913
902.854	13890
902.973	13814
903.091	13559
903.21	13567
903.328	13544
903.446	13525
903.565	13487
903.683	13518
903.801	13301
903.919	13434
904.038	13403
904.156	13289
904.274	13346
904.392	13209
904.51	13179
904.627	13141
904.745	13304
904.863	13259
904.981	13114
905.098	12897
905.216	12970
905.334	13095
905.451	13019
905.569	12985
905.686	12863
905.803	12894
905.921	12722
906.038	12806
906.155	12795
906.272	12608
906.389	12749
906.506	12483
906.623	12547
906.74	12574
906.857	12414
906.974	12437
907.091	12589
907.208	12677
907.324	12646
907.441	12418
907.557	12296
907.674	12300
907.79	12273
907.907	12266
908.023	12235
908.139	12239
908.256	12243
908.372	12182
908.488	12129
908.604	12034
908.72	11996
908.836	12064
908.952	12026
909.068	12015
909.184	12091
909.3	12068
909.415	12163
909.531	12083
909.647	11859
909.762	11771
909.878	11752
909.993	11794
910.108	11783
910.224	11802
910.339	11771
910.454	11764
910.57	11691
910.685	11611
910.8	11805
910.915	11741
911.03	11627
911.145	11486
911.259	11433
911.374	11497
911.489	11425
911.604	11345
911.718	11204
911.833	11227
911.947	11105
912.062	11102
912.176	11220
912.291	11315
912.405	11174
912.519	11330
912.633	11501
912.748	11284
912.862	11231
912.976	11162
913.09	11060
913.204	11117
913.318	11102
913.431	11296
913.545	11178
913.659	11178
913.772	11105
913.886	11064
914	10968
914.113	11094
914.226	11109
914.34	11003
914.453	10904
914.566	11140
914.68	10877
914.793	10949
914.906	10774
915.019	10736
915.132	10653
915.245	10675
915.358	10622
915.47	10763
915.583	10687
915.696	10744
915.809	10869
915.921	10869
916.034	10733
916.146	10653
916.259	10653
916.371	10767
916.483	10656
916.595	10626
916.708	10565
916.82	10622
916.932	10615
917.044	10542
917.156	10637
917.268	10588
917.38	10611
917.491	10485
917.603	10531
917.715	10653
917.826	10577
917.938	10493
918.049	10466
918.161	10550
918.272	10664
918.384	10599
918.495	10592
918.606	10398
918.717	10360
918.828	10451
918.939	10424
919.05	10398
919.161	10447
919.272	10230
919.383	10272
919.494	10402
919.604	10660
919.715	10470
919.826	10390
919.936	10409
920.047	10535
920.157	10493
920.267	10668
920.378	10405
920.488	10443
920.598	10626
920.708	10725
920.818	10615
920.928	10641
921.038	10771
921.148	10748
921.258	10478
921.368	10356
921.477	10363
921.587	10242
921.697	10147
921.806	10211
921.916	10128
922.025	9994
922.134	10040
922.244	9880
922.353	10048
922.462	9880
922.571	9831
922.68	9728
922.789	9751
922.898	9652
923.007	9671
923.116	9641
923.224	9660
923.333	9599
923.442	9557
923.55	9557
923.659	9606
923.767	9625
923.876	9622
923.984	9603
924.092	9526
924.201	9530
924.309	9557
924.417	9549
924.525	9389
924.633	9591
924.741	10253
924.849	9264
924.956	9477
925.064	9386
925.172	9249
925.279	9287
925.387	9249
925.494	9355
925.602	9424
925.709	9439
925.816	9218
925.924	9363
926.031	9378
926.138	9310
926.245	9428
926.352	9233
926.459	9363
926.566	9466
926.673	9332
926.779	9165
926.886	9180
926.993	9062
927.099	9024
927.206	9043
927.312	9043
927.419	9097
927.525	9024
927.631	9108
927.737	8963
927.843	8868
927.95	8758
928.056	8891
928.162	8960
928.267	8944
928.373	9584
928.479	9070
928.585	8781
928.69	8864
928.796	8887
928.901	8868
929.007	8693
929.112	8834
929.218	8887
929.323	8670
929.428	8762
929.533	8910
929.638	8758
929.743	8697
929.848	8766
929.953	8689
930.058	8594
930.163	8465
930.267	8434
930.372	8701
930.477	8492
930.581	8731
930.685	8598
930.79	8396
930.894	8400
930.998	8450
931.103	8575
931.207	8256
931.311	8134
931.415	8153
931.519	7894
931.623	7906
