Data from test_V78500241_310.txt Node
Date: Fri Mar 25 14:35:52 CST 2022
User: usil
Spectrometer: V785-0024
Trigger mode: 0
Integration Time (sec): 4.000000E-1
Scans to average: 1
Nonlinearity correction enabled: false
Boxcar width: 0
Storing dark spectrum: false
XAxis mode: Wavelengths
Number of Pixels in Spectrum: 1024
>>>>>Begin Spectral Data<<<<<
801.071	27085
801.214	26948
801.356	26708
801.499	26644
801.641	26609
801.783	26503
801.926	26609
802.068	26530
802.211	26396
802.353	26313
802.496	26107
802.638	26263
802.78	26259
802.923	26081
803.065	26096
803.208	25883
803.35	26016
803.492	26122
803.635	26153
803.777	26031
803.919	26244
804.061	26385
804.204	26301
804.346	25989
804.488	25974
804.63	25970
804.773	25955
804.915	25940
805.057	26145
805.199	26069
805.341	26035
805.483	26130
805.626	26161
805.768	26031
805.91	25989
806.052	26073
806.194	25982
806.336	26339
806.478	26271
806.62	25970
806.762	26142
806.904	26393
807.046	26442
807.188	26533
807.33	26469
807.472	26492
807.614	26298
807.756	26469
807.898	26347
808.04	26233
808.182	26381
808.324	26328
808.465	26358
808.607	26648
808.749	26697
808.891	26819
809.033	26834
809.174	26568
809.316	26735
809.458	26606
809.6	26686
809.741	26727
809.883	26587
810.025	26735
810.166	26857
810.308	26739
810.45	26765
810.591	26796
810.733	26556
810.875	26469
811.016	26278
811.158	26343
811.299	26457
811.441	26590
811.582	26644
811.724	26541
811.865	26457
812.007	26393
812.148	26446
812.29	26438
812.431	26617
812.573	26834
812.714	26842
812.855	26819
812.997	26914
813.138	27112
813.279	27017
813.421	26800
813.562	26861
813.703	26826
813.845	26583
813.986	26393
814.127	26164
814.268	26050
814.41	26001
814.551	26008
814.692	26149
814.833	25925
814.974	26031
815.115	26050
815.256	25791
815.397	25822
815.539	25894
815.68	25791
815.821	25791
815.962	25936
816.103	25826
816.244	25605
816.385	25647
816.526	25491
816.666	25304
816.807	25129
816.948	25282
817.089	25179
817.23	25072
817.371	25179
817.512	25145
817.653	25148
817.793	25206
817.934	25095
818.075	25145
818.216	25183
818.356	25080
818.497	24992
818.638	24833
818.778	24798
818.919	24817
819.06	24753
819.2	24897
819.341	25091
819.481	25046
819.622	25327
819.762	25453
819.903	25202
820.043	25129
820.184	25194
820.324	25095
820.465	25107
820.605	25171
820.746	25129
820.886	25008
821.026	25019
821.167	25038
821.307	25015
821.447	24928
821.588	24954
821.728	24738
821.868	24627
822.008	24498
822.149	24464
822.289	24456
822.429	24174
822.569	24182
822.709	24121
822.849	23893
822.99	23897
823.13	23920
823.27	23939
823.41	23691
823.55	23680
823.69	23608
823.83	23661
823.97	23623
824.11	23585
824.25	23543
824.389	23360
824.529	23505
824.669	23539
824.809	23634
824.949	23528
825.089	23486
825.228	23368
825.368	23261
825.508	23159
825.648	23307
825.787	23204
825.927	23402
826.067	23227
826.206	23296
826.346	23326
826.485	23269
826.625	23246
826.765	23417
826.904	23334
827.044	23086
827.183	23159
827.323	22885
827.462	22984
827.601	22968
827.741	23071
827.88	22927
828.02	22797
828.159	22809
828.298	22896
828.437	22946
828.577	22953
828.716	22904
828.855	22877
828.994	22649
829.134	22717
829.273	22679
829.412	22691
829.551	22641
829.69	22740
829.829	22672
829.968	22763
830.107	22615
830.246	22592
830.385	22683
830.524	22599
830.663	22295
830.802	22402
830.941	22219
831.08	22226
831.219	22379
831.357	22238
831.496	22341
831.635	22284
831.774	22158
831.913	22112
832.051	22082
832.19	22032
832.329	22044
832.467	21880
832.606	21854
832.744	21743
832.883	21884
833.022	21876
833.16	21831
833.299	21713
833.437	21770
833.576	21838
833.714	21968
833.852	21895
833.991	21899
834.129	21846
834.267	21953
834.406	21854
834.544	21876
834.682	21983
834.821	21934
834.959	22055
835.097	21789
835.235	21861
835.373	21903
835.511	21800
835.65	21747
835.788	21694
835.926	21530
836.064	21549
836.202	21553
836.34	21724
836.478	21793
836.615	21816
836.753	21675
836.891	21736
837.029	21766
837.167	21591
837.305	21656
837.443	21545
837.58	21652
837.718	21656
837.856	21622
837.993	21485
838.131	21564
838.269	21370
838.406	21477
838.544	21397
838.681	21173
838.819	21108
838.956	21005
839.094	20971
839.231	21104
839.369	21157
839.506	21310
839.643	21306
839.781	20986
839.918	20864
840.055	20944
840.193	20872
840.33	20834
840.467	21077
840.604	20906
840.742	21146
840.879	20750
841.016	20880
841.153	20765
841.29	21005
841.427	20880
841.564	20906
841.701	20994
841.838	20883
841.975	20804
842.112	20644
842.249	20727
842.385	20632
842.522	20727
842.659	20609
842.796	20568
842.933	20629
843.069	20564
843.206	20575
843.343	20571
843.479	20617
843.616	20552
843.752	20385
843.889	20393
844.025	20609
844.162	20396
844.298	20454
844.435	20339
844.571	20431
844.708	20419
844.844	20560
844.98	20495
845.117	20423
845.253	20271
845.389	20256
845.525	20317
845.661	20393
845.798	20176
845.934	20248
846.07	20210
846.206	20294
846.342	20324
846.478	20134
846.614	20043
846.75	19837
846.886	19841
847.022	19875
847.158	19833
847.294	19776
847.429	19833
847.565	19799
847.701	20016
847.837	19727
847.972	19521
848.108	19567
848.244	19597
848.379	19392
848.515	19304
848.65	19430
848.786	19468
848.921	19434
849.057	19419
849.192	19396
849.328	19422
849.463	19381
849.598	19293
849.734	19282
849.869	19190
850.004	19114
850.14	19293
850.275	19164
850.41	19015
850.545	19072
850.68	19129
850.815	19217
850.95	19114
851.085	19217
851.22	19198
851.355	19247
851.49	19183
851.625	19107
851.76	19099
851.895	18928
852.03	19091
852.165	19099
852.299	19209
852.434	19145
852.569	19152
852.703	19012
852.838	19137
852.973	19206
853.107	19244
853.242	19141
853.376	18913
853.511	18852
853.645	18913
853.78	18985
853.914	18977
854.048	18817
854.183	18844
854.317	19023
854.451	19042
854.585	18901
854.72	18905
854.854	19145
854.988	18833
855.122	18993
855.256	18829
855.39	19004
855.524	19072
855.658	19034
855.792	18924
855.926	18928
856.06	19012
856.194	19053
856.327	18920
856.461	18817
856.595	18882
856.729	18817
856.862	18947
856.996	18966
857.13	18970
857.263	18993
857.397	18966
857.53	18833
857.664	18935
857.797	18852
857.931	18958
858.064	18920
858.197	19004
858.331	18905
858.464	18802
858.597	18806
858.731	18821
858.864	18825
858.997	18863
859.13	18840
859.263	18867
859.396	18928
859.529	18810
859.662	18848
859.795	18848
859.928	18814
860.061	18966
860.194	18996
860.327	18791
860.46	18958
860.592	18981
860.725	19053
860.858	19004
860.99	18882
861.123	18764
861.256	18711
861.388	18810
861.521	19628
861.653	18711
861.786	18688
861.918	18776
862.05	18821
862.183	18920
862.315	18932
862.447	19008
862.58	18859
862.712	18688
862.844	18566
862.976	18757
863.108	18658
863.24	18844
863.372	18521
863.504	18639
863.636	18494
863.768	18696
863.9	18536
864.032	18528
864.164	18612
864.296	18551
864.428	18711
864.559	18642
864.691	18677
864.823	18661
864.954	18585
865.086	18532
865.217	18410
865.349	18422
865.48	18399
865.612	18471
865.743	18669
865.875	18517
866.006	18467
866.137	18433
866.269	18475
866.4	18433
866.531	18262
866.662	18448
866.793	18426
866.924	18437
867.055	18410
867.186	18521
867.317	18414
867.448	18346
867.579	18323
867.71	18330
867.841	18342
867.972	18525
868.103	18380
868.233	18410
868.364	18410
868.495	18544
868.625	18711
868.756	18677
868.886	18559
869.017	18703
869.147	18768
869.278	18821
869.408	18646
869.539	18593
869.669	18798
869.799	18627
869.929	18817
870.06	18810
870.19	18920
870.32	18977
870.45	18928
870.58	18954
870.71	19206
870.84	19118
870.97	18970
871.1	19000
871.23	19263
871.36	19198
871.489	19187
871.619	19244
871.749	19247
871.879	19312
872.008	19346
872.138	19312
872.267	19266
872.397	19088
872.526	19072
872.656	19122
872.785	19091
872.915	19198
873.044	19373
873.173	19247
873.303	19301
873.432	19263
873.561	19335
873.69	19282
873.819	19312
873.948	19407
874.077	19289
874.206	19225
874.335	19308
874.464	19441
874.593	19639
874.722	19533
874.851	19529
874.979	19624
875.108	19559
875.237	19571
875.365	19529
875.494	19434
875.623	19552
875.751	19483
875.88	19434
876.008	19655
876.136	19807
876.265	19993
876.393	20130
876.521	20050
876.65	19986
876.778	20096
876.906	19890
877.034	19788
877.162	19871
877.29	19833
877.418	19982
877.546	19887
877.674	19940
877.802	19986
877.93	19951
878.058	19875
878.185	19734
878.313	19902
878.441	20043
878.568	19738
878.696	20001
878.824	19879
878.951	19982
879.079	20130
879.206	20267
879.333	20138
879.461	20050
879.588	20073
879.715	20065
879.842	20149
879.97	20157
880.097	19826
880.224	19833
880.351	19936
880.478	19780
880.605	19791
880.732	19681
880.859	20122
880.986	19753
881.112	19811
881.239	19708
881.366	19544
881.493	19396
881.619	19301
881.746	19521
881.872	19422
881.999	19419
882.125	19285
882.252	19445
882.378	19373
882.505	19491
882.631	19384
882.757	19228
882.883	19244
883.01	19244
883.136	19263
883.262	19023
883.388	18954
883.514	19187
883.64	19133
883.766	19110
883.892	19053
884.018	19015
884.143	19251
884.269	19228
884.395	18875
884.52	18772
884.646	18719
884.772	18673
884.897	18661
885.023	18867
885.148	18920
885.274	19034
885.399	18913
885.524	18867
885.65	18798
885.775	18856
885.9	18810
886.025	18863
886.15	18817
886.275	18779
886.4	18719
886.525	18833
886.65	18707
886.775	18650
886.9	18886
887.025	19023
887.149	18650
887.274	18635
887.399	18563
887.523	18479
887.648	18517
887.773	18433
887.897	18749
888.021	18681
888.146	18555
888.27	18734
888.395	18684
888.519	18551
888.643	18688
888.767	18692
888.891	18525
889.015	18262
889.139	18494
889.263	18452
889.387	18486
889.511	18528
889.635	18407
889.759	18258
889.883	18376
890.006	18338
890.13	18414
890.254	18258
890.377	18277
890.501	18144
890.624	18041
890.748	18205
890.871	18060
890.995	17984
891.118	17946
891.241	18003
891.364	17950
891.488	18045
891.611	17973
891.734	17999
891.857	18053
891.98	17980
892.103	18144
892.226	18007
892.349	17984
892.471	17756
892.594	17904
892.717	17973
892.839	17927
892.962	17920
893.085	18019
893.207	17980
893.33	17771
893.452	17927
893.575	17973
893.697	17923
893.819	18129
893.941	18068
894.064	18045
894.186	17916
894.308	17676
894.43	17984
894.552	18136
894.674	18041
894.796	17798
894.918	18053
895.04	17904
895.161	18045
895.283	18041
895.405	17878
895.526	17973
895.648	17965
895.769	18072
895.891	18049
896.012	18022
896.134	18011
896.255	18053
896.376	17859
896.498	18038
896.619	18072
896.74	17980
896.861	18064
896.982	18247
897.103	18544
897.224	18304
897.345	18220
897.466	18270
897.587	18239
897.708	18300
897.828	18213
897.949	18216
898.07	17992
898.19	18167
898.311	18281
898.431	18323
898.552	18140
898.672	18239
898.792	18365
898.913	18220
899.033	18254
899.153	18003
899.273	17893
899.393	18038
899.513	18178
899.633	17916
899.753	17999
899.873	17984
899.993	18007
900.113	18026
900.232	17901
900.352	17809
900.472	17882
900.591	17714
900.711	17851
900.83	17828
900.95	17889
901.069	17935
901.189	17775
901.308	17459
901.427	17501
901.546	17581
901.665	17493
901.784	17452
901.904	17322
902.023	17280
902.141	17079
902.26	16972
902.379	17041
902.498	16923
902.617	16908
902.735	16946
902.854	16949
902.973	16968
903.091	16675
903.21	16592
903.328	16622
903.446	16577
903.565	16462
903.683	16493
903.801	16344
903.919	16375
904.038	16329
904.156	16295
904.274	16348
904.392	16249
904.51	16181
904.627	16280
904.745	16257
904.863	16246
904.981	15960
905.098	15968
905.216	15915
905.334	15945
905.451	15926
905.569	15903
905.686	15960
905.803	15869
905.921	15720
906.038	15816
906.155	15770
906.272	15610
906.389	15466
906.506	15553
906.623	15477
906.74	15412
906.857	15321
906.974	15450
907.091	15481
907.208	15553
907.324	15405
907.441	15329
907.557	15226
907.674	15211
907.79	15097
907.907	15161
908.023	15146
908.139	15085
908.256	15032
908.372	15108
908.488	14990
908.604	14918
908.72	14883
908.836	14819
908.952	14834
909.068	14902
909.184	14967
909.3	14781
909.415	14864
909.531	14815
909.647	14613
909.762	14590
909.878	14526
909.993	14636
910.108	14587
910.224	14606
910.339	14617
910.454	14434
910.57	14450
910.685	14336
910.8	14674
910.915	14419
911.03	14560
911.145	14233
911.259	14240
911.374	14069
911.489	14126
911.604	14084
911.718	13921
911.833	14024
911.947	13818
912.062	13803
912.176	13818
912.291	13986
912.405	13940
912.519	14157
912.633	14073
912.748	13982
912.862	13928
912.976	13822
913.09	13628
913.204	13681
913.318	13750
913.431	13894
913.545	13875
913.659	13898
913.772	13780
913.886	13647
914	13559
914.113	13731
914.226	13655
914.34	13666
914.453	13422
914.566	13689
914.68	13518
914.793	13491
914.906	13324
915.019	13320
915.132	13198
915.245	13236
915.358	13335
915.47	13297
915.583	13225
915.696	13312
915.809	13358
915.921	13274
916.034	13308
916.146	13213
916.259	13164
916.371	13289
916.483	13247
916.595	13069
916.708	13118
916.82	13152
916.932	13107
917.044	13110
917.156	13027
917.268	12947
917.38	13004
917.491	13019
917.603	12935
917.715	13023
917.826	13095
917.938	12932
918.049	12833
918.161	12973
918.272	13110
918.384	13046
918.495	12886
918.606	12772
918.717	12821
918.828	12844
918.939	12764
919.05	12726
919.161	12681
919.272	12490
919.383	12673
919.494	12875
919.604	12973
919.715	12779
919.826	12654
919.936	12707
920.047	12924
920.157	12738
920.267	12981
920.378	12802
920.488	12757
920.598	12905
920.708	13031
920.818	12935
920.928	12882
921.038	13122
921.148	12920
921.258	12734
921.368	12688
921.477	12578
921.587	12464
921.697	12361
921.806	12513
921.916	12342
922.025	12205
922.134	12258
922.244	12148
922.353	12220
922.462	12038
922.571	11980
922.68	11771
922.789	11874
922.898	11851
923.007	11836
923.116	11851
923.224	11783
923.333	11764
923.442	11657
923.55	11608
923.659	11638
923.767	11821
923.876	11604
923.984	11733
924.092	11532
924.201	11604
924.309	11638
924.417	11592
924.525	11467
924.633	11554
924.741	12304
924.849	11318
924.956	11543
925.064	11356
925.172	11181
925.279	11307
925.387	11387
925.494	11311
925.602	11535
925.709	11379
925.816	11258
925.924	11273
926.031	11417
926.138	11303
926.245	11334
926.352	11223
926.459	11421
926.566	11322
926.673	11162
926.779	11060
926.886	11083
926.993	10900
927.099	10987
927.206	10900
927.312	10942
927.419	10976
927.525	10927
927.631	11048
927.737	10816
927.843	10839
927.95	10774
928.056	10744
928.162	10793
928.267	10877
928.373	11455
928.479	10927
928.585	10599
928.69	10843
928.796	10816
928.901	10714
929.007	10546
929.112	10748
929.218	10592
929.323	10580
929.428	10535
929.533	10675
929.638	10508
929.743	10531
929.848	10554
929.953	10447
930.058	10436
930.163	10333
930.267	10280
930.372	10470
930.477	10306
930.581	10489
930.685	10390
930.79	10234
930.894	10249
930.998	10150
931.103	10227
931.207	9979
931.311	9903
931.415	9793
931.519	9644
931.623	9618
