Data from test_V78500241_3450.txt Node
Date: Fri Mar 25 14:57:44 CST 2022
User: usil
Spectrometer: V785-0024
Trigger mode: 0
Integration Time (sec): 4.000000E-1
Scans to average: 1
Nonlinearity correction enabled: false
Boxcar width: 0
Storing dark spectrum: false
XAxis mode: Wavelengths
Number of Pixels in Spectrum: 1024
>>>>>Begin Spectral Data<<<<<
801.071	21895
801.214	21797
801.356	21694
801.499	21488
801.641	21264
801.783	21325
801.926	21291
802.068	21268
802.211	21138
802.353	20963
802.496	20861
802.638	20887
802.78	20739
802.923	20648
803.065	20545
803.208	20568
803.35	20545
803.492	20743
803.635	20727
803.777	20659
803.919	20830
804.061	20941
804.204	20655
804.346	20621
804.488	20526
804.63	20556
804.773	20442
804.915	20450
805.057	20625
805.199	20495
805.341	20590
805.483	20659
805.626	20648
805.768	20514
805.91	20457
806.052	20480
806.194	20385
806.336	20746
806.478	20552
806.62	20511
806.762	20636
806.904	20678
807.046	20921
807.188	20914
807.33	20849
807.472	21039
807.614	20724
807.756	20769
807.898	20621
808.04	20579
808.182	20530
808.324	20518
808.465	20552
808.607	20811
808.749	20823
808.891	20853
809.033	20960
809.174	20979
809.316	20842
809.458	20899
809.6	20788
809.741	20933
809.883	20979
810.025	21089
810.166	20956
810.308	21085
810.45	20998
810.591	20807
810.733	20769
810.875	20629
811.016	20621
811.158	20480
811.299	20769
811.441	20716
811.582	20750
811.724	20571
811.865	20609
812.007	20629
812.148	20571
812.29	20792
812.431	20914
812.573	20857
812.714	21005
812.855	21165
812.997	21272
813.138	21310
813.279	21165
813.421	21138
813.562	21108
813.703	20849
813.845	20625
813.986	20648
814.127	20336
814.268	20164
814.41	20282
814.551	20191
814.692	20225
814.833	20119
814.974	20221
815.115	20065
815.256	20012
815.397	20077
815.539	20031
815.68	19875
815.821	19879
815.962	19951
816.103	19944
816.244	19670
816.385	19708
816.526	19620
816.666	19491
816.807	19263
816.948	19335
817.089	19365
817.23	19400
817.371	19407
817.512	19263
817.653	19358
817.793	19259
817.934	19301
818.075	19339
818.216	19304
818.356	19187
818.497	19259
818.638	18886
818.778	18970
818.919	19133
819.06	19061
819.2	19183
819.341	19244
819.481	19015
819.622	19396
819.762	19480
819.903	19411
820.043	19312
820.184	19343
820.324	19209
820.465	19320
820.605	19388
820.746	19343
820.886	19217
821.026	19297
821.167	19278
821.307	19282
821.447	19236
821.588	19080
821.728	18977
821.868	18970
822.008	18779
822.149	18681
822.289	18661
822.429	18437
822.569	18483
822.709	18426
822.849	18262
822.99	18292
823.13	18201
823.27	18095
823.41	17942
823.55	17969
823.69	18034
823.83	18057
823.97	17942
824.11	17786
824.25	17691
824.389	17756
824.529	17767
824.669	17836
824.809	17821
824.949	17855
825.089	17760
825.228	17707
825.368	17585
825.508	17596
825.648	17512
825.787	17520
825.927	17585
826.067	17577
826.206	17471
826.346	17448
826.485	17482
826.625	17577
826.765	17710
826.904	17577
827.044	17261
827.183	17273
827.323	17254
827.462	17296
827.601	17204
827.741	17223
827.88	17227
828.02	17083
828.159	17147
828.298	17235
828.437	17353
828.577	17128
828.716	17387
828.855	17197
828.994	17022
829.134	17022
829.273	17037
829.412	16957
829.551	16923
829.69	17041
829.829	17048
829.968	17185
830.107	16980
830.246	17018
830.385	16892
830.524	16828
830.663	16782
830.802	16713
830.941	16664
831.08	16588
831.219	16687
831.357	16664
831.496	16862
831.635	16637
831.774	16508
831.913	16474
832.051	16421
832.19	16447
832.329	16474
832.467	16276
832.606	16291
832.744	16299
832.883	16257
833.022	16265
833.16	16379
833.299	16375
833.437	16253
833.576	16287
833.714	16421
833.852	16455
833.991	16356
834.129	16432
834.267	16535
834.406	16363
834.544	16379
834.682	16459
834.821	16493
834.959	16447
835.097	16428
835.235	16516
835.373	16481
835.511	16432
835.65	16287
835.788	16276
835.926	16162
836.064	16093
836.202	16105
836.34	16344
836.478	16268
836.615	16284
836.753	16333
836.891	16398
837.029	16352
837.167	16318
837.305	16204
837.443	16223
837.58	16147
837.718	16196
837.856	16177
837.993	16226
838.131	16188
838.269	16169
838.406	16097
838.544	16074
838.681	16013
838.819	15873
838.956	15774
839.094	15629
839.231	15846
839.369	15880
839.506	16219
839.643	16032
839.781	15743
839.918	15709
840.055	15778
840.193	15766
840.33	15766
840.467	15709
840.604	15698
840.742	16013
840.879	15572
841.016	15667
841.153	15705
841.29	15876
841.427	15850
841.564	15762
841.701	15804
841.838	15656
841.975	15538
842.112	15633
842.249	15557
842.385	15641
842.522	15709
842.659	15656
842.796	15485
842.933	15523
843.069	15469
843.206	15500
843.343	15599
843.479	15458
843.616	15469
843.752	15348
843.889	15211
844.025	15469
844.162	15344
844.298	15439
844.435	15279
844.571	15230
844.708	15291
844.844	15488
844.98	15477
845.117	15481
845.253	15249
845.389	15188
845.525	15230
845.661	15226
845.798	15020
845.934	15157
846.07	15081
846.206	15245
846.342	15184
846.478	15199
846.614	14933
846.75	14781
846.886	14800
847.022	14944
847.158	14906
847.294	14857
847.429	14906
847.565	14864
847.701	15119
847.837	14663
847.972	14621
848.108	14792
848.244	14701
848.379	14526
848.515	14537
848.65	14347
848.786	14438
848.921	14503
849.057	14564
849.192	14682
849.328	14537
849.463	14541
849.598	14511
849.734	14431
849.869	14267
850.004	14332
850.14	14351
850.275	14252
850.41	14153
850.545	14233
850.68	14206
850.815	14218
850.95	14199
851.085	14438
851.22	14377
851.355	14256
851.49	14202
851.625	14347
851.76	14176
851.895	14210
852.03	14206
852.165	14229
852.299	14259
852.434	14454
852.569	14263
852.703	14298
852.838	14415
852.973	14514
853.107	14434
853.242	14298
853.376	14183
853.511	14054
853.645	14088
853.78	14317
853.914	14145
854.048	14172
854.183	14153
854.317	14180
854.451	14377
854.585	14172
854.72	14088
854.854	14275
854.988	14111
855.122	14172
855.256	13993
855.39	14199
855.524	14271
855.658	14199
855.792	14256
855.926	14195
856.06	14347
856.194	14298
856.327	14119
856.461	14214
856.595	14039
856.729	14183
856.862	14278
856.996	14202
857.13	14229
857.263	14267
857.397	14282
857.53	14161
857.664	14187
857.797	14263
857.931	14252
858.064	14176
858.197	14278
858.331	14172
858.464	14191
858.597	14031
858.731	14187
858.864	14130
858.997	14107
859.13	14187
859.263	14244
859.396	14172
859.529	14111
859.662	14092
859.795	14138
859.928	14187
860.061	14328
860.194	14267
860.327	14161
860.46	14145
860.592	14202
860.725	14248
860.858	14240
860.99	14130
861.123	14084
861.256	14157
861.388	14210
861.521	14906
861.653	14027
861.786	13978
861.918	13982
862.05	14058
862.183	14153
862.315	14164
862.447	14195
862.58	14119
862.712	13963
862.844	13932
862.976	14046
863.108	13978
863.24	14400
863.372	13868
863.504	13932
863.636	13894
863.768	14062
863.9	13967
864.032	13936
864.164	13814
864.296	14016
864.428	13890
864.559	14005
864.691	14016
864.823	14065
864.954	13944
865.086	13925
865.217	13993
865.349	13864
865.48	13860
865.612	13913
865.743	14115
865.875	13982
866.006	13909
866.137	14005
866.269	13807
866.4	13856
866.531	13807
866.662	13894
866.793	13864
866.924	13959
867.055	13932
867.186	13955
867.317	13868
867.448	13803
867.579	13837
867.71	13750
867.841	13818
867.972	13963
868.103	13830
868.233	13898
868.364	13944
868.495	14008
868.625	14149
868.756	14259
868.886	14138
869.017	14164
869.147	14404
869.278	14309
869.408	14256
869.539	14145
869.669	14259
869.799	14225
869.929	14298
870.06	14256
870.19	14442
870.32	14541
870.45	14454
870.58	14606
870.71	14720
870.84	14667
870.97	14587
871.1	14511
871.23	14788
871.36	14727
871.489	14678
871.619	14762
871.749	14746
871.879	14864
872.008	14956
872.138	14815
872.267	14781
872.397	14701
872.526	14606
872.656	14598
872.785	14571
872.915	14754
873.044	14902
873.173	14819
873.303	14910
873.432	14785
873.561	14861
873.69	14891
873.819	14944
873.948	14921
874.077	14762
874.206	14845
874.335	14864
874.464	14906
874.593	15127
874.722	15051
874.851	15097
874.979	15112
875.108	15135
875.237	15135
875.365	15058
875.494	15123
875.623	15180
875.751	15043
875.88	15169
876.008	15332
876.136	15408
876.265	15549
876.393	15641
876.521	15705
876.65	15637
876.778	15595
876.906	15492
877.034	15435
877.162	15523
877.29	15382
877.418	15545
877.546	15591
877.674	15705
877.802	15584
877.93	15587
878.058	15511
878.185	15447
878.313	15610
878.441	15469
878.568	15458
878.696	15393
878.824	15523
878.951	15698
879.079	15781
879.206	15823
879.333	15759
879.461	15633
879.588	15698
879.715	15713
879.842	15857
879.97	15675
880.097	15458
880.224	15412
880.351	15420
880.478	15428
880.605	15435
880.732	15416
880.859	15686
880.986	15466
881.112	15416
881.239	15374
881.366	15146
881.493	15089
881.619	15089
881.746	15024
881.872	15074
881.999	15009
882.125	14994
882.252	15226
882.378	15161
882.505	15287
882.631	15024
882.757	14849
882.883	15001
883.01	14948
883.136	14876
883.262	14811
883.388	14758
883.514	14914
883.64	15055
883.766	14834
883.892	14701
884.018	14765
884.143	14944
884.269	14956
884.395	14708
884.52	14549
884.646	14621
884.772	14545
884.897	14533
885.023	14606
885.148	14739
885.274	14689
885.399	14743
885.524	14560
885.65	14549
885.775	14636
885.9	14674
886.025	14762
886.15	14602
886.275	14613
886.4	14590
886.525	14575
886.65	14537
886.775	14503
886.9	14708
887.025	14739
887.149	14533
887.274	14412
887.399	14343
887.523	14427
887.648	14419
887.773	14221
887.897	14537
888.021	14396
888.146	14381
888.27	14457
888.395	14568
888.519	14484
888.643	14473
888.767	14541
888.891	14412
889.015	14336
889.139	14233
889.263	14332
889.387	14404
889.511	14484
889.635	14408
889.759	14248
889.883	14370
890.006	14271
890.13	14427
890.254	14210
890.377	14214
890.501	14176
890.624	13997
890.748	14191
890.871	14084
890.995	13830
891.118	13940
891.241	14058
891.364	13982
891.488	14001
891.611	13887
891.734	14088
891.857	13959
891.98	14027
892.103	14119
892.226	13993
892.349	13879
892.471	13822
892.594	13959
892.717	14005
892.839	14039
892.962	14020
893.085	14123
893.207	13970
893.33	13883
893.452	13997
893.575	14020
893.697	13970
893.819	14145
893.941	14149
894.064	14046
894.186	14035
894.308	13936
894.43	14103
894.552	14282
894.674	14164
894.796	13963
894.918	14062
895.04	14081
895.161	14214
895.283	14191
895.405	14024
895.526	14081
895.648	14100
895.769	14149
895.891	14252
896.012	14214
896.134	14229
896.255	14187
896.376	14161
896.498	14180
896.619	14206
896.74	14275
896.861	14240
896.982	14537
897.103	14644
897.224	14469
897.345	14320
897.466	14320
897.587	14347
897.708	14530
897.828	14511
897.949	14377
898.07	14339
898.19	14419
898.311	14522
898.431	14469
898.552	14473
898.672	14541
898.792	14632
898.913	14526
899.033	14537
899.153	14396
899.273	14313
899.393	14358
899.513	14442
899.633	14370
899.753	14366
899.873	14370
899.993	14385
900.113	14237
900.232	14415
900.352	14275
900.472	14237
900.591	14221
900.711	14218
900.83	14119
900.95	14286
901.069	14328
901.189	14130
901.308	13928
901.427	13986
901.546	13849
901.665	13940
901.784	13894
901.904	13925
902.023	13704
902.141	13567
902.26	13556
902.379	13651
902.498	13506
902.617	13480
902.735	13559
902.854	13495
902.973	13289
903.091	13232
903.21	13209
903.328	13152
903.446	13187
903.565	13019
903.683	13061
903.801	12981
903.919	13091
904.038	12962
904.156	12886
904.274	12951
904.392	12924
904.51	12825
904.627	12947
904.745	12859
904.863	12905
904.981	12715
905.098	12521
905.216	12574
905.334	12540
905.451	12627
905.569	12544
905.686	12502
905.803	12658
905.921	12346
906.038	12467
906.155	12372
906.272	12346
906.389	12239
906.506	12167
906.623	12247
906.74	12129
906.857	12022
906.974	12140
907.091	12205
907.208	12266
907.324	12148
907.441	12030
907.557	11847
907.674	11923
907.79	11783
907.907	11874
908.023	11977
908.139	11870
908.256	11946
908.372	11843
908.488	11832
908.604	11611
908.72	11665
908.836	11684
908.952	11672
909.068	11646
909.184	11855
909.3	11691
909.415	11634
909.531	11676
909.647	11429
909.762	11505
909.878	11398
909.993	11455
910.108	11448
910.224	11368
910.339	11398
910.454	11349
910.57	11277
910.685	11189
910.8	11577
910.915	11391
911.03	11334
911.145	11162
911.259	11170
911.374	11105
911.489	11086
911.604	11006
911.718	10839
911.833	10881
911.947	10881
912.062	10721
912.176	10854
912.291	10980
912.405	10866
912.519	11128
912.633	11094
912.748	10915
912.862	10908
912.976	10774
913.09	10687
913.204	10691
913.318	10820
913.431	10881
913.545	10919
913.659	10919
913.772	10812
913.886	10649
914	10599
914.113	10744
914.226	10767
914.34	10752
914.453	10596
914.566	10797
914.68	10554
914.793	10558
914.906	10466
915.019	10390
915.132	10337
915.245	10310
915.358	10459
915.47	10402
915.583	10424
915.696	10497
915.809	10580
915.921	10516
916.034	10390
916.146	10325
916.259	10303
916.371	10436
916.483	10424
916.595	10287
916.708	10409
916.82	10287
916.932	10360
917.044	10276
917.156	10341
917.268	10261
917.38	10344
917.491	10215
917.603	10238
917.715	10295
917.826	10409
917.938	10276
918.049	10124
918.161	10322
918.272	10402
918.384	10440
918.495	10303
918.606	10101
918.717	10078
918.828	10150
918.939	10147
919.05	10055
919.161	10227
919.272	9991
919.383	9991
919.494	10257
919.604	10379
919.715	10166
919.826	10135
919.936	10143
920.047	10337
920.157	10128
920.267	10348
920.378	10234
920.488	10223
920.598	10360
920.708	10493
920.818	10348
920.928	10379
921.038	10573
921.148	10558
921.258	10230
921.368	10124
921.477	10063
921.587	10017
921.697	9911
921.806	10048
921.916	9907
922.025	9797
922.134	9770
922.244	9606
922.353	9789
922.462	9663
922.571	9580
922.68	9401
922.789	9515
922.898	9424
923.007	9378
923.116	9458
923.224	9466
923.333	9397
923.442	9321
923.55	9310
923.659	9317
923.767	9401
923.876	9275
923.984	9363
924.092	9268
924.201	9294
924.309	9264
924.417	9291
924.525	9279
924.633	9203
924.741	10192
924.849	9135
924.956	9180
925.064	9093
925.172	8982
925.279	9062
925.387	9135
925.494	9131
925.602	9184
925.709	9138
925.816	9024
925.924	9066
926.031	9142
926.138	9085
926.245	9032
926.352	9043
926.459	9161
926.566	9226
926.673	9047
926.779	8921
926.886	9028
926.993	8762
927.099	8815
927.206	8788
927.312	8773
927.419	8941
927.525	8788
927.631	8815
927.737	8796
927.843	8724
927.95	8579
928.056	8743
928.162	8632
928.267	8727
928.373	9291
928.479	8773
928.585	8495
928.69	8777
928.796	8769
928.901	8648
929.007	8476
929.112	8651
929.218	8598
929.323	8476
929.428	8469
929.533	8659
929.638	8495
929.743	8530
929.848	8537
929.953	8541
930.058	8465
930.163	8244
930.267	8248
930.372	8343
930.477	8279
930.581	8560
930.685	8328
930.79	8286
930.894	8199
930.998	8210
931.103	8339
931.207	7970
931.311	7978
931.415	7913
931.519	7708
931.623	7734
