Data from test_V78500241_2543.txt Node
Date: Fri Mar 25 14:51:25 CST 2022
User: usil
Spectrometer: V785-0024
Trigger mode: 0
Integration Time (sec): 4.000000E-1
Scans to average: 1
Nonlinearity correction enabled: false
Boxcar width: 0
Storing dark spectrum: false
XAxis mode: Wavelengths
Number of Pixels in Spectrum: 1024
>>>>>Begin Spectral Data<<<<<
801.071	22070
801.214	21880
801.356	21717
801.499	21682
801.641	21435
801.783	21408
801.926	21447
802.068	21378
802.211	21355
802.353	21081
802.496	20967
802.638	20986
802.78	20807
802.923	20815
803.065	20712
803.208	20613
803.35	20682
803.492	20739
803.635	20921
803.777	20636
803.919	20887
804.061	21169
804.204	20769
804.346	20659
804.488	20625
804.63	20842
804.773	20670
804.915	20655
805.057	20682
805.199	20590
805.341	20648
805.483	20781
805.626	20819
805.768	20621
805.91	20552
806.052	20716
806.194	20575
806.336	20781
806.478	20629
806.62	20625
806.762	20609
806.904	20777
807.046	21081
807.188	20975
807.33	21024
807.472	21062
807.614	20918
807.756	21028
807.898	20693
808.04	20777
808.182	20606
808.324	20708
808.465	20758
808.607	20823
808.749	21066
808.891	21226
809.033	21230
809.174	21104
809.316	21116
809.458	21036
809.6	20906
809.741	21043
809.883	21013
810.025	21184
810.166	21100
810.308	21214
810.45	21146
810.591	21074
810.733	20925
810.875	20899
811.016	20682
811.158	20727
811.299	20777
811.441	20838
811.582	20902
811.724	20815
811.865	20796
812.007	20826
812.148	20796
812.29	20826
812.431	20838
812.573	21036
812.714	21279
812.855	21393
812.997	21389
813.138	21408
813.279	21355
813.421	21283
813.562	21199
813.703	21058
813.845	20792
813.986	20663
814.127	20457
814.268	20450
814.41	20431
814.551	20423
814.692	20400
814.833	20317
814.974	20358
815.115	20374
815.256	20122
815.397	20218
815.539	20187
815.68	20035
815.821	20035
815.962	20149
816.103	20054
816.244	19917
816.385	19776
816.526	19811
816.666	19616
816.807	19430
816.948	19521
817.089	19556
817.23	19453
817.371	19468
817.512	19430
817.653	19525
817.793	19335
817.934	19495
818.075	19480
818.216	19419
818.356	19453
818.497	19278
818.638	19187
818.778	19175
818.919	19133
819.06	19221
819.2	19327
819.341	19396
819.481	19316
819.622	19449
819.762	19666
819.903	19632
820.043	19491
820.184	19537
820.324	19415
820.465	19487
820.605	19384
820.746	19438
820.886	19255
821.026	19411
821.167	19441
821.307	19373
821.447	19346
821.588	19137
821.728	19217
821.868	19080
822.008	18928
822.149	18798
822.289	18817
822.429	18677
822.569	18582
822.709	18494
822.849	18357
822.99	18300
823.13	18353
823.27	18330
823.41	18205
823.55	18152
823.69	18140
823.83	18152
823.97	18041
824.11	17965
824.25	17931
824.389	17851
824.529	17992
824.669	17988
824.809	18057
824.949	18026
825.089	18026
825.228	17977
825.368	17729
825.508	17707
825.648	17642
825.787	17703
825.927	17764
826.067	17684
826.206	17741
826.346	17733
826.485	17695
826.625	17695
826.765	17821
826.904	17756
827.044	17398
827.183	17554
827.323	17364
827.462	17452
827.601	17486
827.741	17414
827.88	17372
828.02	17337
828.159	17349
828.298	17292
828.437	17573
828.577	17402
828.716	17383
828.855	17402
828.994	17166
829.134	17151
829.273	17231
829.412	17231
829.551	17079
829.69	17193
829.829	17220
829.968	17311
830.107	17220
830.246	17136
830.385	17121
830.524	17090
830.663	16976
830.802	16847
830.941	16824
831.08	16820
831.219	16908
831.357	16778
831.496	16972
831.635	16767
831.774	16679
831.913	16634
832.051	16603
832.19	16523
832.329	16558
832.467	16580
832.606	16390
832.744	16470
832.883	16481
833.022	16379
833.16	16523
833.299	16405
833.437	16462
833.576	16512
833.714	16508
833.852	16535
833.991	16478
834.129	16542
834.267	16519
834.406	16584
834.544	16516
834.682	16462
834.821	16523
834.959	16698
835.097	16546
835.235	16599
835.373	16542
835.511	16580
835.65	16424
835.788	16417
835.926	16337
836.064	16234
836.202	16356
836.34	16417
836.478	16485
836.615	16394
836.753	16417
836.891	16504
837.029	16523
837.167	16390
837.305	16386
837.443	16337
837.58	16242
837.718	16348
837.856	16310
837.993	16299
838.131	16402
838.269	16188
838.406	16223
838.544	16207
838.681	15968
838.819	15983
838.956	15857
839.094	15975
839.231	15865
839.369	15975
839.506	16261
839.643	16097
839.781	15930
839.918	15800
840.055	15926
840.193	15816
840.33	15808
840.467	15892
840.604	15876
840.742	16078
840.879	15705
841.016	15724
841.153	15804
841.29	15964
841.427	15926
841.564	15827
841.701	15930
841.838	15816
841.975	15766
842.112	15698
842.249	15622
842.385	15629
842.522	15842
842.659	15644
842.796	15667
842.933	15606
843.069	15629
843.206	15519
843.343	15755
843.479	15728
843.616	15808
843.752	15469
843.889	15359
844.025	15534
844.162	15378
844.298	15523
844.435	15469
844.571	15450
844.708	15439
844.844	15633
844.98	15591
845.117	15557
845.253	15435
845.389	15230
845.525	15325
845.661	15336
845.798	15214
845.934	15279
846.07	15165
846.206	15321
846.342	15329
846.478	15195
846.614	15077
846.75	15009
846.886	15001
847.022	15039
847.158	15051
847.294	14929
847.429	15062
847.565	15009
847.701	15169
847.837	14800
847.972	14739
848.108	14872
848.244	14842
848.379	14712
848.515	14575
848.65	14518
848.786	14610
848.921	14587
849.057	14727
849.192	14754
849.328	14655
849.463	14636
849.598	14640
849.734	14530
849.869	14438
850.004	14476
850.14	14385
850.275	14377
850.41	14320
850.545	14366
850.68	14336
850.815	14442
850.95	14320
851.085	14545
851.22	14499
851.355	14396
851.49	14324
851.625	14370
851.76	14355
851.895	14290
852.03	14385
852.165	14336
852.299	14408
852.434	14336
852.569	14301
852.703	14362
852.838	14549
852.973	14556
853.107	14476
853.242	14385
853.376	14259
853.511	14005
853.645	14103
853.78	14393
853.914	14248
854.048	14233
854.183	14183
854.317	14320
854.451	14347
854.585	14252
854.72	14149
854.854	14358
854.988	14214
855.122	14225
855.256	14100
855.39	14233
855.524	14320
855.658	14240
855.792	14313
855.926	14343
856.06	14328
856.194	14336
856.327	14180
856.461	14202
856.595	14221
856.729	14259
856.862	14427
856.996	14294
857.13	14461
857.263	14355
857.397	14366
857.53	14199
857.664	14218
857.797	14309
857.931	14202
858.064	14305
858.197	14370
858.331	14252
858.464	14248
858.597	14164
858.731	14218
858.864	14168
858.997	14164
859.13	14290
859.263	14339
859.396	14374
859.529	14153
859.662	14199
859.795	14202
859.928	14278
860.061	14408
860.194	14434
860.327	14313
860.46	14199
860.592	14298
860.725	14404
860.858	14370
860.99	14214
861.123	14164
861.256	14199
861.388	14271
861.521	14895
861.653	14107
861.786	14069
861.918	14100
862.05	14199
862.183	14218
862.315	14267
862.447	14324
862.58	14107
862.712	14077
862.844	13921
862.976	14092
863.108	14096
863.24	14450
863.372	13936
863.504	14065
863.636	14020
863.768	14103
863.9	14050
864.032	13864
864.164	14046
864.296	14168
864.428	14157
864.559	14145
864.691	14138
864.823	14088
864.954	14126
865.086	14069
865.217	14050
865.349	13902
865.48	14062
865.612	14035
865.743	14142
865.875	14081
866.006	13951
866.137	14046
866.269	14027
866.4	14001
866.531	13986
866.662	13982
866.793	13970
866.924	13970
867.055	14039
867.186	13970
867.317	13936
867.448	13925
867.579	13879
867.71	13902
867.841	13875
867.972	14024
868.103	13997
868.233	14020
868.364	13936
868.495	14092
868.625	14282
868.756	14339
868.886	14142
869.017	14180
869.147	14301
869.278	14305
869.408	14385
869.539	14214
869.669	14377
869.799	14221
869.929	14282
870.06	14282
870.19	14632
870.32	14499
870.45	14511
870.58	14632
870.71	14792
870.84	14731
870.97	14804
871.1	14659
871.23	14925
871.36	14823
871.489	14769
871.619	14857
871.749	14826
871.879	14845
872.008	14838
872.138	14880
872.267	14743
872.397	14785
872.526	14701
872.656	14590
872.785	14735
872.915	14826
873.044	15001
873.173	14956
873.303	14910
873.432	14880
873.561	15017
873.69	14792
873.819	14975
873.948	14956
874.077	14994
874.206	14811
874.335	14971
874.464	15051
874.593	15283
874.722	15127
874.851	15249
874.979	15211
875.108	15188
875.237	15188
875.365	15142
875.494	15252
875.623	15256
875.751	15268
875.88	15298
876.008	15424
876.136	15428
876.265	15561
876.393	15762
876.521	15663
876.65	15682
876.778	15614
876.906	15610
877.034	15587
877.162	15713
877.29	15595
877.418	15622
877.546	15724
877.674	15652
877.802	15584
877.93	15572
878.058	15576
878.185	15507
878.313	15622
878.441	15671
878.568	15481
878.696	15504
878.824	15633
878.951	15660
879.079	15819
879.206	15998
879.333	15766
879.461	15717
879.588	15732
879.715	15850
879.842	15945
879.97	15759
880.097	15450
880.224	15424
880.351	15603
880.478	15439
880.605	15424
880.732	15420
880.859	15797
880.986	15466
881.112	15542
881.239	15462
881.366	15203
881.493	15184
881.619	15157
881.746	15199
881.872	15085
881.999	15157
882.125	15100
882.252	15214
882.378	15104
882.505	15291
882.631	15097
882.757	14994
882.883	15108
883.01	14975
883.136	14864
883.262	14929
883.388	14853
883.514	14948
883.64	15074
883.766	14842
883.892	14788
884.018	14830
884.143	14921
884.269	14914
884.395	14716
884.52	14689
884.646	14705
884.772	14552
884.897	14625
885.023	14674
885.148	14796
885.274	14819
885.399	14777
885.524	14682
885.65	14530
885.775	14670
885.9	14583
886.025	14731
886.15	14743
886.275	14594
886.4	14594
886.525	14629
886.65	14606
886.775	14560
886.9	14720
887.025	14857
887.149	14705
887.274	14530
887.399	14450
887.523	14469
887.648	14328
887.773	14366
887.897	14636
888.021	14579
888.146	14484
888.27	14590
888.395	14629
888.519	14575
888.643	14560
888.767	14552
888.891	14594
889.015	14347
889.139	14415
889.263	14393
889.387	14495
889.511	14579
889.635	14427
889.759	14252
889.883	14343
890.006	14427
890.13	14587
890.254	14282
890.377	14317
890.501	14237
890.624	14199
890.748	14237
890.871	14164
890.995	14043
891.118	13963
891.241	14008
891.364	14016
891.488	14168
891.611	14096
891.734	14020
891.857	14195
891.98	14100
892.103	14062
892.226	14050
892.349	14005
892.471	13955
892.594	13974
892.717	14115
892.839	13959
892.962	14001
893.085	14286
893.207	14092
893.33	13925
893.452	14046
893.575	14077
893.697	14119
893.819	14267
893.941	14183
894.064	14176
894.186	13993
894.308	13997
894.43	14218
894.552	14305
894.674	14195
894.796	13947
894.918	14119
895.04	14145
895.161	14111
895.283	14225
895.405	14081
895.526	14176
895.648	14206
895.769	14218
895.891	14282
896.012	14305
896.134	14263
896.255	14180
896.376	14199
896.498	14240
896.619	14248
896.74	14294
896.861	14271
896.982	14556
897.103	14743
897.224	14560
897.345	14465
897.466	14442
897.587	14488
897.708	14602
897.828	14693
897.949	14396
898.07	14396
898.19	14503
898.311	14659
898.431	14476
898.552	14587
898.672	14648
898.792	14758
898.913	14621
899.033	14480
899.153	14587
899.273	14381
899.393	14484
899.513	14450
899.633	14492
899.753	14431
899.873	14431
899.993	14518
900.113	14370
900.232	14488
900.352	14358
900.472	14298
900.591	14282
900.711	14309
900.83	14309
900.95	14385
901.069	14396
901.189	14267
901.308	14073
901.427	13894
901.546	13959
901.665	14092
901.784	14065
901.904	13803
902.023	13772
902.141	13597
902.26	13506
902.379	13597
902.498	13491
902.617	13441
902.735	13655
902.854	13651
902.973	13499
903.091	13293
903.21	13240
903.328	13255
903.446	13278
903.565	13057
903.683	13156
903.801	13095
903.919	13137
904.038	13137
904.156	12966
904.274	13038
904.392	12875
904.51	12932
904.627	12989
904.745	12962
904.863	13015
904.981	12776
905.098	12509
905.216	12631
905.334	12654
905.451	12646
905.569	12719
905.686	12715
905.803	12639
905.921	12448
906.038	12479
906.155	12494
906.272	12327
906.389	12338
906.506	12243
906.623	12235
906.74	12247
906.857	12091
906.974	12171
907.091	12296
907.208	12270
907.324	12197
907.441	12175
907.557	11969
907.674	12034
907.79	11942
907.907	11961
908.023	11999
908.139	12049
908.256	11916
908.372	11836
908.488	11878
908.604	11752
908.72	11665
908.836	11737
908.952	11710
909.068	11756
909.184	11764
909.3	11760
909.415	11729
909.531	11688
909.647	11516
909.762	11516
909.878	11395
909.993	11471
910.108	11554
910.224	11414
910.339	11474
910.454	11429
910.57	11372
910.685	11341
910.8	11649
910.915	11463
911.03	11341
911.145	11212
911.259	11170
911.374	11216
911.489	11159
911.604	10980
911.718	11018
911.833	10965
911.947	10892
912.062	10797
912.176	10949
912.291	10877
912.405	10961
912.519	11075
912.633	11162
912.748	11014
912.862	10957
912.976	10812
913.09	10744
913.204	10801
913.318	10744
913.431	11056
913.545	10927
913.659	10953
913.772	10873
913.886	10774
914	10752
914.113	10774
914.226	10854
914.34	10733
914.453	10691
914.566	10843
914.68	10626
914.793	10550
914.906	10516
915.019	10424
915.132	10409
915.245	10421
915.358	10459
915.47	10428
915.583	10542
915.696	10554
915.809	10538
915.921	10535
916.034	10421
916.146	10470
916.259	10379
916.371	10538
916.483	10443
916.595	10405
916.708	10310
916.82	10402
916.932	10390
917.044	10348
917.156	10284
917.268	10272
917.38	10295
917.491	10295
917.603	10352
917.715	10478
917.826	10337
917.938	10219
918.049	10200
918.161	10303
918.272	10421
918.384	10489
918.495	10325
918.606	10154
918.717	10063
918.828	10196
918.939	10185
919.05	10124
919.161	10147
919.272	10029
919.383	9998
919.494	10211
919.604	10371
919.715	10185
919.826	10204
919.936	10078
920.047	10242
920.157	10192
920.267	10382
920.378	10261
920.488	10234
920.598	10371
920.708	10580
920.818	10375
920.928	10341
921.038	10550
921.148	10577
921.258	10246
921.368	10196
921.477	10147
921.587	10048
921.697	9960
921.806	10116
921.916	10010
922.025	9766
922.134	9728
922.244	9720
922.353	9819
922.462	9629
922.571	9553
922.68	9389
922.789	9408
922.898	9447
923.007	9454
923.116	9538
923.224	9393
923.333	9447
923.442	9306
923.55	9233
923.659	9382
923.767	9382
923.876	9302
923.984	9424
924.092	9298
924.201	9329
924.309	9359
924.417	9386
924.525	9302
924.633	9241
924.741	10211
924.849	9093
924.956	9222
925.064	9047
925.172	8975
925.279	9108
925.387	9131
925.494	9055
925.602	9176
925.709	9188
925.816	9043
925.924	9051
926.031	9184
926.138	9188
926.245	9173
926.352	9032
926.459	9169
926.566	9199
926.673	9146
926.779	8914
926.886	8925
926.993	8750
927.099	8826
927.206	8826
927.312	8823
927.419	8861
927.525	8811
927.631	8891
927.737	8815
927.843	8758
927.95	8541
928.056	8735
928.162	8697
928.267	8800
928.373	9336
928.479	8845
928.585	8556
928.69	8705
928.796	8720
928.901	8583
929.007	8499
929.112	8659
929.218	8575
929.323	8533
929.428	8556
929.533	8648
929.638	8511
929.743	8541
929.848	8522
929.953	8488
930.058	8465
930.163	8218
930.267	8347
930.372	8450
930.477	8225
930.581	8526
930.685	8377
930.79	8248
930.894	8263
930.998	8221
931.103	8381
931.207	8130
931.311	7959
931.415	7974
931.519	7731
931.623	7753
