Data from test_V78500241_3237.txt Node
Date: Fri Mar 25 14:56:15 CST 2022
User: usil
Spectrometer: V785-0024
Trigger mode: 0
Integration Time (sec): 4.000000E-1
Scans to average: 1
Nonlinearity correction enabled: false
Boxcar width: 0
Storing dark spectrum: false
XAxis mode: Wavelengths
Number of Pixels in Spectrum: 1024
>>>>>Begin Spectral Data<<<<<
801.071	22025
801.214	21945
801.356	21523
801.499	21595
801.641	21416
801.783	21340
801.926	21382
802.068	21249
802.211	21332
802.353	21211
802.496	20967
802.638	20872
802.78	20815
802.923	20686
803.065	20602
803.208	20678
803.35	20762
803.492	20788
803.635	20857
803.777	20689
803.919	20788
804.061	21108
804.204	20674
804.346	20762
804.488	20579
804.63	20743
804.773	20522
804.915	20701
805.057	20708
805.199	20549
805.341	20629
805.483	20663
805.626	20537
805.768	20590
805.91	20640
806.052	20667
806.194	20514
806.336	20731
806.478	20541
806.62	20537
806.762	20701
806.904	20670
807.046	20986
807.188	20883
807.33	21058
807.472	20963
807.614	20906
807.756	20781
807.898	20705
808.04	20750
808.182	20617
808.324	20720
808.465	20826
808.607	20731
808.749	21032
808.891	20910
809.033	21096
809.174	21112
809.316	20944
809.458	20971
809.6	20952
809.741	21089
809.883	21066
810.025	21165
810.166	21085
810.308	21104
810.45	21009
810.591	21017
810.733	20796
810.875	20815
811.016	20636
811.158	20659
811.299	20815
811.441	20948
811.582	20773
811.724	20743
811.865	20625
812.007	20571
812.148	20640
812.29	20720
812.431	20845
812.573	20971
812.714	21176
812.855	21279
812.997	21199
813.138	21485
813.279	21424
813.421	21252
813.562	21180
813.703	21032
813.845	20876
813.986	20522
814.127	20484
814.268	20339
814.41	20244
814.551	20229
814.692	20389
814.833	20221
814.974	20210
815.115	20282
815.256	20142
815.397	20084
815.539	20168
815.68	20073
815.821	20024
815.962	20092
816.103	19932
816.244	19856
816.385	19818
816.526	19639
816.666	19677
816.807	19487
816.948	19438
817.089	19468
817.23	19483
817.371	19434
817.512	19396
817.653	19392
817.793	19430
817.934	19377
818.075	19381
818.216	19422
818.356	19346
818.497	19255
818.638	19061
818.778	19160
818.919	19213
819.06	19133
819.2	19232
819.341	19362
819.481	19327
819.622	19384
819.762	19567
819.903	19544
820.043	19438
820.184	19365
820.324	19415
820.465	19449
820.605	19426
820.746	19415
820.886	19373
821.026	19362
821.167	19247
821.307	19441
821.447	19221
821.588	19202
821.728	19171
821.868	18905
822.008	18764
822.149	18875
822.289	18703
822.429	18566
822.569	18460
822.709	18494
822.849	18315
822.99	18254
823.13	18239
823.27	18167
823.41	18087
823.55	18022
823.69	18076
823.83	17984
823.97	17954
824.11	17843
824.25	17817
824.389	17817
824.529	17847
824.669	17840
824.809	17958
824.949	17954
825.089	17893
825.228	17863
825.368	17760
825.508	17585
825.648	17722
825.787	17577
825.927	17695
826.067	17573
826.206	17630
826.346	17680
826.485	17752
826.625	17608
826.765	17668
826.904	17611
827.044	17360
827.183	17440
827.323	17337
827.462	17402
827.601	17322
827.741	17330
827.88	17265
828.02	17178
828.159	17326
828.298	17345
828.437	17425
828.577	17280
828.716	17509
828.855	17349
828.994	17136
829.134	17117
829.273	17056
829.412	17109
829.551	16949
829.69	17018
829.829	17033
829.968	17220
830.107	17181
830.246	17041
830.385	17041
830.524	16934
830.663	16866
830.802	16702
830.941	16596
831.08	16683
831.219	16729
831.357	16744
831.496	16892
831.635	16713
831.774	16664
831.913	16611
832.051	16558
832.19	16481
832.329	16637
832.467	16413
832.606	16386
832.744	16455
832.883	16303
833.022	16352
833.16	16371
833.299	16474
833.437	16470
833.576	16546
833.714	16474
833.852	16577
833.991	16508
834.129	16519
834.267	16554
834.406	16394
834.544	16421
834.682	16402
834.821	16455
834.959	16702
835.097	16421
835.235	16523
835.373	16569
835.511	16519
835.65	16284
835.788	16314
835.926	16188
836.064	16223
836.202	16261
836.34	16348
836.478	16363
836.615	16367
836.753	16356
836.891	16436
837.029	16417
837.167	16306
837.305	16314
837.443	16310
837.58	16154
837.718	16386
837.856	16249
837.993	16230
838.131	16265
838.269	16333
838.406	16257
838.544	16169
838.681	15956
838.819	15960
838.956	15766
839.094	15774
839.231	15831
839.369	15869
839.506	16219
839.643	16006
839.781	15831
839.918	15800
840.055	15781
840.193	15816
840.33	15781
840.467	15789
840.604	15762
840.742	16048
840.879	15713
841.016	15629
841.153	15701
841.29	15964
841.427	15732
841.564	15854
841.701	15698
841.838	15743
841.975	15724
842.112	15671
842.249	15542
842.385	15625
842.522	15861
842.659	15641
842.796	15496
842.933	15675
843.069	15519
843.206	15515
843.343	15625
843.479	15629
843.616	15538
843.752	15370
843.889	15389
844.025	15439
844.162	15264
844.298	15329
844.435	15378
844.571	15291
844.708	15355
844.844	15545
844.98	15408
845.117	15496
845.253	15237
845.389	15291
845.525	15287
845.661	15211
845.798	15222
845.934	15173
846.07	15165
846.206	15222
846.342	15363
846.478	15085
846.614	14952
846.75	14948
846.886	15062
847.022	15036
847.158	14971
847.294	14872
847.429	14986
847.565	14880
847.701	15131
847.837	14693
847.972	14678
848.108	14754
848.244	14689
848.379	14575
848.515	14526
848.65	14530
848.786	14431
848.921	14473
849.057	14632
849.192	14610
849.328	14545
849.463	14552
849.598	14552
849.734	14473
849.869	14339
850.004	14294
850.14	14419
850.275	14317
850.41	14233
850.545	14286
850.68	14328
850.815	14244
850.95	14309
851.085	14465
851.22	14309
851.355	14381
851.49	14275
851.625	14286
851.76	14259
851.895	14119
852.03	14161
852.165	14256
852.299	14320
852.434	14374
852.569	14336
852.703	14275
852.838	14511
852.973	14427
853.107	14381
853.242	14336
853.376	14123
853.511	14191
853.645	14126
853.78	14263
853.914	14183
854.048	14107
854.183	14145
854.317	14244
854.451	14305
854.585	14123
854.72	14103
854.854	14252
854.988	14073
855.122	14107
855.256	13970
855.39	14168
855.524	14168
855.658	14229
855.792	14267
855.926	14145
856.06	14271
856.194	14168
856.327	14206
856.461	14134
856.595	14088
856.729	14100
856.862	14199
856.996	14202
857.13	14313
857.263	14233
857.397	14336
857.53	14088
857.664	14256
857.797	14290
857.931	14328
858.064	14187
858.197	14229
858.331	14073
858.464	14149
858.597	14054
858.731	14130
858.864	14168
858.997	14096
859.13	14161
859.263	14142
859.396	14248
859.529	14176
859.662	14206
859.795	14130
859.928	14187
860.061	14313
860.194	14431
860.327	14210
860.46	14157
860.592	14233
860.725	14309
860.858	14290
860.99	14092
861.123	14100
861.256	14103
861.388	14069
861.521	14921
861.653	14058
861.786	13974
861.918	14081
862.05	14077
862.183	14084
862.315	14199
862.447	14126
862.58	14111
862.712	14024
862.844	13898
862.976	13959
863.108	14031
863.24	14556
863.372	13875
863.504	13909
863.636	13932
863.768	14005
863.9	13989
864.032	13791
864.164	13936
864.296	13989
864.428	14103
864.559	14073
864.691	14035
864.823	13936
864.954	13982
865.086	13978
865.217	13978
865.349	13898
865.48	13932
865.612	13852
865.743	13967
865.875	13978
866.006	13849
866.137	13955
866.269	13936
866.4	13928
866.531	13875
866.662	13970
866.793	13898
866.924	13894
867.055	14043
867.186	13932
867.317	13826
867.448	13788
867.579	13852
867.71	13868
867.841	13814
867.972	13951
868.103	13974
868.233	13894
868.364	13894
868.495	14077
868.625	14115
868.756	14286
868.886	14100
869.017	14149
869.147	14214
869.278	14385
869.408	14176
869.539	14180
869.669	14195
869.799	14195
869.929	14298
870.06	14252
870.19	14412
870.32	14549
870.45	14469
870.58	14537
870.71	14701
870.84	14644
870.97	14606
871.1	14457
871.23	14720
871.36	14727
871.489	14655
871.619	14716
871.749	14727
871.879	14785
872.008	14800
872.138	14788
872.267	14689
872.397	14640
872.526	14583
872.656	14621
872.785	14526
872.915	14823
873.044	14979
873.173	14785
873.303	14838
873.432	14906
873.561	14845
873.69	14826
873.819	14823
873.948	14811
874.077	14811
874.206	14762
874.335	14921
874.464	14975
874.593	14994
874.722	15077
874.851	15207
874.979	15176
875.108	15241
875.237	15112
875.365	15123
875.494	15180
875.623	15214
875.751	15173
875.88	15169
876.008	15272
876.136	15412
876.265	15561
876.393	15694
876.521	15690
876.65	15641
876.778	15576
876.906	15382
877.034	15435
877.162	15595
877.29	15435
877.418	15549
877.546	15618
877.674	15618
877.802	15458
877.93	15523
878.058	15492
878.185	15424
878.313	15492
878.441	15694
878.568	15401
878.696	15481
878.824	15603
878.951	15549
879.079	15751
879.206	15880
879.333	15717
879.461	15557
879.588	15690
879.715	15808
879.842	15762
879.97	15656
880.097	15332
880.224	15401
880.351	15481
880.478	15447
880.605	15408
880.732	15466
880.859	15739
880.986	15401
881.112	15477
881.239	15374
881.366	15241
881.493	15161
881.619	15043
881.746	15070
881.872	15116
881.999	14933
882.125	14937
882.252	15047
882.378	15089
882.505	15192
882.631	14941
882.757	14788
882.883	15005
883.01	14887
883.136	14826
883.262	14762
883.388	14686
883.514	14956
883.64	14906
883.766	14807
883.892	14708
884.018	14697
884.143	14902
884.269	15055
884.395	14735
884.52	14560
884.646	14587
884.772	14583
884.897	14469
885.023	14552
885.148	14701
885.274	14769
885.399	14731
885.524	14606
885.65	14552
885.775	14648
885.9	14705
886.025	14785
886.15	14556
886.275	14697
886.4	14492
886.525	14621
886.65	14480
886.775	14495
886.9	14667
887.025	14716
887.149	14594
887.274	14434
887.399	14473
887.523	14427
887.648	14389
887.773	14355
887.897	14530
888.021	14412
888.146	14355
888.27	14541
888.395	14549
888.519	14469
888.643	14442
888.767	14514
888.891	14362
889.015	14248
889.139	14328
889.263	14259
889.387	14370
889.511	14514
889.635	14492
889.759	14320
889.883	14237
890.006	14313
890.13	14454
890.254	14191
890.377	14317
890.501	14123
890.624	14012
890.748	14168
890.871	14024
890.995	14024
891.118	13902
891.241	14062
891.364	14016
891.488	14100
891.611	14069
891.734	14020
891.857	14065
891.98	13967
892.103	14005
892.226	14142
892.349	13951
892.471	13799
892.594	13944
892.717	14024
892.839	13993
892.962	13940
893.085	14005
893.207	13959
893.33	13890
893.452	13963
893.575	14054
893.697	13906
893.819	14157
893.941	14191
894.064	14191
894.186	13928
894.308	13974
894.43	14164
894.552	14259
894.674	14161
894.796	13932
894.918	14062
895.04	14027
895.161	14206
895.283	14176
895.405	13974
895.526	14119
895.648	14020
895.769	14126
895.891	14084
896.012	14305
896.134	14107
896.255	14153
896.376	14123
896.498	14161
896.619	14202
896.74	14142
896.861	14240
896.982	14488
897.103	14602
897.224	14495
897.345	14408
897.466	14396
897.587	14385
897.708	14533
897.828	14476
897.949	14358
898.07	14377
898.19	14461
898.311	14541
898.431	14514
898.552	14476
898.672	14590
898.792	14689
898.913	14651
899.033	14473
899.153	14404
899.273	14332
899.393	14339
899.513	14351
899.633	14320
899.753	14393
899.873	14362
899.993	14419
900.113	14377
900.232	14404
900.352	14282
900.472	14176
900.591	14206
900.711	14305
900.83	14202
900.95	14336
901.069	14305
901.189	14145
901.308	13906
901.427	13932
901.546	13852
901.665	13921
901.784	13928
901.904	13765
902.023	13647
902.141	13487
902.26	13518
902.379	13506
902.498	13480
902.617	13365
902.735	13529
902.854	13495
902.973	13445
903.091	13244
903.21	13156
903.328	13297
903.446	13114
903.565	13069
903.683	13069
903.801	13031
903.919	13069
904.038	13050
904.156	12935
904.274	13042
904.392	12798
904.51	12856
904.627	12817
904.745	12920
904.863	12890
904.981	12703
905.098	12456
905.216	12563
905.334	12517
905.451	12616
905.569	12471
905.686	12620
905.803	12585
905.921	12448
906.038	12426
906.155	12467
906.272	12365
906.389	12346
906.506	12117
906.623	12144
906.74	12087
906.857	12102
906.974	12163
907.091	12163
907.208	12372
907.324	12205
907.441	12098
907.557	11855
907.674	11916
907.79	11828
907.907	11912
908.023	11866
908.139	11969
908.256	11847
908.372	11764
908.488	11885
908.604	11672
908.72	11680
908.836	11722
908.952	11649
909.068	11627
909.184	11764
909.3	11657
909.415	11722
909.531	11646
909.647	11429
909.762	11490
909.878	11391
909.993	11459
910.108	11410
910.224	11326
910.339	11330
910.454	11303
910.57	11345
910.685	11223
910.8	11490
910.915	11417
911.03	11288
911.145	11159
911.259	11155
911.374	11159
911.489	11041
911.604	10991
911.718	10923
911.833	10881
911.947	10717
912.062	10660
912.176	10843
912.291	10896
912.405	10873
912.519	11102
912.633	11083
912.748	10946
912.862	10835
912.976	10706
913.09	10683
913.204	10778
913.318	10740
913.431	10866
913.545	10889
913.659	10911
913.772	10736
913.886	10664
914	10637
914.113	10752
914.226	10782
914.34	10698
914.453	10645
914.566	10733
914.68	10626
914.793	10706
914.906	10436
915.019	10310
915.132	10261
915.245	10432
915.358	10367
915.47	10504
915.583	10531
915.696	10436
915.809	10497
915.921	10527
916.034	10398
916.146	10379
916.259	10348
916.371	10459
916.483	10424
916.595	10295
916.708	10356
916.82	10356
916.932	10325
917.044	10314
917.156	10413
917.268	10230
917.38	10200
917.491	10219
917.603	10219
917.715	10341
917.826	10344
917.938	10215
918.049	10131
918.161	10280
918.272	10379
918.384	10382
918.495	10284
918.606	10097
918.717	10002
918.828	10097
918.939	10204
919.05	10105
919.161	10097
919.272	9918
919.383	10025
919.494	10207
919.604	10325
919.715	10177
919.826	10078
919.936	10105
920.047	10188
920.157	10181
920.267	10318
920.378	10215
920.488	10071
920.598	10272
920.708	10462
920.818	10344
920.928	10329
921.038	10531
921.148	10523
921.258	10219
921.368	10067
921.477	10044
921.587	10025
921.697	9884
921.806	10025
921.916	9907
922.025	9774
922.134	9694
922.244	9690
922.353	9717
922.462	9614
922.571	9538
922.68	9416
922.789	9374
922.898	9443
923.007	9378
923.116	9401
923.224	9374
923.333	9359
923.442	9241
923.55	9279
923.659	9226
923.767	9298
923.876	9306
923.984	9313
924.092	9218
924.201	9298
924.309	9294
924.417	9313
924.525	9199
924.633	9256
924.741	10177
924.849	9036
924.956	9226
925.064	9001
925.172	9024
925.279	9013
925.387	9074
925.494	9070
925.602	9249
925.709	9127
925.816	9013
925.924	8986
926.031	9127
926.138	8971
926.245	9089
926.352	8910
926.459	9135
926.566	9135
926.673	8975
926.779	8887
926.886	8979
926.993	8838
927.099	8731
927.206	8781
927.312	8678
927.419	8872
927.525	8777
927.631	8853
927.737	8678
927.843	8678
927.95	8533
928.056	8644
928.162	8720
928.267	8731
928.373	9218
928.479	8739
928.585	8533
928.69	8659
928.796	8705
928.901	8522
929.007	8446
929.112	8579
929.218	8613
929.323	8495
929.428	8450
929.533	8686
929.638	8412
929.743	8499
929.848	8590
929.953	8446
930.058	8415
930.163	8157
930.267	8263
930.372	8507
930.477	8237
930.581	8427
930.685	8347
930.79	8271
930.894	8187
930.998	8218
931.103	8366
931.207	8115
931.311	7917
931.415	7852
931.519	7734
931.623	7681
