Data from test_V78500241_1155.txt Node
Date: Fri Mar 25 14:41:45 CST 2022
User: usil
Spectrometer: V785-0024
Trigger mode: 0
Integration Time (sec): 4.000000E-1
Scans to average: 1
Nonlinearity correction enabled: false
Boxcar width: 0
Storing dark spectrum: false
XAxis mode: Wavelengths
Number of Pixels in Spectrum: 1024
>>>>>Begin Spectral Data<<<<<
801.071	22546
801.214	22363
801.356	22207
801.499	21892
801.641	21880
801.783	21785
801.926	21915
802.068	21808
802.211	21603
802.353	21591
802.496	21344
802.638	21408
802.78	21131
802.923	21222
803.065	21089
803.208	21131
803.35	21245
803.492	21241
803.635	21405
803.777	21135
803.919	21203
804.061	21580
804.204	21329
804.346	21070
804.488	21135
804.63	21207
804.773	21081
804.915	21127
805.057	21192
805.199	21214
805.341	21218
805.483	21150
805.626	21325
805.768	21116
805.91	21192
806.052	21131
806.194	21024
806.336	21256
806.478	21157
806.62	21131
806.762	21154
806.904	21370
807.046	21557
807.188	21515
807.33	21397
807.472	21561
807.614	21507
807.756	21359
807.898	21241
808.04	21313
808.182	21363
808.324	21344
808.465	21313
808.607	21576
808.749	21762
808.891	21846
809.033	21987
809.174	21831
809.316	21641
809.458	21755
809.6	21610
809.741	21641
809.883	21622
810.025	21682
810.166	21759
810.308	21709
810.45	21766
810.591	21507
810.733	21481
810.875	21462
811.016	21416
811.158	21302
811.299	21420
811.441	21344
811.582	21447
811.724	21283
811.865	21317
812.007	21283
812.148	21313
812.29	21397
812.431	21599
812.573	21736
812.714	21686
812.855	21766
812.997	21888
813.138	22055
813.279	21892
813.421	21937
813.562	21663
813.703	21618
813.845	21507
813.986	21047
814.127	21161
814.268	20941
814.41	21009
814.551	20986
814.692	20982
814.833	20773
814.974	20838
815.115	20849
815.256	20746
815.397	20716
815.539	20754
815.68	20594
815.821	20621
815.962	20644
816.103	20552
816.244	20473
816.385	20328
816.526	20358
816.666	20214
816.807	20008
816.948	20191
817.089	20043
817.23	20210
817.371	20119
817.512	20039
817.653	20027
817.793	20012
817.934	20073
818.075	20103
818.216	19928
818.356	19967
818.497	19856
818.638	19601
818.778	19662
818.919	19712
819.06	19830
819.2	19868
819.341	19898
819.481	19936
819.622	20069
819.762	20286
819.903	20092
820.043	19997
820.184	20100
820.324	20024
820.465	20149
820.605	20122
820.746	19947
820.886	19757
821.026	20027
821.167	19974
821.307	20035
821.447	20001
821.588	19928
821.728	19788
821.868	19392
822.008	19491
822.149	19434
822.289	19388
822.429	19171
822.569	19122
822.709	19141
822.849	18958
822.99	18886
823.13	18920
823.27	18867
823.41	18833
823.55	18665
823.69	18722
823.83	18612
823.97	18642
824.11	18582
824.25	18350
824.389	18486
824.529	18585
824.669	18445
824.809	18635
824.949	18585
825.089	18585
825.228	18540
825.368	18357
825.508	18308
825.648	18213
825.787	18441
825.927	18429
826.067	18266
826.206	18315
826.346	18384
826.485	18292
826.625	18251
826.765	18361
826.904	18369
827.044	18068
827.183	18091
827.323	17980
827.462	18019
827.601	18057
827.741	17920
827.88	18087
828.02	17821
828.159	17893
828.298	17923
828.437	18060
828.577	17958
828.716	18045
828.855	17916
828.994	17737
829.134	17718
829.273	17741
829.412	17748
829.551	17649
829.69	17832
829.829	17733
829.968	17878
830.107	17813
830.246	17813
830.385	17691
830.524	17646
830.663	17661
830.802	17421
830.941	17322
831.08	17345
831.219	17444
831.357	17490
831.496	17539
831.635	17261
831.774	17326
831.913	17258
832.051	17178
832.19	17056
832.329	17220
832.467	16976
832.606	16984
832.744	17060
832.883	17037
833.022	17033
833.16	16965
833.299	17075
833.437	17102
833.576	17083
833.714	17132
833.852	17124
833.991	17143
834.129	17204
834.267	17311
834.406	17064
834.544	17159
834.682	17128
834.821	17045
834.959	17303
835.097	17056
835.235	17121
835.373	17124
835.511	17216
835.65	17086
835.788	17022
835.926	16923
836.064	16900
836.202	16877
836.34	17075
836.478	17117
836.615	16896
836.753	16972
836.891	17098
837.029	16972
837.167	16961
837.305	16858
837.443	16896
837.58	16843
837.718	16953
837.856	16999
837.993	16828
838.131	16881
838.269	16820
838.406	16736
838.544	16771
838.681	16596
838.819	16607
838.956	16390
839.094	16367
839.231	16546
839.369	16516
839.506	16816
839.643	16660
839.781	16432
839.918	16428
840.055	16390
840.193	16493
840.33	16310
840.467	16329
840.604	16451
840.742	16615
840.879	16303
841.016	16405
841.153	16341
841.29	16622
841.427	16402
841.564	16474
841.701	16474
841.838	16402
841.975	16356
842.112	16394
842.249	16310
842.385	16109
842.522	16291
842.659	16204
842.796	16226
842.933	16215
843.069	16177
843.206	16185
843.343	16261
843.479	16284
843.616	16265
843.752	15941
843.889	15987
844.025	16246
844.162	15994
844.298	16124
844.435	15926
844.571	15987
844.708	16040
844.844	16082
844.98	16120
845.117	16093
845.253	16029
845.389	16063
845.525	15968
845.661	16040
845.798	15956
845.934	16086
846.07	15987
846.206	16112
846.342	16139
846.478	15945
846.614	15778
846.75	15587
846.886	15507
847.022	15660
847.158	15652
847.294	15549
847.429	15584
847.565	15557
847.701	15747
847.837	15332
847.972	15203
848.108	15370
848.244	15332
848.379	15192
848.515	15135
848.65	15100
848.786	15207
848.921	15188
849.057	15233
849.192	15367
849.328	15176
849.463	15161
849.598	15192
849.734	15123
849.869	15028
850.004	14971
850.14	14944
850.275	14887
850.41	14899
850.545	14925
850.68	15028
850.815	14933
850.95	14937
851.085	15100
851.22	14921
851.355	14956
851.49	14906
851.625	14910
851.76	14864
851.895	14887
852.03	14941
852.165	14990
852.299	14929
852.434	14895
852.569	14864
852.703	14864
852.838	15009
852.973	15142
853.107	15066
853.242	14823
853.376	14815
853.511	14701
853.645	14826
853.78	14921
853.914	14781
854.048	14788
854.183	14811
854.317	14716
854.451	14887
854.585	14765
854.72	14788
854.854	14830
854.988	14697
855.122	14731
855.256	14655
855.39	14853
855.524	14899
855.658	14876
855.792	14823
855.926	14857
856.06	14724
856.194	14853
856.327	14823
856.461	14811
856.595	14777
856.729	14750
856.862	14910
856.996	14842
857.13	14880
857.263	14925
857.397	14948
857.53	14830
857.664	14792
857.797	14861
857.931	14971
858.064	14769
858.197	14918
858.331	14712
858.464	14792
858.597	14686
858.731	14750
858.864	14735
858.997	14796
859.13	14746
859.263	14868
859.396	14921
859.529	14845
859.662	14712
859.795	14758
859.928	14796
860.061	14925
860.194	14929
860.327	14853
860.46	14796
860.592	14956
860.725	15020
860.858	14941
860.99	14800
861.123	14651
861.256	14682
861.388	14811
861.521	15420
861.653	14682
861.786	14564
861.918	14617
862.05	14731
862.183	14659
862.315	14823
862.447	14910
862.58	14705
862.712	14552
862.844	14533
862.976	14625
863.108	14682
863.24	15020
863.372	14533
863.504	14594
863.636	14587
863.768	14583
863.9	14511
864.032	14537
864.164	14552
864.296	14632
864.428	14731
864.559	14613
864.691	14590
864.823	14594
864.954	14583
865.086	14530
865.217	14465
865.349	14465
865.48	14518
865.612	14575
865.743	14750
865.875	14522
866.006	14415
866.137	14564
866.269	14511
866.4	14469
866.531	14400
866.662	14503
866.793	14415
866.924	14533
867.055	14537
867.186	14545
867.317	14461
867.448	14465
867.579	14495
867.71	14465
867.841	14465
867.972	14495
868.103	14499
868.233	14549
868.364	14552
868.495	14655
868.625	14777
868.756	14762
868.886	14762
869.017	14777
869.147	14864
869.278	14914
869.408	14796
869.539	14804
869.669	14918
869.799	14872
869.929	14880
870.06	14910
870.19	15001
870.32	15070
870.45	15108
870.58	15119
870.71	15264
870.84	15306
870.97	15291
871.1	15176
871.23	15336
871.36	15450
871.489	15298
871.619	15294
871.749	15363
871.879	15378
872.008	15485
872.138	15458
872.267	15351
872.397	15214
872.526	15192
872.656	15169
872.785	15256
872.915	15367
873.044	15454
873.173	15545
873.303	15477
873.432	15660
873.561	15496
873.69	15405
873.819	15359
873.948	15504
874.077	15420
874.206	15401
874.335	15469
874.464	15564
874.593	15717
874.722	15637
874.851	15709
874.979	15762
875.108	15797
875.237	15701
875.365	15671
875.494	15682
875.623	15800
875.751	15599
875.88	15720
876.008	15979
876.136	15930
876.265	16029
876.393	16348
876.521	16185
876.65	16253
876.778	16158
876.906	16013
877.034	16063
877.162	16090
877.29	16032
877.418	16097
877.546	16226
877.674	16158
877.802	16230
877.93	16162
878.058	16112
878.185	16135
878.313	16207
878.441	16223
878.568	15930
878.696	16150
878.824	16158
878.951	16242
879.079	16333
879.206	16535
879.333	16409
879.461	16284
879.588	16356
879.715	16417
879.842	16626
879.97	16306
880.097	16048
880.224	16013
880.351	16010
880.478	16010
880.605	16013
880.732	15975
880.859	16261
880.986	15975
881.112	16029
881.239	15941
881.366	15770
881.493	15766
881.619	15591
881.746	15686
881.872	15701
881.999	15660
882.125	15538
882.252	15774
882.378	15686
882.505	15846
882.631	15656
882.757	15530
882.883	15500
883.01	15469
883.136	15447
883.262	15363
883.388	15439
883.514	15542
883.64	15477
883.766	15469
883.892	15264
884.018	15306
884.143	15511
884.269	15576
884.395	15260
884.52	15157
884.646	15203
884.772	15123
884.897	15127
885.023	15047
885.148	15241
885.274	15367
885.399	15340
885.524	15176
885.65	15279
885.775	15294
885.9	15211
886.025	15249
886.15	15260
886.275	15184
886.4	15020
886.525	15119
886.65	15062
886.775	15108
886.9	15386
887.025	15283
887.149	15211
887.274	14948
887.399	14960
887.523	14971
887.648	14914
887.773	14918
887.897	15116
888.021	15005
888.146	15024
888.27	15112
888.395	15100
888.519	15081
888.643	15093
888.767	15047
888.891	14872
889.015	14849
889.139	14876
889.263	14800
889.387	15028
889.511	15058
889.635	14963
889.759	14849
889.883	14914
890.006	14868
890.13	14948
890.254	14762
890.377	14781
890.501	14785
890.624	14598
890.748	14746
890.871	14594
890.995	14415
891.118	14499
891.241	14526
891.364	14594
891.488	14659
891.611	14530
891.734	14514
891.857	14606
891.98	14533
892.103	14674
892.226	14575
892.349	14434
892.471	14404
892.594	14541
892.717	14579
892.839	14530
892.962	14560
893.085	14583
893.207	14450
893.33	14476
893.452	14355
893.575	14537
893.697	14499
893.819	14743
893.941	14804
894.064	14568
894.186	14514
894.308	14492
894.43	14743
894.552	14568
894.674	14720
894.796	14492
894.918	14545
895.04	14571
895.161	14678
895.283	14590
895.405	14530
895.526	14629
895.648	14655
895.769	14655
895.891	14682
896.012	14739
896.134	14708
896.255	14689
896.376	14693
896.498	14701
896.619	14765
896.74	14693
896.861	14689
896.982	15013
897.103	15214
897.224	14971
897.345	14857
897.466	14883
897.587	14990
897.708	15051
897.828	15074
897.949	14876
898.07	14796
898.19	14986
898.311	15093
898.431	15020
898.552	15009
898.672	15142
898.792	15081
898.913	15062
899.033	14929
899.153	14883
899.273	14845
899.393	14914
899.513	14921
899.633	14834
899.753	14944
899.873	14823
899.993	14963
900.113	14838
900.232	14804
900.352	14960
900.472	14735
900.591	14651
900.711	14777
900.83	14632
900.95	14830
901.069	14777
901.189	14564
901.308	14374
901.427	14275
901.546	14343
901.665	14385
901.784	14404
901.904	14328
902.023	14157
902.141	14024
902.26	13982
902.379	14035
902.498	13871
902.617	13871
902.735	13993
902.854	13955
902.973	13883
903.091	13719
903.21	13662
903.328	13719
903.446	13616
903.565	13586
903.683	13472
903.801	13358
903.919	13540
904.038	13499
904.156	13388
904.274	13460
904.392	13263
904.51	13278
904.627	13285
904.745	13426
904.863	13396
904.981	13084
905.098	13004
905.216	12977
905.334	13038
905.451	13072
905.569	12943
905.686	13004
905.803	12993
905.921	12806
906.038	12913
906.155	12886
906.272	12749
906.389	12848
906.506	12627
906.623	12627
906.74	12570
906.857	12570
906.974	12540
907.091	12604
907.208	12719
907.324	12650
907.441	12494
907.557	12418
907.674	12391
907.79	12304
907.907	12300
908.023	12346
908.139	12452
908.256	12273
908.372	12285
908.488	12289
908.604	12129
908.72	12110
908.836	12049
908.952	12083
909.068	12110
909.184	12095
909.3	12057
909.415	12163
909.531	12209
909.647	11889
909.762	11954
909.878	11882
909.993	11878
910.108	11817
910.224	11935
910.339	11870
910.454	11832
910.57	11707
910.685	11623
910.8	11939
910.915	11874
911.03	11809
911.145	11649
911.259	11551
911.374	11619
911.489	11528
911.604	11493
911.718	11379
911.833	11311
911.947	11178
912.062	11109
912.176	11303
912.291	11364
912.405	11277
912.519	11543
912.633	11581
912.748	11353
912.862	11334
912.976	11113
913.09	11105
913.204	11052
913.318	11181
913.431	11311
913.545	11250
913.659	11296
913.772	11235
913.886	11048
914	11056
914.113	11235
914.226	11143
914.34	11204
914.453	10968
914.566	11185
914.68	11029
914.793	11086
914.906	10919
915.019	10755
915.132	10694
915.245	10797
915.358	10824
915.47	10877
915.583	10881
915.696	10927
915.809	11014
915.921	10900
916.034	10828
916.146	10710
916.259	10767
916.371	10858
916.483	10858
916.595	10687
916.708	10759
916.82	10721
916.932	10721
917.044	10691
917.156	10649
917.268	10611
917.38	10675
917.491	10596
917.603	10618
917.715	10653
917.826	10725
917.938	10565
918.049	10474
918.161	10618
918.272	10759
918.384	10752
918.495	10710
918.606	10493
918.717	10481
918.828	10527
918.939	10550
919.05	10451
919.161	10462
919.272	10295
919.383	10390
919.494	10538
919.604	10679
919.715	10512
919.826	10436
919.936	10455
920.047	10603
920.157	10611
920.267	10797
920.378	10611
920.488	10535
920.598	10687
920.708	10869
920.818	10744
920.928	10668
921.038	10862
921.148	10854
921.258	10535
921.368	10497
921.477	10356
921.587	10333
921.697	10265
921.806	10390
921.916	10272
922.025	10131
922.134	10074
922.244	9968
922.353	10071
922.462	9972
922.571	9835
922.68	9808
922.789	9793
922.898	9778
923.007	9740
923.116	9740
923.224	9800
923.333	9637
923.442	9606
923.55	9568
923.659	9622
923.767	9637
923.876	9572
923.984	9751
924.092	9469
924.201	9637
924.309	9568
924.417	9625
924.525	9466
924.633	9534
924.741	10352
924.849	9374
924.956	9481
925.064	9397
925.172	9287
925.279	9363
925.387	9420
925.494	9462
925.602	9576
925.709	9500
925.816	9329
925.924	9351
926.031	9378
926.138	9401
926.245	9458
926.352	9302
926.459	9492
926.566	9485
926.673	9302
926.779	9214
926.886	9260
926.993	9112
927.099	9028
927.206	9081
927.312	9055
927.419	9142
927.525	9070
927.631	9108
927.737	9024
927.843	8967
927.95	8804
928.056	8971
928.162	8963
928.267	9051
928.373	9629
928.479	9146
928.585	8887
928.69	8963
928.796	9036
928.901	8891
929.007	8766
929.112	8979
929.218	8823
929.323	8800
929.428	8823
929.533	8849
929.638	8708
929.743	8727
929.848	8800
929.953	8682
930.058	8708
930.163	8625
930.267	8526
930.372	8708
930.477	8606
930.581	8777
930.685	8708
930.79	8492
930.894	8495
930.998	8514
931.103	8629
931.207	8210
931.311	8191
931.415	8176
931.519	8035
931.623	7986
