Data from test_V78500241_1524.txt Node
Date: Fri Mar 25 14:44:19 CST 2022
User: usil
Spectrometer: V785-0024
Trigger mode: 0
Integration Time (sec): 4.000000E-1
Scans to average: 1
Nonlinearity correction enabled: false
Boxcar width: 0
Storing dark spectrum: false
XAxis mode: Wavelengths
Number of Pixels in Spectrum: 1024
>>>>>Begin Spectral Data<<<<<
801.071	22462
801.214	22265
801.356	22143
801.499	21926
801.641	21827
801.783	21827
801.926	21823
802.068	21690
802.211	21591
802.353	21534
802.496	21408
802.638	21321
802.78	21157
802.923	21157
803.065	21093
803.208	21096
803.35	21184
803.492	21294
803.635	21264
803.777	21039
803.919	21112
804.061	21481
804.204	21199
804.346	20998
804.488	20994
804.63	21154
804.773	20979
804.915	20998
805.057	21207
805.199	21009
805.341	21058
805.483	21058
805.626	21089
805.768	20994
805.91	21127
806.052	20948
806.194	20998
806.336	21112
806.478	20914
806.62	21127
806.762	21089
806.904	21237
807.046	21439
807.188	21515
807.33	21279
807.472	21519
807.614	21306
807.756	21454
807.898	21283
808.04	21165
808.182	21268
808.324	21260
808.465	21416
808.607	21393
808.749	21530
808.891	21675
809.033	21857
809.174	21557
809.316	21523
809.458	21450
809.6	21587
809.741	21629
809.883	21515
810.025	21644
810.166	21595
810.308	21667
810.45	21587
810.591	21408
810.733	21298
810.875	21275
811.016	21291
811.158	21165
811.299	21249
811.441	21351
811.582	21389
811.724	21431
811.865	21199
812.007	21321
812.148	21214
812.29	21237
812.431	21511
812.573	21454
812.714	21580
812.855	21698
812.997	21804
813.138	21857
813.279	21827
813.421	21717
813.562	21705
813.703	21534
813.845	21359
813.986	21146
814.127	20982
814.268	20971
814.41	20883
814.551	20769
814.692	20914
814.833	20720
814.974	20743
815.115	20708
815.256	20606
815.397	20655
815.539	20602
815.68	20507
815.821	20419
815.962	20552
816.103	20522
816.244	20320
816.385	20183
816.526	20347
816.666	20130
816.807	20031
816.948	20077
817.089	20039
817.23	19932
817.371	19978
817.512	19909
817.653	19898
817.793	19864
817.934	19807
818.075	19856
818.216	19807
818.356	19856
818.497	19723
818.638	19597
818.778	19575
818.919	19575
819.06	19556
819.2	19681
819.341	19795
819.481	19753
819.622	19906
819.762	20084
819.903	19913
820.043	19944
820.184	19868
820.324	19883
820.465	19986
820.605	19818
820.746	19841
820.886	19700
821.026	19921
821.167	19837
821.307	20005
821.447	19795
821.588	19666
821.728	19704
821.868	19480
822.008	19403
822.149	19183
822.289	19270
822.429	19012
822.569	19008
822.709	19080
822.849	18840
822.99	18749
823.13	18863
823.27	18688
823.41	18608
823.55	18608
823.69	18681
823.83	18669
823.97	18620
824.11	18361
824.25	18350
824.389	18254
824.529	18426
824.669	18422
824.809	18490
824.949	18388
825.089	18357
825.228	18323
825.368	18216
825.508	18194
825.648	18194
825.787	18144
825.927	18155
826.067	18087
826.206	18087
826.346	18030
826.485	18140
826.625	18083
826.765	18270
826.904	18247
827.044	17866
827.183	17813
827.323	17832
827.462	17870
827.601	17874
827.741	17805
827.88	17805
828.02	17722
828.159	17824
828.298	17836
828.437	17832
828.577	17821
828.716	17897
828.855	17798
828.994	17486
829.134	17687
829.273	17577
829.412	17589
829.551	17551
829.69	17634
829.829	17577
829.968	17718
830.107	17615
830.246	17482
830.385	17440
830.524	17486
830.663	17444
830.802	17334
830.941	17094
831.08	17162
831.219	17242
831.357	17159
831.496	17360
831.635	17162
831.774	17029
831.913	17041
832.051	17037
832.19	16911
832.329	16968
832.467	16847
832.606	16759
832.744	16900
832.883	16987
833.022	16805
833.16	16786
833.299	16980
833.437	16790
833.576	16908
833.714	16946
833.852	16873
833.991	16953
834.129	16980
834.267	16953
834.406	16961
834.544	16911
834.682	16919
834.821	16908
834.959	17045
835.097	16896
835.235	17018
835.373	16919
835.511	16976
835.65	16927
835.788	16889
835.926	16664
836.064	16569
836.202	16713
836.34	16778
836.478	16828
836.615	16805
836.753	16889
836.891	16904
837.029	16889
837.167	16809
837.305	16683
837.443	16687
837.58	16531
837.718	16725
837.856	16755
837.993	16691
838.131	16550
838.269	16512
838.406	16611
838.544	16546
838.681	16428
838.819	16272
838.956	16173
839.094	16196
839.231	16192
839.369	16371
839.506	16538
839.643	16504
839.781	16223
839.918	16147
840.055	16185
840.193	16200
840.33	16162
840.467	16242
840.604	16166
840.742	16428
840.879	16093
841.016	16071
841.153	16150
841.29	16322
841.427	16230
841.564	16242
841.701	16234
841.838	16185
841.975	16101
842.112	16101
842.249	16036
842.385	15895
842.522	16120
842.659	15918
842.796	15884
842.933	15934
843.069	15983
843.206	16025
843.343	15953
843.479	16021
843.616	15949
843.752	15781
843.889	15831
844.025	15964
844.162	15865
844.298	15850
844.435	15755
844.571	15732
844.708	15838
844.844	15937
844.98	15899
845.117	15873
845.253	15789
845.389	15728
845.525	15774
845.661	15797
845.798	15682
845.934	15804
846.07	15808
846.206	15835
846.342	15774
846.478	15720
846.614	15458
846.75	15488
846.886	15336
847.022	15401
847.158	15287
847.294	15363
847.429	15439
847.565	15222
847.701	15568
847.837	15081
847.972	14975
848.108	15157
848.244	15161
848.379	15001
848.515	14929
848.65	14861
848.786	14971
848.921	15017
849.057	14944
849.192	15070
849.328	14880
849.463	14948
849.598	14960
849.734	14876
849.869	14777
850.004	14674
850.14	14754
850.275	14781
850.41	14602
850.545	14651
850.68	14651
850.815	14769
850.95	14640
851.085	14921
851.22	14785
851.355	14769
851.49	14735
851.625	14617
851.76	14617
851.895	14629
852.03	14613
852.165	14629
852.299	14674
852.434	14735
852.569	14731
852.703	14800
852.838	14800
852.973	14899
853.107	14861
853.242	14701
853.376	14564
853.511	14442
853.645	14552
853.78	14644
853.914	14621
854.048	14598
854.183	14602
854.317	14568
854.451	14598
854.585	14625
854.72	14564
854.854	14648
854.988	14526
855.122	14549
855.256	14385
855.39	14518
855.524	14594
855.658	14651
855.792	14583
855.926	14617
856.06	14579
856.194	14777
856.327	14564
856.461	14400
856.595	14537
856.729	14461
856.862	14667
856.996	14594
857.13	14514
857.263	14701
857.397	14606
857.53	14530
857.664	14632
857.797	14708
857.931	14667
858.064	14670
858.197	14621
858.331	14602
858.464	14560
858.597	14404
858.731	14606
858.864	14537
858.997	14541
859.13	14602
859.263	14568
859.396	14663
859.529	14469
859.662	14473
859.795	14442
859.928	14720
860.061	14720
860.194	14724
860.327	14610
860.46	14575
860.592	14651
860.725	14655
860.858	14735
860.99	14461
861.123	14518
861.256	14514
861.388	14598
861.521	15188
861.653	14457
861.786	14434
861.918	14381
862.05	14469
862.183	14560
862.315	14469
862.447	14499
862.58	14484
862.712	14339
862.844	14252
862.976	14412
863.108	14400
863.24	14804
863.372	14271
863.504	14313
863.636	14332
863.768	14393
863.9	14263
864.032	14317
864.164	14358
864.296	14393
864.428	14518
864.559	14396
864.691	14446
864.823	14469
864.954	14450
865.086	14282
865.217	14294
865.349	14313
865.48	14275
865.612	14374
865.743	14465
865.875	14374
866.006	14286
866.137	14377
866.269	14298
866.4	14313
866.531	14343
866.662	14244
866.793	14324
866.924	14313
867.055	14298
867.186	14305
867.317	14290
867.448	14233
867.579	14237
867.71	14244
867.841	14240
867.972	14381
868.103	14294
868.233	14328
868.364	14332
868.495	14511
868.625	14583
868.756	14594
868.886	14446
869.017	14556
869.147	14640
869.278	14724
869.408	14606
869.539	14571
869.669	14613
869.799	14625
869.929	14590
870.06	14762
870.19	14921
870.32	14887
870.45	14880
870.58	14979
870.71	14998
870.84	14952
870.97	15013
871.1	14971
871.23	15093
871.36	15165
871.489	15005
871.619	15070
871.749	15138
871.879	15100
872.008	15256
872.138	15157
872.267	15112
872.397	14956
872.526	14941
872.656	14910
872.785	14910
872.915	15112
873.044	15260
873.173	15165
873.303	15142
873.432	15351
873.561	15321
873.69	15192
873.819	15272
873.948	15237
874.077	15222
874.206	15222
874.335	15260
874.464	15401
874.593	15435
874.722	15393
874.851	15538
874.979	15504
875.108	15500
875.237	15408
875.365	15382
875.494	15500
875.623	15686
875.751	15458
875.88	15557
876.008	15690
876.136	15675
876.265	15945
876.393	16078
876.521	16013
876.65	15972
876.778	15968
876.906	15915
877.034	15895
877.162	15865
877.29	15903
877.418	15953
877.546	15987
877.674	15945
877.802	15911
877.93	15960
878.058	15873
878.185	15895
878.313	15804
878.441	15926
878.568	15759
878.696	15911
878.824	15968
878.951	15911
879.079	16128
879.206	16314
879.333	16154
879.461	16143
879.588	16181
879.715	16139
879.842	16295
879.97	16116
880.097	15804
880.224	15812
880.351	15755
880.478	15842
880.605	15717
880.732	15819
880.859	16044
880.986	15873
881.112	15842
881.239	15751
881.366	15637
881.493	15534
881.619	15504
881.746	15435
881.872	15473
881.999	15511
882.125	15420
882.252	15580
882.378	15519
882.505	15648
882.631	15420
882.757	15306
882.883	15378
883.01	15245
883.136	15211
883.262	15131
883.388	15165
883.514	15321
883.64	15348
883.766	15226
883.892	15154
884.018	15173
884.143	15275
884.269	15367
884.395	15039
884.52	14948
884.646	14971
884.772	14849
884.897	14933
885.023	14944
885.148	15081
885.274	15150
885.399	15032
885.524	14937
885.65	14971
885.775	15001
885.9	15036
886.025	15131
886.15	15017
886.275	14929
886.4	14895
886.525	15005
886.65	14853
886.775	14838
886.9	15017
887.025	15222
887.149	14990
887.274	14857
887.399	14807
887.523	14781
887.648	14804
887.773	14613
887.897	14880
888.021	14868
888.146	14682
888.27	14857
888.395	14880
888.519	14834
888.643	14861
888.767	14811
888.891	14727
889.015	14625
889.139	14552
889.263	14674
889.387	14777
889.511	14815
889.635	14823
889.759	14636
889.883	14590
890.006	14670
890.13	14724
890.254	14530
890.377	14594
890.501	14583
890.624	14370
890.748	14507
890.871	14412
890.995	14282
891.118	14229
891.241	14358
891.364	14301
891.488	14351
891.611	14324
891.734	14317
891.857	14358
891.98	14320
892.103	14454
892.226	14465
892.349	14385
892.471	14225
892.594	14218
892.717	14374
892.839	14339
892.962	14256
893.085	14381
893.207	14221
893.33	14214
893.452	14195
893.575	14385
893.697	14294
893.819	14503
893.941	14549
894.064	14495
894.186	14381
894.308	14286
894.43	14465
894.552	14484
894.674	14457
894.796	14294
894.918	14275
895.04	14393
895.161	14465
895.283	14427
895.405	14362
895.526	14343
895.648	14415
895.769	14450
895.891	14431
896.012	14518
896.134	14499
896.255	14617
896.376	14514
896.498	14526
896.619	14575
896.74	14556
896.861	14655
896.982	14910
897.103	15097
897.224	14838
897.345	14746
897.466	14697
897.587	14864
897.708	14883
897.828	14762
897.949	14830
898.07	14708
898.19	14708
898.311	14880
898.431	14724
898.552	14819
898.672	14857
898.792	14941
898.913	14925
899.033	14788
899.153	14640
899.273	14579
899.393	14640
899.513	14735
899.633	14701
899.753	14746
899.873	14693
899.993	14682
900.113	14636
900.232	14701
900.352	14682
900.472	14686
900.591	14526
900.711	14556
900.83	14499
900.95	14708
901.069	14735
901.189	14541
901.308	14282
901.427	14138
901.546	14225
901.665	14263
901.784	14355
901.904	14050
902.023	14084
902.141	13963
902.26	13811
902.379	13807
902.498	13818
902.617	13799
902.735	13780
902.854	13772
902.973	13708
903.091	13563
903.21	13548
903.328	13510
903.446	13445
903.565	13381
903.683	13327
903.801	13285
903.919	13316
904.038	13259
904.156	13194
904.274	13304
904.392	13141
904.51	13168
904.627	13133
904.745	13217
904.863	13221
904.981	13034
905.098	12878
905.216	12901
905.334	12840
905.451	12844
905.569	12875
905.686	12840
905.803	12875
905.921	12684
906.038	12795
906.155	12738
906.272	12570
906.389	12684
906.506	12486
906.623	12414
906.74	12433
906.857	12380
906.974	12315
907.091	12536
907.208	12532
907.324	12441
907.441	12384
907.557	12194
907.674	12205
907.79	12125
907.907	12083
908.023	12155
908.139	12197
908.256	12171
908.372	12079
908.488	12038
908.604	12022
908.72	11954
908.836	11961
908.952	11889
909.068	11935
909.184	12041
909.3	11931
909.415	11999
909.531	11897
909.647	11684
909.762	11737
909.878	11722
909.993	11771
910.108	11790
910.224	11707
910.339	11729
910.454	11665
910.57	11608
910.685	11551
910.8	11805
910.915	11786
911.03	11589
911.145	11448
911.259	11330
911.374	11440
911.489	11395
911.604	11322
911.718	11204
911.833	11121
911.947	11037
912.062	11048
912.176	11193
912.291	11170
912.405	11166
912.519	11311
912.633	11372
912.748	11178
912.862	11147
912.976	11102
913.09	10923
913.204	11075
913.318	11018
913.431	11128
913.545	11105
913.659	11147
913.772	11060
913.886	10934
914	10892
914.113	10987
914.226	11105
914.34	11064
914.453	10835
914.566	10938
914.68	10850
914.793	10809
914.906	10710
915.019	10615
915.132	10603
915.245	10626
915.358	10706
915.47	10653
915.583	10725
915.696	10725
915.809	10683
915.921	10809
916.034	10599
916.146	10653
916.259	10611
916.371	10721
916.483	10679
916.595	10592
916.708	10611
916.82	10645
916.932	10550
917.044	10546
917.156	10569
917.268	10474
917.38	10538
917.491	10466
917.603	10516
917.715	10565
917.826	10500
917.938	10538
918.049	10379
918.161	10451
918.272	10622
918.384	10687
918.495	10546
918.606	10310
918.717	10333
918.828	10428
918.939	10447
919.05	10325
919.161	10382
919.272	10154
919.383	10200
919.494	10382
919.604	10630
919.715	10337
919.826	10303
919.936	10329
920.047	10421
920.157	10329
920.267	10626
920.378	10497
920.488	10379
920.598	10516
920.708	10744
920.818	10500
920.928	10542
921.038	10596
921.148	10694
921.258	10375
921.368	10375
921.477	10219
921.587	10192
921.697	10116
921.806	10242
921.916	10101
922.025	9975
922.134	10040
922.244	9857
922.353	9964
922.462	9816
922.571	9724
922.68	9606
922.789	9584
922.898	9564
923.007	9690
923.116	9686
923.224	9682
923.333	9595
923.442	9519
923.55	9450
923.659	9519
923.767	9576
923.876	9450
923.984	9576
924.092	9431
924.201	9500
924.309	9439
924.417	9454
924.525	9416
924.633	9469
924.741	10360
924.849	9245
924.956	9386
925.064	9253
925.172	9165
925.279	9264
925.387	9294
925.494	9203
925.602	9367
925.709	9344
925.816	9180
925.924	9298
926.031	9340
926.138	9199
926.245	9302
926.352	9230
926.459	9294
926.566	9367
926.673	9283
926.779	9226
926.886	9131
926.993	8986
927.099	8990
927.206	8929
927.312	8918
927.419	9055
927.525	8975
927.631	9017
927.737	8921
927.843	8895
927.95	8781
928.056	8838
928.162	8933
928.267	8868
928.373	9428
928.479	9020
928.585	8735
928.69	8792
928.796	8887
928.901	8705
929.007	8670
929.112	8735
929.218	8686
929.323	8697
929.428	8651
929.533	8762
929.638	8663
929.743	8667
929.848	8720
929.953	8659
930.058	8590
930.163	8484
930.267	8530
930.372	8552
930.477	8454
930.581	8693
930.685	8522
930.79	8358
930.894	8389
930.998	8400
931.103	8537
931.207	8123
931.311	8115
931.415	8058
931.519	7894
931.623	7959
