Data from test_V78500241_3483.txt Node
Date: Fri Mar 25 14:57:58 CST 2022
User: usil
Spectrometer: V785-0024
Trigger mode: 0
Integration Time (sec): 4.000000E-1
Scans to average: 1
Nonlinearity correction enabled: false
Boxcar width: 0
Storing dark spectrum: false
XAxis mode: Wavelengths
Number of Pixels in Spectrum: 1024
>>>>>Begin Spectral Data<<<<<
801.071	21934
801.214	21827
801.356	21591
801.499	21473
801.641	21272
801.783	21374
801.926	21348
802.068	21245
802.211	21116
802.353	21108
802.496	20792
802.638	20868
802.78	20765
802.923	20651
803.065	20617
803.208	20526
803.35	20636
803.492	20819
803.635	20777
803.777	20549
803.919	20804
804.061	21123
804.204	20773
804.346	20606
804.488	20518
804.63	20594
804.773	20533
804.915	20526
805.057	20705
805.199	20526
805.341	20724
805.483	20659
805.626	20556
805.768	20495
805.91	20598
806.052	20473
806.194	20473
806.336	20689
806.478	20431
806.62	20465
806.762	20609
806.904	20602
807.046	21116
807.188	20830
807.33	21024
807.472	20956
807.614	20842
807.756	20686
807.898	20708
808.04	20571
808.182	20663
808.324	20514
808.465	20636
808.607	20670
808.749	20921
808.891	20971
809.033	21066
809.174	21043
809.316	20804
809.458	20826
809.6	20880
809.741	20906
809.883	20910
810.025	21123
810.166	21070
810.308	21058
810.45	21077
810.591	20941
810.733	20765
810.875	20625
811.016	20651
811.158	20511
811.299	20727
811.441	20769
811.582	20845
811.724	20613
811.865	20594
812.007	20697
812.148	20674
812.29	20682
812.431	20796
812.573	21013
812.714	21047
812.855	21279
812.997	21203
813.138	21401
813.279	21279
813.421	21138
813.562	21112
813.703	20868
813.845	20769
813.986	20537
814.127	20294
814.268	20294
814.41	20183
814.551	20320
814.692	20278
814.833	20172
814.974	20119
815.115	20142
815.256	20054
815.397	20081
815.539	19947
815.68	19940
815.821	19837
815.962	20046
816.103	19921
816.244	19776
816.385	19700
816.526	19620
816.666	19480
816.807	19335
816.948	19415
817.089	19411
817.23	19400
817.371	19365
817.512	19282
817.653	19301
817.793	19308
817.934	19320
818.075	19430
818.216	19369
818.356	19304
818.497	19145
818.638	19053
818.778	18996
818.919	18973
819.06	18996
819.2	19133
819.341	19225
819.481	19251
819.622	19396
819.762	19616
819.903	19396
820.043	19274
820.184	19335
820.324	19365
820.465	19415
820.605	19274
820.746	19278
820.886	19110
821.026	19308
821.167	19225
821.307	19266
821.447	19263
821.588	19126
821.728	18916
821.868	18909
822.008	18616
822.149	18688
822.289	18692
822.429	18479
822.569	18330
822.709	18410
822.849	18300
822.99	18148
823.13	18125
823.27	18220
823.41	18064
823.55	17969
823.69	18102
823.83	18064
823.97	17954
824.11	17752
824.25	17764
824.389	17722
824.529	17824
824.669	17703
824.809	17927
824.949	17821
825.089	17786
825.228	17840
825.368	17577
825.508	17573
825.648	17562
825.787	17516
825.927	17611
826.067	17493
826.206	17520
826.346	17623
826.485	17649
826.625	17543
826.765	17646
826.904	17604
827.044	17345
827.183	17414
827.323	17273
827.462	17341
827.601	17383
827.741	17269
827.88	17197
828.02	17098
828.159	17269
828.298	17360
828.437	17208
828.577	17178
828.716	17360
828.855	17155
828.994	17102
829.134	17117
829.273	16999
829.412	16980
829.551	16957
829.69	17071
829.829	17052
829.968	17124
830.107	17018
830.246	17083
830.385	16961
830.524	16923
830.663	16812
830.802	16809
830.941	16603
831.08	16641
831.219	16713
831.357	16679
831.496	16854
831.635	16550
831.774	16504
831.913	16497
832.051	16466
832.19	16550
832.329	16474
832.467	16360
832.606	16299
832.744	16257
832.883	16253
833.022	16268
833.16	16424
833.299	16386
833.437	16367
833.576	16272
833.714	16405
833.852	16417
833.991	16470
834.129	16561
834.267	16500
834.406	16390
834.544	16360
834.682	16443
834.821	16352
834.959	16516
835.097	16333
835.235	16535
835.373	16394
835.511	16352
835.65	16299
835.788	16402
835.926	16154
836.064	16074
836.202	16101
836.34	16363
836.478	16405
836.615	16230
836.753	16375
836.891	16417
837.029	16333
837.167	16344
837.305	16192
837.443	16207
837.58	16109
837.718	16360
837.856	16257
837.993	16249
838.131	16238
838.269	16105
838.406	16059
838.544	16063
838.681	15994
838.819	15907
838.956	15759
839.094	15698
839.231	15804
839.369	15911
839.506	16131
839.643	16044
839.781	15778
839.918	15701
840.055	15808
840.193	15633
840.33	15747
840.467	15762
840.604	15789
840.742	16013
840.879	15595
841.016	15660
841.153	15576
841.29	15918
841.427	15766
841.564	15762
841.701	15724
841.838	15724
841.975	15618
842.112	15606
842.249	15599
842.385	15492
842.522	15705
842.659	15606
842.796	15492
842.933	15591
843.069	15492
843.206	15481
843.343	15595
843.479	15595
843.616	15625
843.752	15325
843.889	15302
844.025	15401
844.162	15291
844.298	15545
844.435	15344
844.571	15211
844.708	15386
844.844	15564
844.98	15473
845.117	15382
845.253	15287
845.389	15211
845.525	15211
845.661	15287
845.798	15119
845.934	15184
846.07	15070
846.206	15123
846.342	15275
846.478	15146
846.614	14857
846.75	14849
846.886	14849
847.022	14872
847.158	14872
847.294	14899
847.429	14887
847.565	14849
847.701	15062
847.837	14678
847.972	14632
848.108	14735
848.244	14674
848.379	14545
848.515	14457
848.65	14374
848.786	14461
848.921	14564
849.057	14590
849.192	14590
849.328	14499
849.463	14575
849.598	14434
849.734	14393
849.869	14495
850.004	14248
850.14	14317
850.275	14271
850.41	14100
850.545	14225
850.68	14271
850.815	14199
850.95	14183
851.085	14412
851.22	14366
851.355	14180
851.49	14271
851.625	14202
851.76	14298
851.895	14221
852.03	14111
852.165	14240
852.299	14286
852.434	14377
852.569	14252
852.703	14393
852.838	14389
852.973	14381
853.107	14362
853.242	14225
853.376	14195
853.511	13986
853.645	14054
853.78	14305
853.914	14115
854.048	14123
854.183	14214
854.317	14191
854.451	14244
854.585	14225
854.72	14157
854.854	14244
854.988	14149
855.122	14142
855.256	13997
855.39	14145
855.524	14244
855.658	14229
855.792	14195
855.926	14244
856.06	14202
856.194	14298
856.327	14180
856.461	14183
856.595	14058
856.729	14153
856.862	14252
856.996	14153
857.13	14275
857.263	14259
857.397	14320
857.53	14103
857.664	14263
857.797	14275
857.931	14320
858.064	14275
858.197	14267
858.331	14191
858.464	14240
858.597	14126
858.731	14256
858.864	14119
858.997	14058
859.13	14191
859.263	14183
859.396	14233
859.529	14096
859.662	14134
859.795	14130
859.928	14187
860.061	14298
860.194	14400
860.327	14191
860.46	14214
860.592	14347
860.725	14263
860.858	14336
860.99	14164
861.123	14005
861.256	14092
861.388	14123
861.521	14872
861.653	14046
861.786	13978
861.918	14077
862.05	14100
862.183	14115
862.315	14229
862.447	14202
862.58	14062
862.712	13955
862.844	13951
862.976	14092
863.108	14027
863.24	14362
863.372	13871
863.504	13978
863.636	13936
863.768	13947
863.9	13944
864.032	13780
864.164	13970
864.296	14012
864.428	14168
864.559	13982
864.691	14115
864.823	14008
864.954	14043
865.086	13932
865.217	13936
865.349	13852
865.48	13940
865.612	13974
865.743	14142
865.875	13989
866.006	13795
866.137	13909
866.269	13921
866.4	13963
866.531	13932
866.662	13951
866.793	13890
866.924	13898
867.055	14020
867.186	13902
867.317	13864
867.448	13925
867.579	13772
867.71	13772
867.841	13902
867.972	13978
868.103	13879
868.233	13902
868.364	13944
868.495	14035
868.625	14092
868.756	14263
868.886	14138
869.017	14210
869.147	14237
869.278	14286
869.408	14298
869.539	14259
869.669	14256
869.799	14278
869.929	14309
870.06	14195
870.19	14434
870.32	14480
870.45	14545
870.58	14613
870.71	14632
870.84	14705
870.97	14526
871.1	14533
871.23	14663
871.36	14792
871.489	14670
871.619	14804
871.749	14842
871.879	14845
872.008	14918
872.138	14746
872.267	14826
872.397	14590
872.526	14571
872.656	14579
872.785	14724
872.915	14857
873.044	14872
873.173	14830
873.303	14838
873.432	14830
873.561	14960
873.69	14876
873.819	14868
873.948	14941
874.077	14914
874.206	14823
874.335	14872
874.464	15005
874.593	14994
874.722	15081
874.851	15207
874.979	15173
875.108	15154
875.237	15074
875.365	15085
875.494	15093
875.623	15188
875.751	15051
875.88	15154
876.008	15313
876.136	15462
876.265	15572
876.393	15713
876.521	15671
876.65	15644
876.778	15682
876.906	15553
877.034	15492
877.162	15557
877.29	15507
877.418	15481
877.546	15648
877.674	15606
877.802	15618
877.93	15557
878.058	15652
878.185	15519
878.313	15477
878.441	15526
878.568	15408
878.696	15485
878.824	15648
878.951	15587
879.079	15720
879.206	15876
879.333	15698
879.461	15633
879.588	15720
879.715	15774
879.842	15789
879.97	15652
880.097	15507
880.224	15351
880.351	15443
880.478	15393
880.605	15416
880.732	15374
880.859	15549
880.986	15412
881.112	15466
881.239	15287
881.366	15207
881.493	15119
881.619	15005
881.746	15230
881.872	15123
881.999	15039
882.125	15028
882.252	15097
882.378	15184
882.505	15233
882.631	15005
882.757	14918
882.883	14929
883.01	14880
883.136	14906
883.262	14674
883.388	14625
883.514	14941
883.64	14929
883.766	14899
883.892	14686
884.018	14621
884.143	14902
884.269	14933
884.395	14762
884.52	14518
884.646	14621
884.772	14533
884.897	14431
885.023	14552
885.148	14625
885.274	14804
885.399	14762
885.524	14632
885.65	14613
885.775	14530
885.9	14720
886.025	14670
886.15	14693
886.275	14545
886.4	14522
886.525	14598
886.65	14530
886.775	14552
886.9	14667
887.025	14845
887.149	14621
887.274	14427
887.399	14412
887.523	14461
887.648	14374
887.773	14355
887.897	14533
888.021	14476
888.146	14396
888.27	14541
888.395	14587
888.519	14469
888.643	14469
888.767	14617
888.891	14343
889.015	14324
889.139	14336
889.263	14244
889.387	14362
889.511	14461
889.635	14427
889.759	14290
889.883	14282
890.006	14400
890.13	14324
890.254	14202
890.377	14256
890.501	14119
890.624	14100
890.748	14161
890.871	14069
890.995	13978
891.118	13928
891.241	13978
891.364	14043
891.488	14130
891.611	14035
891.734	14043
891.857	14077
891.98	13967
892.103	14062
892.226	14084
892.349	14005
892.471	13868
892.594	13959
892.717	13986
892.839	14046
892.962	14031
893.085	14126
893.207	14012
893.33	13921
893.452	13944
893.575	14031
893.697	14016
893.819	14115
893.941	14134
894.064	14187
894.186	14039
894.308	13883
894.43	14180
894.552	14240
894.674	14100
894.796	13906
894.918	13997
895.04	13963
895.161	14111
895.283	14035
895.405	14111
895.526	14096
895.648	14100
895.769	14092
895.891	14115
896.012	14244
896.134	14199
896.255	14149
896.376	14199
896.498	14081
896.619	14218
896.74	14229
896.861	14214
896.982	14518
897.103	14674
897.224	14419
897.345	14343
897.466	14488
897.587	14438
897.708	14571
897.828	14556
897.949	14389
898.07	14355
898.19	14404
898.311	14610
898.431	14442
898.552	14419
898.672	14610
898.792	14648
898.913	14495
899.033	14438
899.153	14328
899.273	14298
899.393	14370
899.513	14450
899.633	14400
899.753	14385
899.873	14389
899.993	14377
900.113	14419
900.232	14366
900.352	14324
900.472	14244
900.591	14195
900.711	14286
900.83	14275
900.95	14252
901.069	14286
901.189	14115
901.308	13993
901.427	13906
901.546	14005
901.665	13871
901.784	13913
901.904	13704
902.023	13776
902.141	13628
902.26	13506
902.379	13601
902.498	13525
902.617	13445
902.735	13460
902.854	13472
902.973	13320
903.091	13171
903.21	13221
903.328	13228
903.446	13137
903.565	12996
903.683	13061
903.801	12966
903.919	12993
904.038	13000
904.156	12878
904.274	12993
904.392	12848
904.51	12871
904.627	12951
904.745	12943
904.863	12901
904.981	12662
905.098	12601
905.216	12498
905.334	12631
905.451	12589
905.569	12563
905.686	12608
905.803	12627
905.921	12296
906.038	12540
906.155	12384
906.272	12292
906.389	12308
906.506	12201
906.623	12083
906.74	12110
906.857	12015
906.974	12102
907.091	12235
907.208	12296
907.324	12171
907.441	12053
907.557	11954
907.674	11927
907.79	11847
907.907	11950
908.023	11920
908.139	11870
908.256	11874
908.372	11824
908.488	11847
908.604	11642
908.72	11680
908.836	11672
908.952	11661
909.068	11695
909.184	11828
909.3	11714
909.415	11741
909.531	11634
909.647	11414
909.762	11455
909.878	11353
909.993	11459
910.108	11406
910.224	11395
910.339	11440
910.454	11364
910.57	11318
910.685	11201
910.8	11528
910.915	11474
911.03	11277
911.145	11166
911.259	11128
911.374	11109
911.489	11067
911.604	11022
911.718	10915
911.833	10889
911.947	10782
912.062	10710
912.176	10869
912.291	10915
912.405	10824
912.519	11132
912.633	11098
912.748	10965
912.862	10923
912.976	10774
913.09	10702
913.204	10759
913.318	10793
913.431	10919
913.545	10828
913.659	10919
913.772	10767
913.886	10668
914	10656
914.113	10763
914.226	10793
914.34	10706
914.453	10626
914.566	10740
914.68	10675
914.793	10584
914.906	10489
915.019	10325
915.132	10306
915.245	10451
915.358	10489
915.47	10417
915.583	10440
915.696	10538
915.809	10542
915.921	10573
916.034	10352
916.146	10356
916.259	10352
916.371	10375
916.483	10421
916.595	10314
916.708	10417
916.82	10318
916.932	10253
917.044	10284
917.156	10227
917.268	10200
917.38	10215
917.491	10188
917.603	10261
917.715	10363
917.826	10348
917.938	10242
918.049	10120
918.161	10280
918.272	10367
918.384	10451
918.495	10405
918.606	10044
918.717	10101
918.828	10124
918.939	10059
919.05	10055
919.161	10135
919.272	9911
919.383	9941
919.494	10128
919.604	10409
919.715	10188
919.826	10044
919.936	10071
920.047	10196
920.157	10143
920.267	10261
920.378	10230
920.488	10112
920.598	10375
920.708	10455
920.818	10394
920.928	10303
921.038	10500
921.148	10478
921.258	10211
921.368	10082
921.477	10025
921.587	9964
921.697	9831
921.806	9949
921.916	9876
922.025	9709
922.134	9724
922.244	9633
922.353	9694
922.462	9534
922.571	9557
922.68	9428
922.789	9321
922.898	9386
923.007	9374
923.116	9431
923.224	9424
923.333	9454
923.442	9268
923.55	9188
923.659	9279
923.767	9428
923.876	9291
923.984	9363
924.092	9154
924.201	9226
924.309	9279
924.417	9241
924.525	9260
924.633	9291
924.741	10063
924.849	8979
924.956	9184
925.064	8979
925.172	8952
925.279	9001
925.387	9039
925.494	9043
925.602	9173
925.709	9123
925.816	8990
925.924	9116
926.031	9127
926.138	9009
926.245	9135
926.352	9020
926.459	9146
926.566	9135
926.673	9005
926.779	8956
926.886	8910
926.993	8830
927.099	8849
927.206	8773
927.312	8705
927.419	8807
927.525	8758
927.631	8876
927.737	8743
927.843	8663
927.95	8583
928.056	8648
928.162	8705
928.267	8739
928.373	9302
928.479	8842
928.585	8518
928.69	8678
928.796	8625
928.901	8579
929.007	8465
929.112	8613
929.218	8473
929.323	8518
929.428	8495
929.533	8625
929.638	8377
929.743	8495
929.848	8492
929.953	8454
930.058	8343
930.163	8298
930.267	8286
930.372	8400
930.477	8252
930.581	8511
930.685	8294
930.79	8210
930.894	8263
930.998	8172
931.103	8351
931.207	8073
931.311	7963
931.415	7955
931.519	7685
931.623	7731
