Data from test_V78500241_350.txt Node
Date: Fri Mar 25 14:36:09 CST 2022
User: usil
Spectrometer: V785-0024
Trigger mode: 0
Integration Time (sec): 4.000000E-1
Scans to average: 1
Nonlinearity correction enabled: false
Boxcar width: 0
Storing dark spectrum: false
XAxis mode: Wavelengths
Number of Pixels in Spectrum: 1024
>>>>>Begin Spectral Data<<<<<
801.071	26845
801.214	26800
801.356	26533
801.499	26347
801.641	26427
801.783	26225
801.926	26210
802.068	26256
802.211	26161
802.353	26153
802.496	26012
802.638	25841
802.78	25959
802.923	25830
803.065	25685
803.208	25708
803.35	25715
803.492	25811
803.635	25898
803.777	25700
803.919	25993
804.061	26153
804.204	25928
804.346	25852
804.488	25696
804.63	25788
804.773	25681
804.915	25856
805.057	25898
805.199	25639
805.341	25791
805.483	25868
805.626	25909
805.768	25879
805.91	25917
806.052	25811
806.194	25830
806.336	26043
806.478	25811
806.62	25776
806.762	26031
806.904	26062
807.046	26301
807.188	26191
807.33	26180
807.472	26218
807.614	26183
807.756	26191
807.898	26096
808.04	25940
808.182	26130
808.324	26103
808.465	26111
808.607	26233
808.749	26453
808.891	26579
809.033	26571
809.174	26560
809.316	26305
809.458	26484
809.6	26366
809.741	26488
809.883	26480
810.025	26457
810.166	26571
810.308	26511
810.45	26564
810.591	26473
810.733	26259
810.875	26225
811.016	26195
811.158	26043
811.299	26248
811.441	26377
811.582	26309
811.724	26324
811.865	26210
812.007	26263
812.148	26180
812.29	26320
812.431	26339
812.573	26442
812.714	26526
812.855	26701
812.997	26792
813.138	26956
813.279	26781
813.421	26830
813.562	26785
813.703	26609
813.845	26358
813.986	26050
814.127	25989
814.268	25822
814.41	25864
814.551	25704
814.692	25925
814.833	25681
814.974	25700
815.115	25708
815.256	25597
815.397	25605
815.539	25563
815.68	25556
815.821	25464
815.962	25563
816.103	25422
816.244	25403
816.385	25168
816.526	25156
816.666	24992
816.807	24890
816.948	24935
817.089	25008
817.23	24901
817.371	24992
817.512	24791
817.653	24840
817.793	24768
817.934	24863
818.075	24764
818.216	24833
818.356	24734
818.497	24597
818.638	24669
818.778	24612
818.919	24464
819.06	24658
819.2	24654
819.341	24814
819.481	24730
819.622	24932
819.762	25008
819.903	25061
820.043	24890
820.184	24810
820.324	24973
820.465	24833
820.605	24791
820.746	24791
820.886	24563
821.026	24817
821.167	24768
821.307	24863
821.447	24688
821.588	24525
821.728	24547
821.868	24247
822.008	24380
822.149	24334
822.289	24057
822.429	23946
822.569	23912
822.709	23958
822.849	23684
822.99	23653
823.13	23665
823.27	23619
823.41	23471
823.55	23341
823.69	23474
823.83	23391
823.97	23452
824.11	23315
824.25	23166
824.389	23258
824.529	23337
824.669	23071
824.809	23406
824.949	23402
825.089	23284
825.228	23159
825.368	23117
825.508	23025
825.648	22976
825.787	23079
825.927	23029
826.067	22957
826.206	23094
826.346	23105
826.485	23086
826.625	23044
826.765	23086
826.904	22953
827.044	22771
827.183	22759
827.323	22687
827.462	22801
827.601	22759
827.741	22672
827.88	22831
828.02	22653
828.159	22649
828.298	22641
828.437	22725
828.577	22561
828.716	22812
828.855	22546
828.994	22394
829.134	22516
829.273	22310
829.412	22268
829.551	22337
829.69	22337
829.829	22390
829.968	22516
830.107	22470
830.246	22417
830.385	22344
830.524	22265
830.663	22093
830.802	22135
830.941	21899
831.08	21998
831.219	21983
831.357	22006
831.496	22139
831.635	22017
831.774	21800
831.913	21937
832.051	21759
832.19	21785
832.329	21819
832.467	21724
832.606	21568
832.744	21610
832.883	21694
833.022	21519
833.16	21648
833.299	21610
833.437	21545
833.576	21583
833.714	21553
833.852	21663
833.991	21538
834.129	21705
834.267	21663
834.406	21515
834.544	21739
834.682	21610
834.821	21663
834.959	21660
835.097	21462
835.235	21641
835.373	21599
835.511	21606
835.65	21405
835.788	21367
835.926	21363
836.064	21230
836.202	21329
836.34	21454
836.478	21424
836.615	21401
836.753	21412
836.891	21431
837.029	21473
837.167	21370
837.305	21412
837.443	21294
837.58	21199
837.718	21355
837.856	21317
837.993	21195
838.131	21313
838.269	21275
838.406	21173
838.544	21043
838.681	20941
838.819	20902
838.956	20701
839.094	20609
839.231	20769
839.369	20857
839.506	21116
839.643	21039
839.781	20716
839.918	20625
840.055	20697
840.193	20705
840.33	20549
840.467	20602
840.604	20629
840.742	20868
840.879	20632
841.016	20602
841.153	20613
841.29	20701
841.427	20625
841.564	20743
841.701	20575
841.838	20712
841.975	20556
842.112	20526
842.249	20381
842.385	20389
842.522	20552
842.659	20415
842.796	20313
842.933	20343
843.069	20252
843.206	20282
843.343	20374
843.479	20457
843.616	20347
843.752	20157
843.889	20103
844.025	20248
844.162	19993
844.298	20244
844.435	20240
844.571	20153
844.708	20024
844.844	20130
844.98	20294
845.117	20286
845.253	20043
845.389	20065
845.525	20043
845.661	20088
845.798	19871
845.934	19940
846.07	19959
846.206	19898
846.342	20062
846.478	19860
846.614	19639
846.75	19571
846.886	19597
847.022	19689
847.158	19674
847.294	19594
847.429	19586
847.565	19594
847.701	19715
847.837	19483
847.972	19228
848.108	19438
848.244	19320
848.379	19285
848.515	19266
848.65	19179
848.786	19065
848.921	19088
849.057	19179
849.192	19266
849.328	19141
849.463	19221
849.598	19107
849.734	18970
849.869	18913
850.004	18932
850.14	18897
850.275	18757
850.41	18787
850.545	18878
850.68	18890
850.815	18924
850.95	18791
851.085	19141
851.22	18951
851.355	18901
851.49	18802
851.625	18779
851.76	18738
851.895	18810
852.03	18734
852.165	18932
852.299	18924
852.434	18985
852.569	18894
852.703	18856
852.838	18856
852.973	18878
853.107	18954
853.242	18768
853.376	18692
853.511	18601
853.645	18635
853.78	18757
853.914	18844
854.048	18585
854.183	18654
854.317	18635
854.451	18859
854.585	18741
854.72	18692
854.854	18814
854.988	18654
855.122	18810
855.256	18506
855.39	18669
855.524	18749
855.658	18658
855.792	18608
855.926	18532
856.06	18734
856.194	18715
856.327	18646
856.461	18661
856.595	18665
856.729	18654
856.862	18726
856.996	18798
857.13	18753
857.263	18783
857.397	18779
857.53	18715
857.664	18700
857.797	18795
857.931	18814
858.064	18707
858.197	18776
858.331	18654
858.464	18582
858.597	18445
858.731	18661
858.864	18627
858.997	18646
859.13	18654
859.263	18688
859.396	18696
859.529	18642
859.662	18623
859.795	18661
859.928	18620
860.061	18745
860.194	18726
860.327	18601
860.46	18608
860.592	18642
860.725	18802
860.858	18768
860.99	18589
861.123	18456
861.256	18601
861.388	18681
861.521	19266
861.653	18593
861.786	18483
861.918	18437
862.05	18623
862.183	18719
862.315	18700
862.447	18639
862.58	18631
862.712	18460
862.844	18330
862.976	18407
863.108	18410
863.24	18658
863.372	18262
863.504	18308
863.636	18350
863.768	18376
863.9	18353
864.032	18346
864.164	18273
864.296	18361
864.428	18407
864.559	18338
864.691	18448
864.823	18353
864.954	18365
865.086	18346
865.217	18254
865.349	18186
865.48	18251
865.612	18235
865.743	18388
865.875	18273
866.006	18254
866.137	18296
866.269	18350
866.4	18197
866.531	18243
866.662	18144
866.793	18163
866.924	18292
867.055	18201
867.186	18178
867.317	18091
867.448	18087
867.579	18068
867.71	18197
867.841	18125
867.972	18167
868.103	18338
868.233	18228
868.364	18144
868.495	18228
868.625	18414
868.756	18479
868.886	18414
869.017	18399
869.147	18532
869.278	18658
869.408	18437
869.539	18486
869.669	18479
869.799	18494
869.929	18513
870.06	18525
870.19	18871
870.32	18734
870.45	18768
870.58	18840
870.71	18867
870.84	18863
870.97	18760
871.1	18764
871.23	19012
871.36	18928
871.489	18886
871.619	18890
871.749	18928
871.879	19065
872.008	19168
872.138	19004
872.267	19126
872.397	19008
872.526	18916
872.656	18916
872.785	18837
872.915	19053
873.044	19076
873.173	18993
873.303	19080
873.432	19091
873.561	19141
873.69	19091
873.819	19034
873.948	19187
874.077	19103
874.206	19046
874.335	19061
874.464	19209
874.593	19335
874.722	19312
874.851	19415
874.979	19320
875.108	19460
875.237	19297
875.365	19270
875.494	19343
875.623	19434
875.751	19278
875.88	19449
876.008	19430
876.136	19582
876.265	19666
876.393	19902
876.521	19864
876.65	19761
876.778	19731
876.906	19734
877.034	19609
877.162	19727
877.29	19670
877.418	19704
877.546	19814
877.674	19693
877.802	19677
877.93	19647
878.058	19658
878.185	19662
878.313	19791
878.441	19731
878.568	19594
878.696	19681
878.824	19647
878.951	19780
879.079	19906
879.206	19921
879.333	19852
879.461	19822
879.588	19864
879.715	19932
879.842	20073
879.97	19753
880.097	19510
880.224	19575
880.351	19715
880.478	19613
880.605	19529
880.732	19575
880.859	19811
880.986	19594
881.112	19624
881.239	19506
881.366	19331
881.493	19293
881.619	19247
881.746	19198
881.872	19217
881.999	19148
882.125	19221
882.252	19156
882.378	19202
882.505	19403
882.631	19263
882.757	18863
882.883	19000
883.01	19031
883.136	18776
883.262	18802
883.388	18848
883.514	18894
883.64	19080
883.766	18905
883.892	18757
884.018	18848
884.143	18962
884.269	19046
884.395	18757
884.52	18627
884.646	18669
884.772	18555
884.897	18540
885.023	18585
885.148	18688
885.274	18753
885.399	18703
885.524	18681
885.65	18612
885.775	18509
885.9	18486
886.025	18700
886.15	18661
886.275	18517
886.4	18536
886.525	18597
886.65	18585
886.775	18460
886.9	18642
887.025	18802
887.149	18681
887.274	18372
887.399	18395
887.523	18475
887.648	18243
887.773	18216
887.897	18395
888.021	18357
888.146	18323
888.27	18384
888.395	18513
888.519	18376
888.643	18395
888.767	18426
888.891	18235
889.015	18171
889.139	18152
889.263	18254
889.387	18342
889.511	18315
889.635	18380
889.759	18224
889.883	18148
890.006	18163
890.13	18258
890.254	18057
890.377	18270
890.501	17798
890.624	17946
890.748	17901
890.871	17859
890.995	17707
891.118	17695
891.241	17916
891.364	17802
891.488	17866
891.611	17718
891.734	17741
891.857	17771
891.98	17859
892.103	17805
892.226	17843
892.349	17828
892.471	17729
892.594	17707
892.717	17745
892.839	17805
892.962	17729
893.085	17737
893.207	17748
893.33	17661
893.452	17611
893.575	17767
893.697	17916
893.819	17908
893.941	17923
894.064	17939
894.186	17718
894.308	17551
894.43	17870
894.552	17988
894.674	17836
894.796	17817
894.918	17707
895.04	17771
895.161	17836
895.283	17767
895.405	17764
895.526	17847
895.648	17767
895.769	17714
895.891	17790
896.012	17908
896.134	17821
896.255	17824
896.376	17748
896.498	17828
896.619	17923
896.74	17828
896.861	17897
896.982	18167
897.103	18270
897.224	18159
897.345	18068
897.466	17988
897.587	17999
897.708	18106
897.828	18019
897.949	17980
898.07	17935
898.19	18041
898.311	18171
898.431	17946
898.552	18015
898.672	18136
898.792	18060
898.913	18136
899.033	17897
899.153	17847
899.273	17779
899.393	17855
899.513	17798
899.633	17866
899.753	17859
899.873	17680
899.993	17885
900.113	17729
900.232	17843
900.352	17676
900.472	17707
900.591	17600
900.711	17649
900.83	17608
900.95	17752
901.069	17714
901.189	17551
901.308	17490
901.427	17311
901.546	17181
901.665	17223
901.784	17372
901.904	17166
902.023	16961
902.141	16862
902.26	16843
902.379	16847
902.498	16778
902.617	16733
902.735	16790
902.854	16748
902.973	16733
903.091	16584
903.21	16436
903.328	16584
903.446	16348
903.565	16382
903.683	16261
903.801	16181
903.919	16344
904.038	16272
904.156	16078
904.274	16185
904.392	16025
904.51	16032
904.627	16021
904.745	16116
904.863	16162
904.981	15968
905.098	15709
905.216	15724
905.334	15724
905.451	15660
905.569	15717
905.686	15728
905.803	15656
905.921	15545
906.038	15633
906.155	15561
906.272	15351
906.389	15530
906.506	15367
906.623	15344
906.74	15195
906.857	15119
906.974	15165
907.091	15249
907.208	15412
907.324	15420
907.441	15199
907.557	15005
907.674	15085
907.79	14941
907.907	14925
908.023	15020
908.139	14883
908.256	15020
908.372	14864
908.488	14762
908.604	14815
908.72	14629
908.836	14640
908.952	14644
909.068	14769
909.184	14724
909.3	14769
909.415	14663
909.531	14670
909.647	14469
909.762	14522
909.878	14404
909.993	14514
910.108	14370
910.224	14301
910.339	14305
910.454	14370
910.57	14214
910.685	14180
910.8	14503
910.915	14396
911.03	14305
911.145	14077
911.259	14096
911.374	14077
911.489	13967
911.604	13978
911.718	13742
911.833	13947
911.947	13685
912.062	13700
912.176	13704
912.291	13753
912.405	13746
912.519	13871
912.633	13989
912.748	13814
912.862	13761
912.976	13636
913.09	13544
913.204	13571
913.318	13628
913.431	13700
913.545	13647
913.659	13757
913.772	13552
913.886	13495
914	13502
914.113	13487
914.226	13632
914.34	13514
914.453	13350
914.566	13586
914.68	13358
914.793	13346
914.906	13217
915.019	13183
915.132	13145
915.245	13084
915.358	13088
915.47	13171
915.583	13133
915.696	13221
915.809	13308
915.921	13255
916.034	13069
916.146	12970
916.259	13023
916.371	13126
916.483	13034
916.595	12966
916.708	13076
916.82	12993
916.932	12878
917.044	13053
917.156	12837
917.268	12817
917.38	12867
917.491	12833
917.603	12791
917.715	12802
917.826	12932
917.938	12760
918.049	12665
918.161	12859
918.272	12928
918.384	12890
918.495	12897
918.606	12677
918.717	12604
918.828	12677
918.939	12681
919.05	12623
919.161	12612
919.272	12448
919.383	12532
919.494	12707
919.604	12859
919.715	12692
919.826	12570
919.936	12544
920.047	12700
920.157	12669
920.267	12810
920.378	12593
920.488	12570
920.598	12757
920.708	12890
920.818	12734
920.928	12806
921.038	12928
921.148	12798
921.258	12631
921.368	12490
921.477	12372
921.587	12372
921.697	12243
921.806	12490
921.916	12266
922.025	12091
922.134	12068
922.244	12026
922.353	12136
922.462	11965
922.571	11771
922.68	11672
922.789	11680
922.898	11745
923.007	11657
923.116	11752
923.224	11630
923.333	11570
923.442	11611
923.55	11471
923.659	11562
923.767	11566
923.876	11581
923.984	11688
924.092	11520
924.201	11448
924.309	11463
924.417	11455
924.525	11516
924.633	11379
924.741	12167
924.849	11258
924.956	11417
925.064	11277
925.172	11239
925.279	11208
925.387	11235
925.494	11284
925.602	11334
925.709	11315
925.816	11109
925.924	11258
926.031	11250
926.138	11185
926.245	11261
926.352	11151
926.459	11250
926.566	11273
926.673	11170
926.779	11113
926.886	11045
926.993	10904
927.099	10900
927.206	10873
927.312	10797
927.419	10843
927.525	10889
927.631	10892
927.737	10729
927.843	10725
927.95	10660
928.056	10683
928.162	10721
928.267	10763
928.373	11326
928.479	10873
928.585	10561
928.69	10675
928.796	10733
928.901	10577
929.007	10466
929.112	10675
929.218	10573
929.323	10451
929.428	10462
929.533	10694
929.638	10390
929.743	10402
929.848	10462
929.953	10424
930.058	10382
930.163	10238
930.267	10204
930.372	10322
930.477	10051
930.581	10428
930.685	10223
930.79	10112
930.894	10021
930.998	10036
931.103	10128
931.207	9850
931.311	9812
931.415	9694
931.519	9515
931.623	9557
