Data from test_V78500241_1663.txt Node
Date: Fri Mar 25 14:45:17 CST 2022
User: usil
Spectrometer: V785-0024
Trigger mode: 0
Integration Time (sec): 4.000000E-1
Scans to average: 1
Nonlinearity correction enabled: false
Boxcar width: 0
Storing dark spectrum: false
XAxis mode: Wavelengths
Number of Pixels in Spectrum: 1024
>>>>>Begin Spectral Data<<<<<
801.071	22303
801.214	22192
801.356	21934
801.499	21854
801.641	21618
801.783	21583
801.926	21599
802.068	21591
802.211	21481
802.353	21428
802.496	21237
802.638	21176
802.78	20967
802.923	21005
803.065	20960
803.208	20948
803.35	20994
803.492	21135
803.635	21013
803.777	20960
803.919	21009
804.061	21283
804.204	21154
804.346	20899
804.488	20883
804.63	20998
804.773	20781
804.915	20864
805.057	21001
805.199	20895
805.341	21062
805.483	21070
805.626	21024
805.768	20861
805.91	20994
806.052	20921
806.194	20872
806.336	21005
806.478	20853
806.62	20792
806.762	20933
806.904	21020
807.046	21272
807.188	21207
807.33	21317
807.472	21268
807.614	21275
807.756	21199
807.898	21112
808.04	20986
808.182	21062
808.324	21024
808.465	21195
808.607	21142
808.749	21321
808.891	21492
809.033	21515
809.174	21401
809.316	21298
809.458	21348
809.6	21275
809.741	21443
809.883	21302
810.025	21500
810.166	21504
810.308	21492
810.45	21454
810.591	21317
810.733	21218
810.875	21138
811.016	20998
811.158	20899
811.299	21119
811.441	21226
811.582	21249
811.724	21161
811.865	21077
812.007	20998
812.148	21028
812.29	21062
812.431	21272
812.573	21260
812.714	21485
812.855	21660
812.997	21770
813.138	21861
813.279	21728
813.421	21648
813.562	21469
813.703	21336
813.845	21302
813.986	20967
814.127	20765
814.268	20674
814.41	20621
814.551	20655
814.692	20697
814.833	20564
814.974	20598
815.115	20659
815.256	20419
815.397	20526
815.539	20541
815.68	20366
815.821	20290
815.962	20404
816.103	20362
816.244	20161
816.385	20008
816.526	20111
816.666	20088
816.807	19761
816.948	19807
817.089	19890
817.23	19921
817.371	19700
817.512	19803
817.653	19833
817.793	19632
817.934	19769
818.075	19856
818.216	19780
818.356	19780
818.497	19518
818.638	19411
818.778	19362
818.919	19445
819.06	19476
819.2	19594
819.341	19639
819.481	19632
819.622	19791
819.762	19974
819.903	19909
820.043	19947
820.184	19734
820.324	19814
820.465	19791
820.605	19811
820.746	19696
820.886	19563
821.026	19655
821.167	19685
821.307	19685
821.447	19712
821.588	19506
821.728	19499
821.868	19297
822.008	19091
822.149	19168
822.289	19206
822.429	18882
822.569	18871
822.709	18825
822.849	18700
822.99	18604
823.13	18597
823.27	18559
823.41	18464
823.55	18517
823.69	18471
823.83	18479
823.97	18422
824.11	18262
824.25	18220
824.389	18285
824.529	18384
824.669	18239
824.809	18289
824.949	18315
825.089	18235
825.228	18186
825.368	18026
825.508	17988
825.648	18079
825.787	18083
825.927	18015
826.067	17950
826.206	18015
826.346	18007
826.485	18038
826.625	17961
826.765	18060
826.904	18079
827.044	17783
827.183	17665
827.323	17619
827.462	17722
827.601	17684
827.741	17627
827.88	17707
828.02	17707
828.159	17573
828.298	17665
828.437	17786
828.577	17707
828.716	17855
828.855	17539
828.994	17535
829.134	17463
829.273	17459
829.412	17398
829.551	17353
829.69	17296
829.829	17528
829.968	17520
830.107	17410
830.246	17376
830.385	17341
830.524	17391
830.663	17231
830.802	17105
830.941	17022
831.08	16976
831.219	17102
831.357	17174
831.496	17231
831.635	17006
831.774	16953
831.913	16999
832.051	16869
832.19	16911
832.329	16847
832.467	16733
832.606	16641
832.744	16706
832.883	16717
833.022	16759
833.16	16740
833.299	16778
833.437	16812
833.576	16816
833.714	16733
833.852	16885
833.991	16778
834.129	16778
834.267	16820
834.406	16816
834.544	16774
834.682	16721
834.821	16725
834.959	16953
835.097	16664
835.235	16812
835.373	16801
835.511	16835
835.65	16622
835.788	16611
835.926	16493
836.064	16455
836.202	16519
836.34	16713
836.478	16820
836.615	16656
836.753	16752
836.891	16778
837.029	16679
837.167	16637
837.305	16558
837.443	16527
837.58	16519
837.718	16630
837.856	16599
837.993	16470
838.131	16493
838.269	16512
838.406	16451
838.544	16341
838.681	16181
838.819	16291
838.956	16032
839.094	16055
839.231	16207
839.369	16265
839.506	16569
839.643	16341
839.781	16109
839.918	16040
840.055	16166
840.193	16101
840.33	16173
840.467	16010
840.604	16086
840.742	16348
840.879	15895
841.016	16131
841.153	15987
841.29	16272
841.427	16116
841.564	16154
841.701	16124
841.838	16055
841.975	15892
842.112	15941
842.249	15861
842.385	15922
842.522	16010
842.659	15876
842.796	15850
842.933	15964
843.069	15823
843.206	15812
843.343	15937
843.479	15888
843.616	15785
843.752	15671
843.889	15625
844.025	15835
844.162	15671
844.298	15884
844.435	15679
844.571	15511
844.708	15804
844.844	15774
844.98	15797
845.117	15732
845.253	15618
845.389	15519
845.525	15679
845.661	15549
845.798	15435
845.934	15504
846.07	15473
846.206	15561
846.342	15663
846.478	15428
846.614	15351
846.75	15108
846.886	15211
847.022	15218
847.158	15169
847.294	15237
847.429	15226
847.565	15192
847.701	15431
847.837	14960
847.972	14910
848.108	15032
848.244	14952
848.379	14845
848.515	14883
848.65	14800
848.786	14792
848.921	14781
849.057	14834
849.192	14899
849.328	14762
849.463	14830
849.598	14731
849.734	14750
849.869	14746
850.004	14564
850.14	14686
850.275	14541
850.41	14511
850.545	14511
850.68	14617
850.815	14533
850.95	14602
851.085	14727
851.22	14636
851.355	14617
851.49	14514
851.625	14499
851.76	14552
851.895	14530
852.03	14450
852.165	14568
852.299	14648
852.434	14667
852.569	14575
852.703	14590
852.838	14655
852.973	14712
853.107	14636
853.242	14454
853.376	14492
853.511	14332
853.645	14377
853.78	14564
853.914	14412
854.048	14366
854.183	14374
854.317	14415
854.451	14564
854.585	14438
854.72	14385
854.854	14488
854.988	14317
855.122	14400
855.256	14339
855.39	14423
855.524	14446
855.658	14556
855.792	14431
855.926	14442
856.06	14533
856.194	14579
856.327	14438
856.461	14480
856.595	14374
856.729	14370
856.862	14526
856.996	14473
857.13	14602
857.263	14594
857.397	14499
857.53	14465
857.664	14465
857.797	14431
857.931	14537
858.064	14568
858.197	14632
858.331	14530
858.464	14480
858.597	14301
858.731	14480
858.864	14438
858.997	14499
859.13	14499
859.263	14514
859.396	14454
859.529	14423
859.662	14480
859.795	14351
859.928	14473
860.061	14602
860.194	14667
860.327	14434
860.46	14492
860.592	14556
860.725	14629
860.858	14587
860.99	14423
861.123	14381
861.256	14351
861.388	14484
861.521	15043
861.653	14355
861.786	14355
861.918	14191
862.05	14374
862.183	14408
862.315	14431
862.447	14526
862.58	14355
862.712	14180
862.844	14100
862.976	14263
863.108	14206
863.24	14655
863.372	14069
863.504	14240
863.636	14153
863.768	14191
863.9	14183
864.032	14111
864.164	14202
864.296	14320
864.428	14282
864.559	14298
864.691	14309
864.823	14202
864.954	14244
865.086	14225
865.217	14191
865.349	14225
865.48	14161
865.612	14161
865.743	14278
865.875	14237
866.006	14130
866.137	14252
866.269	14248
866.4	14183
866.531	14073
866.662	14077
866.793	14172
866.924	14240
867.055	14126
867.186	14119
867.317	14210
867.448	14161
867.579	14161
867.71	14119
867.841	13997
867.972	14278
868.103	14202
868.233	14229
868.364	14176
868.495	14252
868.625	14434
868.756	14434
868.886	14412
869.017	14415
869.147	14476
869.278	14568
869.408	14499
869.539	14400
869.669	14533
869.799	14454
869.929	14613
870.06	14560
870.19	14788
870.32	14735
870.45	14769
870.58	14762
870.71	14986
870.84	15005
870.97	14731
871.1	14804
871.23	15089
871.36	15005
871.489	14967
871.619	15047
871.749	15036
871.879	15089
872.008	15165
872.138	15024
872.267	15051
872.397	14975
872.526	14826
872.656	14819
872.785	14872
872.915	15017
873.044	15138
873.173	15104
873.303	15070
873.432	15142
873.561	15211
873.69	15192
873.819	14979
873.948	15097
874.077	15032
874.206	15032
874.335	15142
874.464	15272
874.593	15329
874.722	15386
874.851	15382
874.979	15454
875.108	15420
875.237	15268
875.365	15359
875.494	15393
875.623	15412
875.751	15336
875.88	15496
876.008	15599
876.136	15439
876.265	15835
876.393	15888
876.521	15835
876.65	15949
876.778	15739
876.906	15709
877.034	15800
877.162	15854
877.29	15770
877.418	15778
877.546	15831
877.674	15747
877.802	15819
877.93	15739
878.058	15770
878.185	15633
878.313	15816
878.441	15895
878.568	15675
878.696	15865
878.824	15895
878.951	15911
879.079	15983
879.206	16215
879.333	15953
879.461	15880
879.588	15956
879.715	15918
879.842	16192
879.97	15895
880.097	15736
880.224	15629
880.351	15656
880.478	15660
880.605	15618
880.732	15679
880.859	15846
880.986	15622
881.112	15679
881.239	15458
881.366	15504
881.493	15344
881.619	15306
881.746	15268
881.872	15291
881.999	15298
882.125	15329
882.252	15321
882.378	15389
882.505	15488
882.631	15283
882.757	15123
882.883	15222
883.01	15188
883.136	15100
883.262	15055
883.388	15009
883.514	15241
883.64	15268
883.766	15135
883.892	14982
884.018	14979
884.143	15157
884.269	15256
884.395	14842
884.52	14785
884.646	14762
884.772	14864
884.897	14746
885.023	14845
885.148	14891
885.274	14986
885.399	15043
885.524	14864
885.65	14853
885.775	14891
885.9	14823
886.025	14880
886.15	14861
886.275	14785
886.4	14727
886.525	14823
886.65	14823
886.775	14731
886.9	14948
887.025	15001
887.149	14853
887.274	14708
887.399	14674
887.523	14632
887.648	14564
887.773	14530
887.897	14720
888.021	14667
888.146	14629
888.27	14819
888.395	14845
888.519	14682
888.643	14720
888.767	14731
888.891	14625
889.015	14587
889.139	14545
889.263	14530
889.387	14640
889.511	14781
889.635	14667
889.759	14537
889.883	14480
890.006	14579
890.13	14663
890.254	14434
890.377	14514
890.501	14381
890.624	14336
890.748	14396
890.871	14339
890.995	14210
891.118	14153
891.241	14290
891.364	14225
891.488	14332
891.611	14187
891.734	14248
891.857	14309
891.98	14237
892.103	14290
892.226	14237
892.349	14145
892.471	14126
892.594	14142
892.717	14259
892.839	14233
892.962	14267
893.085	14271
893.207	14210
893.33	14050
893.452	14138
893.575	14328
893.697	14191
893.819	14336
893.941	14431
894.064	14415
894.186	14149
894.308	14161
894.43	14332
894.552	14446
894.674	14320
894.796	14145
894.918	14218
895.04	14237
895.161	14408
895.283	14415
895.405	14218
895.526	14324
895.648	14206
895.769	14347
895.891	14495
896.012	14393
896.134	14446
896.255	14400
896.376	14332
896.498	14381
896.619	14370
896.74	14427
896.861	14412
896.982	14720
897.103	14910
897.224	14697
897.345	14708
897.466	14667
897.587	14724
897.708	14800
897.828	14849
897.949	14613
898.07	14568
898.19	14629
898.311	14921
898.431	14693
898.552	14678
898.672	14883
898.792	14823
898.913	14811
899.033	14686
899.153	14545
899.273	14469
899.393	14598
899.513	14583
899.633	14575
899.753	14625
899.873	14598
899.993	14670
900.113	14568
900.232	14602
900.352	14590
900.472	14488
900.591	14438
900.711	14389
900.83	14336
900.95	14655
901.069	14568
901.189	14355
901.308	14259
901.427	14123
901.546	14172
901.665	14168
901.784	14161
901.904	13959
902.023	14016
902.141	13833
902.26	13643
902.379	13769
902.498	13708
902.617	13647
902.735	13651
902.854	13704
902.973	13658
903.091	13472
903.21	13346
903.328	13449
903.446	13384
903.565	13236
903.683	13183
903.801	13198
903.919	13213
904.038	13225
904.156	13126
904.274	13202
904.392	13019
904.51	13080
904.627	13031
904.745	13152
904.863	13107
904.981	12909
905.098	12734
905.216	12753
905.334	12894
905.451	12738
905.569	12844
905.686	12802
905.803	12768
905.921	12578
906.038	12703
906.155	12623
906.272	12509
906.389	12509
906.506	12346
906.623	12441
906.74	12353
906.857	12346
906.974	12311
907.091	12399
907.208	12502
907.324	12418
907.441	12369
907.557	12136
907.674	12045
907.79	12049
907.907	12133
908.023	12155
908.139	12167
908.256	12015
908.372	11984
908.488	12079
908.604	11901
908.72	11813
908.836	11843
908.952	11859
909.068	11882
909.184	11977
909.3	11794
909.415	11889
909.531	11920
909.647	11699
909.762	11653
909.878	11608
909.993	11596
910.108	11646
910.224	11634
910.339	11646
910.454	11505
910.57	11482
910.685	11509
910.8	11794
910.915	11661
911.03	11566
911.145	11436
911.259	11356
911.374	11337
911.489	11212
911.604	11261
911.718	11060
911.833	11060
911.947	11090
912.062	10934
912.176	11025
912.291	11094
912.405	11124
912.519	11204
912.633	11402
912.748	11185
912.862	11075
912.976	11006
913.09	10881
913.204	10930
913.318	10965
913.431	11048
913.545	10942
913.659	11003
913.772	11010
913.886	10843
914	10790
914.113	10904
914.226	10942
914.34	10938
914.453	10790
914.566	10961
914.68	10866
914.793	10816
914.906	10653
915.019	10584
915.132	10542
915.245	10561
915.358	10618
915.47	10626
915.583	10717
915.696	10626
915.809	10679
915.921	10763
916.034	10558
916.146	10561
916.259	10577
916.371	10630
916.483	10656
916.595	10519
916.708	10440
916.82	10542
916.932	10470
917.044	10474
917.156	10523
917.268	10409
917.38	10432
917.491	10402
917.603	10436
917.715	10447
917.826	10485
917.938	10287
918.049	10375
918.161	10451
918.272	10512
918.384	10573
918.495	10455
918.606	10352
918.717	10234
918.828	10257
918.939	10394
919.05	10158
919.161	10341
919.272	10051
919.383	10177
919.494	10348
919.604	10470
919.715	10322
919.826	10246
919.936	10257
920.047	10394
920.157	10375
920.267	10508
920.378	10398
920.488	10371
920.598	10474
920.708	10664
920.818	10535
920.928	10573
921.038	10672
921.148	10668
921.258	10348
921.368	10230
921.477	10204
921.587	10192
921.697	9998
921.806	10234
921.916	10074
922.025	9941
922.134	9819
922.244	9778
922.353	9941
922.462	9732
922.571	9740
922.68	9576
922.789	9507
922.898	9534
923.007	9526
923.116	9625
923.224	9553
923.333	9515
923.442	9477
923.55	9405
923.659	9420
923.767	9542
923.876	9481
923.984	9526
924.092	9355
924.201	9393
924.309	9408
924.417	9412
924.525	9408
924.633	9420
924.741	10063
924.849	9184
924.956	9336
925.064	9214
925.172	9119
925.279	9154
925.387	9237
925.494	9169
925.602	9382
925.709	9291
925.816	9161
925.924	9184
926.031	9283
926.138	9222
926.245	9211
926.352	9146
926.459	9260
926.566	9355
926.673	9089
926.779	9039
926.886	9074
926.993	8990
927.099	8895
927.206	8792
927.312	8845
927.419	8902
927.525	8979
927.631	8952
927.737	8883
927.843	8826
927.95	8708
928.056	8766
928.162	8823
928.267	8880
928.373	9321
928.479	8914
928.585	8739
928.69	8743
928.796	8800
928.901	8705
929.007	8610
929.112	8746
929.218	8724
929.323	8678
929.428	8587
929.533	8743
929.638	8514
929.743	8625
929.848	8697
929.953	8625
930.058	8549
930.163	8434
930.267	8442
930.372	8518
930.477	8358
930.581	8598
930.685	8518
930.79	8309
930.894	8415
930.998	8377
931.103	8545
931.207	8149
931.311	8081
931.415	8050
931.519	7864
931.623	7826
