Data from test_V78500241_985.txt Node
Date: Fri Mar 25 14:40:34 CST 2022
User: usil
Spectrometer: V785-0024
Trigger mode: 0
Integration Time (sec): 4.000000E-1
Scans to average: 1
Nonlinearity correction enabled: false
Boxcar width: 0
Storing dark spectrum: false
XAxis mode: Wavelengths
Number of Pixels in Spectrum: 1024
>>>>>Begin Spectral Data<<<<<
801.071	23231
801.214	23227
801.356	22816
801.499	22820
801.641	22561
801.783	22580
801.926	22611
802.068	22497
802.211	22447
802.353	22280
802.496	22257
802.638	22139
802.78	21975
802.923	22010
803.065	22017
803.208	22067
803.35	21968
803.492	22116
803.635	22109
803.777	21915
803.919	21998
804.061	22249
804.204	21899
804.346	21873
804.488	21766
804.63	21869
804.773	21857
804.915	21930
805.057	22086
805.199	21812
805.341	21949
805.483	22010
805.626	21953
805.768	22002
805.91	22036
806.052	22029
806.194	21861
806.336	22070
806.478	22025
806.62	21975
806.762	22063
806.904	22150
807.046	22538
807.188	22386
807.33	22375
807.472	22478
807.614	22481
807.756	22573
807.898	22577
808.04	22500
808.182	22630
808.324	22812
808.465	23060
808.607	23421
808.749	23642
808.891	23832
809.033	23961
809.174	23657
809.316	23539
809.458	23402
809.6	23060
809.741	22995
809.883	22881
810.025	22748
810.166	22847
810.308	22573
810.45	22721
810.591	22588
810.733	22451
810.875	22226
811.016	22226
811.158	22207
811.299	22268
811.441	22253
811.582	22272
811.724	22166
811.865	22177
812.007	22177
812.148	22196
812.29	22059
812.431	22382
812.573	22512
812.714	22694
812.855	22706
812.997	22858
813.138	22771
813.279	22660
813.421	22596
813.562	22584
813.703	22405
813.845	22234
813.986	22013
814.127	21850
814.268	21732
814.41	21739
814.551	21743
814.692	21800
814.833	21644
814.974	21637
815.115	21671
815.256	21545
815.397	21549
815.539	21473
815.68	21428
815.821	21294
815.962	21473
816.103	21370
816.244	21203
816.385	21184
816.526	21062
816.666	20887
816.807	20849
816.948	20807
817.089	20967
817.23	20910
817.371	20830
817.512	20830
817.653	20743
817.793	20727
817.934	20864
818.075	20811
818.216	20731
818.356	20701
818.497	20659
818.638	20404
818.778	20541
818.919	20533
819.06	20590
819.2	20606
819.341	20689
819.481	20765
819.622	20804
819.762	20967
819.903	20891
820.043	20883
820.184	20849
820.324	20705
820.465	20864
820.605	20849
820.746	20811
820.886	20701
821.026	20743
821.167	20754
821.307	20746
821.447	20640
821.588	20655
821.728	20408
821.868	20233
822.008	20183
822.149	20149
822.289	20088
822.429	19917
822.569	19879
822.709	19814
822.849	19635
822.99	19677
823.13	19681
823.27	19575
823.41	19476
823.55	19312
823.69	19552
823.83	19571
823.97	19453
824.11	19160
824.25	19266
824.389	19232
824.529	19400
824.669	19099
824.809	19426
824.949	19274
825.089	19266
825.228	19236
825.368	19065
825.508	19099
825.648	19027
825.787	18966
825.927	19019
826.067	19008
826.206	18970
826.346	19080
826.485	19031
826.625	18897
826.765	19137
826.904	18962
827.044	18791
827.183	18719
827.323	18696
827.462	18802
827.601	18722
827.741	18715
827.88	18715
828.02	18555
828.159	18738
828.298	18620
828.437	18658
828.577	18601
828.716	18711
828.855	18612
828.994	18517
829.134	18422
829.273	18448
829.412	18452
829.551	18330
829.69	18342
829.829	18365
829.968	18467
830.107	18494
830.246	18418
830.385	18418
830.524	18315
830.663	18159
830.802	18114
830.941	18026
831.08	17961
831.219	18053
831.357	18106
831.496	18190
831.635	18011
831.774	18007
831.913	17874
832.051	17920
832.19	17737
832.329	17805
832.467	17687
832.606	17661
832.744	17718
832.883	17684
833.022	17752
833.16	17741
833.299	17745
833.437	17790
833.576	17745
833.714	17863
833.852	17939
833.991	17836
834.129	17954
834.267	17942
834.406	17843
834.544	17851
834.682	17821
834.821	17729
834.959	17939
835.097	17752
835.235	17870
835.373	17767
835.511	17802
835.65	17767
835.788	17714
835.926	17524
836.064	17520
836.202	17421
836.34	17566
836.478	17668
836.615	17642
836.753	17657
836.891	17695
837.029	17653
837.167	17668
837.305	17543
837.443	17501
837.58	17535
837.718	17615
837.856	17547
837.993	17444
838.131	17433
838.269	17395
838.406	17433
838.544	17425
838.681	17307
838.819	17147
838.956	17060
839.094	16968
839.231	17090
839.369	17170
839.506	17421
839.643	17322
839.781	17010
839.918	17071
840.055	17117
840.193	17006
840.33	17003
840.467	17037
840.604	17083
840.742	17254
840.879	16847
841.016	16987
841.153	16915
841.29	17064
841.427	17048
841.564	16949
841.701	17022
841.838	16972
841.975	16987
842.112	16984
842.249	16881
842.385	16744
842.522	16984
842.659	16850
842.796	16816
842.933	16862
843.069	16740
843.206	16694
843.343	16812
843.479	16824
843.616	16877
843.752	16611
843.889	16664
844.025	16801
844.162	16500
844.298	16668
844.435	16577
844.571	16485
844.708	16611
844.844	16752
844.98	16889
845.117	16820
845.253	16668
845.389	16767
845.525	16976
845.661	17231
845.798	17608
845.934	17923
846.07	18102
846.206	18095
846.342	17897
846.478	17486
846.614	16869
846.75	16550
846.886	16303
847.022	16386
847.158	16284
847.294	16207
847.429	16226
847.565	16101
847.701	16421
847.837	15945
847.972	15842
848.108	15926
848.244	15888
848.379	15823
848.515	15637
848.65	15709
848.786	15667
848.921	15781
849.057	15812
849.192	15698
849.328	15637
849.463	15705
849.598	15698
849.734	15686
849.869	15610
850.004	15477
850.14	15507
850.275	15488
850.41	15416
850.545	15416
850.68	15435
850.815	15435
850.95	15431
851.085	15652
851.22	15595
851.355	15477
851.49	15500
851.625	15496
851.76	15481
851.895	15317
852.03	15298
852.165	15393
852.299	15462
852.434	15542
852.569	15454
852.703	15355
852.838	15576
852.973	15542
853.107	15614
853.242	15431
853.376	15348
853.511	15245
853.645	15203
853.78	15473
853.914	15344
854.048	15313
854.183	15188
854.317	15355
854.451	15549
854.585	15317
854.72	15298
854.854	15420
854.988	15260
855.122	15279
855.256	15146
855.39	15264
855.524	15298
855.658	15348
855.792	15416
855.926	15382
856.06	15408
856.194	15458
856.327	15294
856.461	15195
856.595	15249
856.729	15256
856.862	15370
856.996	15302
857.13	15348
857.263	15401
857.397	15473
857.53	15237
857.664	15393
857.797	15370
857.931	15496
858.064	15310
858.197	15454
858.331	15332
858.464	15249
858.597	15226
858.731	15287
858.864	15237
858.997	15378
859.13	15237
859.263	15279
859.396	15363
859.529	15291
859.662	15260
859.795	15306
859.928	15332
860.061	15412
860.194	15519
860.327	15306
860.46	15325
860.592	15382
860.725	15439
860.858	15397
860.99	15370
861.123	15241
861.256	15310
861.388	15344
861.521	15899
861.653	15146
861.786	15195
861.918	15146
862.05	15203
862.183	15321
862.315	15260
862.447	15336
862.58	15283
862.712	15036
862.844	14998
862.976	15169
863.108	15070
863.24	15523
863.372	14979
863.504	15123
863.636	15036
863.768	15085
863.9	14986
864.032	15077
864.164	15058
864.296	15077
864.428	15173
864.559	15070
864.691	15157
864.823	15131
864.954	15005
865.086	15039
865.217	14967
865.349	15047
865.48	14982
865.612	15017
865.743	15184
865.875	15024
866.006	15028
866.137	15085
866.269	15024
866.4	15089
866.531	15009
866.662	14921
866.793	14971
866.924	15089
867.055	15058
867.186	15032
867.317	14960
867.448	14849
867.579	14956
867.71	14929
867.841	14891
867.972	15001
868.103	14975
868.233	15028
868.364	15058
868.495	15108
868.625	15252
868.756	15374
868.886	15173
869.017	15245
869.147	15370
869.278	15378
869.408	15256
869.539	15226
869.669	15287
869.799	15325
869.929	15408
870.06	15420
870.19	15618
870.32	15644
870.45	15553
870.58	15682
870.71	15698
870.84	15751
870.97	15652
871.1	15713
871.23	15899
871.36	15789
871.489	15778
871.619	15778
871.749	15755
871.879	15823
872.008	15949
872.138	15873
872.267	15861
872.397	15739
872.526	15705
872.656	15762
872.785	15663
872.915	15857
873.044	15934
873.173	15918
873.303	15842
873.432	16002
873.561	16128
873.69	15899
873.819	15884
873.948	15930
874.077	16017
874.206	15922
874.335	15987
874.464	16040
874.593	16219
874.722	16192
874.851	16333
874.979	16249
875.108	16329
875.237	16246
875.365	16211
875.494	16204
875.623	16375
875.751	16223
875.88	16310
876.008	16344
876.136	16440
876.265	16691
876.393	16824
876.521	16717
876.65	16759
876.778	16778
876.906	16645
877.034	16599
877.162	16637
877.29	16641
877.418	16668
877.546	16824
877.674	16645
877.802	16763
877.93	16717
878.058	16660
878.185	16615
878.313	16752
878.441	16774
878.568	16733
878.696	16733
878.824	16896
878.951	17010
879.079	17189
879.206	17486
879.333	17532
879.461	17501
879.588	17512
879.715	17733
879.842	17752
879.97	17490
880.097	17083
880.224	16949
880.351	16889
880.478	16892
880.605	16755
880.732	16774
880.859	17014
880.986	16660
881.112	16812
881.239	16607
881.366	16493
881.493	16447
881.619	16268
881.746	16417
881.872	16459
881.999	16405
882.125	16363
882.252	16341
882.378	16409
882.505	16527
882.631	16299
882.757	16185
882.883	16242
883.01	16124
883.136	16215
883.262	16086
883.388	15968
883.514	16181
883.64	16169
883.766	16051
883.892	15956
884.018	16112
884.143	16211
884.269	16287
884.395	16013
884.52	15880
884.646	15831
884.772	15861
884.897	15835
885.023	15831
885.148	16013
885.274	16044
885.399	15842
885.524	15880
885.65	15865
885.775	15907
885.9	15789
886.025	15953
886.15	15880
886.275	15736
886.4	15679
886.525	15739
886.65	15759
886.775	15709
886.9	15907
887.025	15991
887.149	15835
887.274	15622
887.399	15644
887.523	15637
887.648	15534
887.773	15530
887.897	15564
888.021	15652
888.146	15542
888.27	15557
888.395	15591
888.519	15587
888.643	15572
888.767	15656
888.891	15534
889.015	15462
889.139	15443
889.263	15477
889.387	15443
889.511	15538
889.635	15481
889.759	15401
889.883	15332
890.006	15412
890.13	15450
890.254	15302
890.377	15397
890.501	15241
890.624	15150
890.748	15203
890.871	15154
890.995	14971
891.118	14986
891.241	15097
891.364	14998
891.488	15108
891.611	14990
891.734	15074
891.857	15131
891.98	15131
892.103	15176
892.226	14979
892.349	15089
892.471	14842
892.594	15017
892.717	14990
892.839	15013
892.962	15001
893.085	15108
893.207	14933
893.33	14899
893.452	14994
893.575	14956
893.697	14895
893.819	15260
893.941	15154
894.064	15169
894.186	14906
894.308	14902
894.43	15150
894.552	15146
894.674	15192
894.796	14967
894.918	15093
895.04	15001
895.161	15199
895.283	15188
895.405	14944
895.526	15081
895.648	15070
895.769	15047
895.891	15157
896.012	15211
896.134	15161
896.255	15142
896.376	15077
896.498	15100
896.619	15237
896.74	15077
896.861	15188
896.982	15458
897.103	15701
897.224	15496
897.345	15386
897.466	15317
897.587	15348
897.708	15576
897.828	15393
897.949	15420
898.07	15256
898.19	15507
898.311	15568
898.431	15462
898.552	15359
898.672	15572
898.792	15625
898.913	15507
899.033	15382
899.153	15302
899.273	15294
899.393	15355
899.513	15321
899.633	15344
899.753	15355
899.873	15325
899.993	15378
900.113	15287
900.232	15310
900.352	15340
900.472	15325
900.591	15249
900.711	15180
900.83	15127
900.95	15283
901.069	15272
901.189	15142
901.308	14963
901.427	14921
901.546	14925
901.665	14986
901.784	14883
901.904	14743
902.023	14659
902.141	14568
902.26	14450
902.379	14476
902.498	14415
902.617	14324
902.735	14400
902.854	14381
902.973	14240
903.091	14229
903.21	14126
903.328	14088
903.446	14039
903.565	14005
903.683	13989
903.801	13761
903.919	13936
904.038	13974
904.156	13723
904.274	13833
904.392	13772
904.51	13620
904.627	13734
904.745	13833
904.863	13818
904.981	13552
905.098	13445
905.216	13548
905.334	13403
905.451	13384
905.569	13449
905.686	13483
905.803	13362
905.921	13274
906.038	13362
906.155	13308
906.272	13122
906.389	13175
906.506	12993
906.623	12993
906.74	13027
906.857	12882
906.974	12951
907.091	13031
907.208	13221
907.324	13080
907.441	12894
907.557	12711
907.674	12646
907.79	12547
907.907	12696
908.023	12730
908.139	12726
908.256	12623
908.372	12642
908.488	12593
908.604	12578
908.72	12464
908.836	12517
908.952	12437
909.068	12467
909.184	12570
909.3	12426
909.415	12513
909.531	12547
909.647	12308
909.762	12159
909.878	12175
909.993	12110
910.108	12155
910.224	12152
910.339	12102
910.454	12136
910.57	12022
910.685	12072
910.8	12247
910.915	12190
911.03	12144
911.145	11958
911.259	11889
911.374	11954
911.489	11809
911.604	11710
911.718	11714
911.833	11707
911.947	11604
912.062	11501
912.176	11657
912.291	11710
912.405	11627
912.519	11855
912.633	11878
912.748	11756
912.862	11611
912.976	11558
913.09	11444
913.204	11463
913.318	11634
913.431	11589
913.545	11566
913.659	11608
913.772	11627
913.886	11459
914	11330
914.113	11539
914.226	11562
914.34	11452
914.453	11353
914.566	11421
914.68	11341
914.793	11368
914.906	11102
915.019	11117
915.132	11029
915.245	11105
915.358	11136
915.47	11155
915.583	11045
915.696	11277
915.809	11360
915.921	11265
916.034	11075
916.146	11060
916.259	11018
916.371	11189
916.483	11128
916.595	10987
916.708	11064
916.82	11132
916.932	10938
917.044	11041
917.156	11037
917.268	10835
917.38	10976
917.491	10923
917.603	10934
917.715	10980
917.826	11033
917.938	10961
918.049	10824
918.161	10953
918.272	11094
918.384	11064
918.495	10934
918.606	10771
918.717	10733
918.828	10835
918.939	10778
919.05	10725
919.161	10782
919.272	10622
919.383	10694
919.494	10816
919.604	10968
919.715	10828
919.826	10717
919.936	10797
920.047	10949
920.157	10801
920.267	10995
920.378	10828
920.488	10809
920.598	10968
920.708	11113
920.818	10995
920.928	11033
921.038	11197
921.148	11197
921.258	10873
921.368	10752
921.477	10653
921.587	10672
921.697	10531
921.806	10637
921.916	10504
922.025	10322
922.134	10265
922.244	10268
922.353	10367
922.462	10204
922.571	10131
922.68	10059
922.789	10006
922.898	9975
923.007	10002
923.116	10105
923.224	9964
923.333	10032
923.442	9865
923.55	9922
923.659	9918
923.767	9983
923.876	9854
923.984	9899
924.092	9835
924.201	9934
924.309	9892
924.417	9861
924.525	9816
924.633	9850
924.741	10725
924.849	9679
924.956	9819
925.064	9679
925.172	9580
925.279	9603
925.387	9709
925.494	9648
925.602	9762
925.709	9751
925.816	9572
925.924	9587
926.031	9720
926.138	9648
926.245	9660
926.352	9542
926.459	9682
926.566	9732
926.673	9622
926.779	9462
926.886	9469
926.993	9393
927.099	9374
927.206	9294
927.312	9340
927.419	9298
927.525	9416
927.631	9435
927.737	9241
927.843	9230
927.95	9024
928.056	9207
928.162	9317
928.267	9214
928.373	9762
928.479	9336
928.585	9123
928.69	9249
928.796	9313
928.901	9123
929.007	9081
929.112	9135
929.218	9066
929.323	9077
929.428	9001
929.533	9180
929.638	8998
929.743	9043
929.848	9047
929.953	9024
930.058	8929
930.163	8758
930.267	8815
930.372	8876
930.477	8739
930.581	9039
930.685	8838
930.79	8739
930.894	8746
930.998	8629
931.103	8857
931.207	8503
931.311	8476
931.415	8442
931.519	8187
931.623	8237
