Data from test_V78500241_2092.txt Node
Date: Fri Mar 25 14:48:16 CST 2022
User: usil
Spectrometer: V785-0024
Trigger mode: 0
Integration Time (sec): 4.000000E-1
Scans to average: 1
Nonlinearity correction enabled: false
Boxcar width: 0
Storing dark spectrum: false
XAxis mode: Wavelengths
Number of Pixels in Spectrum: 1024
>>>>>Begin Spectral Data<<<<<
801.071	22223
801.214	21968
801.356	21724
801.499	21724
801.641	21599
801.783	21450
801.926	21523
802.068	21408
802.211	21424
802.353	21279
802.496	20986
802.638	20929
802.78	20925
802.923	20925
803.065	20754
803.208	20716
803.35	20899
803.492	20876
803.635	20952
803.777	20876
803.919	20902
804.061	21294
804.204	20933
804.346	20781
804.488	20663
804.63	20796
804.773	20758
804.915	20792
805.057	20838
805.199	20625
805.341	20864
805.483	20952
805.626	20941
805.768	20678
805.91	20826
806.052	20861
806.194	20743
806.336	20815
806.478	20708
806.62	20746
806.762	20864
806.904	20982
807.046	21131
807.188	20982
807.33	21138
807.472	21051
807.614	20967
807.756	21017
807.898	20937
808.04	20746
808.182	20743
808.324	20956
808.465	20872
808.607	21077
808.749	21154
808.891	21260
809.033	21237
809.174	21123
809.316	21017
809.458	21116
809.6	21131
809.741	21195
809.883	21287
810.025	21275
810.166	21268
810.308	21367
810.45	21340
810.591	21116
810.733	21001
810.875	20842
811.016	20762
811.158	20895
811.299	20853
811.441	20986
811.582	20967
811.724	20800
811.865	20788
812.007	20918
812.148	20845
812.29	20880
812.431	21070
812.573	21184
812.714	21245
812.855	21412
812.997	21507
813.138	21488
813.279	21473
813.421	21428
813.562	21272
813.703	21089
813.845	21081
813.986	20769
814.127	20530
814.268	20412
814.41	20587
814.551	20442
814.692	20533
814.833	20408
814.974	20396
815.115	20404
815.256	20320
815.397	20385
815.539	20305
815.68	20199
815.821	20240
815.962	20138
816.103	20096
816.244	20008
816.385	19909
816.526	19947
816.666	19772
816.807	19556
816.948	19609
817.089	19662
817.23	19624
817.371	19582
817.512	19597
817.653	19605
817.793	19514
817.934	19567
818.075	19628
818.216	19685
818.356	19575
818.497	19362
818.638	19213
818.778	19339
818.919	19236
819.06	19362
819.2	19350
819.341	19449
819.481	19457
819.622	19655
819.762	19696
819.903	19670
820.043	19620
820.184	19468
820.324	19605
820.465	19655
820.605	19655
820.746	19559
820.886	19563
821.026	19464
821.167	19559
821.307	19590
821.447	19468
821.588	19335
821.728	19312
821.868	19198
822.008	18928
822.149	19042
822.289	18928
822.429	18779
822.569	18726
822.709	18642
822.849	18285
822.99	18460
823.13	18407
823.27	18445
823.41	18300
823.55	18224
823.69	18140
823.83	18270
823.97	18190
824.11	18026
824.25	17920
824.389	17969
824.529	18117
824.669	18026
824.809	18178
824.949	18125
825.089	18110
825.228	18003
825.368	17874
825.508	17714
825.648	17703
825.787	17882
825.927	17878
826.067	17771
826.206	17767
826.346	17870
826.485	17767
826.625	17745
826.765	17984
826.904	17813
827.044	17573
827.183	17634
827.323	17486
827.462	17661
827.601	17505
827.741	17448
827.88	17497
828.02	17410
828.159	17414
828.298	17528
828.437	17600
828.577	17436
828.716	17596
828.855	17410
828.994	17326
829.134	17170
829.273	17326
829.412	17277
829.551	17235
829.69	17166
829.829	17299
829.968	17387
830.107	17391
830.246	17246
830.385	17220
830.524	17208
830.663	17064
830.802	16946
830.941	16767
831.08	16797
831.219	16938
831.357	16904
831.496	17056
831.635	16854
831.774	16820
831.913	16691
832.051	16622
832.19	16679
832.329	16710
832.467	16622
832.606	16436
832.744	16569
832.883	16607
833.022	16584
833.16	16618
833.299	16618
833.437	16485
833.576	16622
833.714	16596
833.852	16588
833.991	16607
834.129	16717
834.267	16672
834.406	16656
834.544	16634
834.682	16634
834.821	16653
834.959	16725
835.097	16577
835.235	16618
835.373	16713
835.511	16569
835.65	16424
835.788	16542
835.926	16436
836.064	16329
836.202	16409
836.34	16512
836.478	16542
836.615	16550
836.753	16546
836.891	16565
837.029	16451
837.167	16527
837.305	16485
837.443	16344
837.58	16352
837.718	16565
837.856	16379
837.993	16409
838.131	16402
838.269	16436
838.406	16367
838.544	16287
838.681	16071
838.819	16131
838.956	15857
839.094	15953
839.231	15930
839.369	16109
839.506	16306
839.643	16169
839.781	15953
839.918	15956
840.055	15968
840.193	15888
840.33	15884
840.467	15911
840.604	15998
840.742	16246
840.879	15846
841.016	15846
841.153	15762
841.29	16112
841.427	15812
841.564	15918
841.701	16010
841.838	16063
841.975	15800
842.112	15846
842.249	15667
842.385	15633
842.522	15816
842.659	15717
842.796	15747
842.933	15789
843.069	15694
843.206	15713
843.343	15679
843.479	15717
843.616	15804
843.752	15568
843.889	15454
844.025	15663
844.162	15526
844.298	15629
844.435	15534
844.571	15454
844.708	15606
844.844	15568
844.98	15652
845.117	15641
845.253	15488
845.389	15416
845.525	15416
845.661	15291
845.798	15336
845.934	15359
846.07	15226
846.206	15340
846.342	15435
846.478	15268
846.614	15097
846.75	15116
846.886	15074
847.022	15112
847.158	15077
847.294	15199
847.429	15058
847.565	15081
847.701	15313
847.837	14823
847.972	14743
848.108	14891
848.244	14765
848.379	14621
848.515	14583
848.65	14663
848.786	14716
848.921	14663
849.057	14746
849.192	14864
849.328	14705
849.463	14731
849.598	14598
849.734	14575
849.869	14571
850.004	14389
850.14	14450
850.275	14507
850.41	14381
850.545	14343
850.68	14454
850.815	14488
850.95	14396
851.085	14575
851.22	14530
851.355	14419
851.49	14393
851.625	14419
851.76	14336
851.895	14317
852.03	14370
852.165	14404
852.299	14499
852.434	14564
852.569	14484
852.703	14564
852.838	14492
852.973	14541
853.107	14560
853.242	14442
853.376	14347
853.511	14229
853.645	14191
853.78	14419
853.914	14366
854.048	14214
854.183	14256
854.317	14233
854.451	14503
854.585	14309
854.72	14206
854.854	14324
854.988	14317
855.122	14229
855.256	14134
855.39	14244
855.524	14446
855.658	14355
855.792	14427
855.926	14275
856.06	14404
856.194	14514
856.327	14324
856.461	14347
856.595	14317
856.729	14275
856.862	14434
856.996	14385
857.13	14473
857.263	14457
857.397	14556
857.53	14332
857.664	14343
857.797	14396
857.931	14412
858.064	14347
858.197	14442
858.331	14381
858.464	14256
858.597	14259
858.731	14240
858.864	14317
858.997	14393
859.13	14286
859.263	14423
859.396	14355
859.529	14415
859.662	14225
859.795	14248
859.928	14374
860.061	14442
860.194	14454
860.327	14290
860.46	14408
860.592	14427
860.725	14450
860.858	14408
860.99	14400
861.123	14145
861.256	14233
861.388	14294
861.521	14952
861.653	14183
861.786	14172
861.918	14206
862.05	14191
862.183	14214
862.315	14317
862.447	14328
862.58	14278
862.712	14081
862.844	14100
862.976	14206
863.108	14149
863.24	14419
863.372	14111
863.504	14100
863.636	14126
863.768	14062
863.9	14142
864.032	13978
864.164	14107
864.296	14096
864.428	14172
864.559	14176
864.691	14195
864.823	14096
864.954	14202
865.086	14084
865.217	14016
865.349	13925
865.48	14062
865.612	14062
865.743	14153
865.875	14096
866.006	14050
866.137	14142
866.269	14126
866.4	14046
866.531	14119
866.662	14020
866.793	14050
866.924	14024
867.055	14206
867.186	14069
867.317	14031
867.448	14100
867.579	13967
867.71	14031
867.841	13936
867.972	14024
868.103	14016
868.233	14069
868.364	14092
868.495	14183
868.625	14259
868.756	14358
868.886	14282
869.017	14389
869.147	14431
869.278	14446
869.408	14370
869.539	14317
869.669	14305
869.799	14286
869.929	14480
870.06	14465
870.19	14663
870.32	14621
870.45	14640
870.58	14648
870.71	14697
870.84	14781
870.97	14632
871.1	14632
871.23	14895
871.36	14906
871.489	14815
871.619	14872
871.749	14975
871.879	14998
872.008	14948
872.138	14952
872.267	14864
872.397	14754
872.526	14807
872.656	14834
872.785	14815
872.915	14956
873.044	15005
873.173	15013
873.303	15085
873.432	14944
873.561	15051
873.69	15020
873.819	14937
873.948	14948
874.077	15013
874.206	14853
874.335	14944
874.464	15093
874.593	15256
874.722	15214
874.851	15306
874.979	15325
875.108	15344
875.237	15275
875.365	15138
875.494	15233
875.623	15332
875.751	15287
875.88	15279
876.008	15382
876.136	15507
876.265	15694
876.393	15812
876.521	15861
876.65	15793
876.778	15641
876.906	15644
877.034	15717
877.162	15652
877.29	15633
877.418	15705
877.546	15751
877.674	15709
877.802	15736
877.93	15739
878.058	15622
878.185	15542
878.313	15622
878.441	15819
878.568	15698
878.696	15610
878.824	15747
878.951	15732
879.079	15922
879.206	15987
879.333	15812
879.461	15759
879.588	15789
879.715	15941
879.842	15972
879.97	15800
880.097	15553
880.224	15603
880.351	15587
880.478	15591
880.605	15447
880.732	15507
880.859	15762
880.986	15542
881.112	15534
881.239	15511
881.366	15291
881.493	15275
881.619	15252
881.746	15230
881.872	15256
881.999	15230
882.125	15241
882.252	15317
882.378	15287
882.505	15420
882.631	15142
882.757	15055
882.883	14971
883.01	15089
883.136	14857
883.262	14864
883.388	14823
883.514	15058
883.64	15024
883.766	15043
883.892	14834
884.018	14864
884.143	15093
884.269	15146
884.395	14815
884.52	14792
884.646	14697
884.772	14613
884.897	14636
885.023	14674
885.148	14830
885.274	14914
885.399	14849
885.524	14785
885.65	14636
885.775	14762
885.9	14727
886.025	14849
886.15	14853
886.275	14705
886.4	14571
886.525	14720
886.65	14731
886.775	14632
886.9	14758
887.025	14944
887.149	14705
887.274	14613
887.399	14507
887.523	14476
887.648	14537
887.773	14457
887.897	14674
888.021	14686
888.146	14556
888.27	14617
888.395	14590
888.519	14568
888.643	14701
888.767	14632
888.891	14549
889.015	14419
889.139	14495
889.263	14461
889.387	14583
889.511	14648
889.635	14526
889.759	14488
889.883	14400
890.006	14389
890.13	14606
890.254	14324
890.377	14412
890.501	14240
890.624	14180
890.748	14317
890.871	14142
890.995	14046
891.118	13982
891.241	14001
891.364	14119
891.488	14233
891.611	14138
891.734	14142
891.857	14183
891.98	14172
892.103	14221
892.226	14062
892.349	14119
892.471	13997
892.594	14119
892.717	14168
892.839	14119
892.962	14172
893.085	14221
893.207	14138
893.33	13989
893.452	14050
893.575	14191
893.697	14195
893.819	14358
893.941	14370
894.064	14336
894.186	14195
894.308	14092
894.43	14332
894.552	14313
894.674	14278
894.796	14111
894.918	14221
895.04	14134
895.161	14301
895.283	14221
895.405	14119
895.526	14183
895.648	14267
895.769	14313
895.891	14286
896.012	14218
896.134	14358
896.255	14244
896.376	14294
896.498	14328
896.619	14389
896.74	14366
896.861	14377
896.982	14590
897.103	14823
897.224	14560
897.345	14492
897.466	14492
897.587	14644
897.708	14621
897.828	14556
897.949	14568
898.07	14461
898.19	14533
898.311	14670
898.431	14636
898.552	14739
898.672	14689
898.792	14743
898.913	14682
899.033	14606
899.153	14503
899.273	14419
899.393	14476
899.513	14602
899.633	14488
899.753	14594
899.873	14381
899.993	14530
900.113	14423
900.232	14522
900.352	14495
900.472	14457
900.591	14187
900.711	14381
900.83	14221
900.95	14473
901.069	14499
901.189	14309
901.308	14046
901.427	14024
901.546	14123
901.665	14103
901.784	14062
901.904	13913
902.023	13856
902.141	13700
902.26	13628
902.379	13731
902.498	13594
902.617	13518
902.735	13662
902.854	13655
902.973	13483
903.091	13358
903.21	13259
903.328	13350
903.446	13198
903.565	13217
903.683	13126
903.801	13080
903.919	13095
904.038	13217
904.156	13072
904.274	13057
904.392	12966
904.51	12958
904.627	12901
904.745	13004
904.863	13076
904.981	12768
905.098	12673
905.216	12662
905.334	12741
905.451	12688
905.569	12654
905.686	12703
905.803	12646
905.921	12513
906.038	12551
906.155	12585
906.272	12376
906.389	12395
906.506	12277
906.623	12228
906.74	12281
906.857	12114
906.974	12228
907.091	12418
907.208	12350
907.324	12330
907.441	12216
907.557	12049
907.674	11977
907.79	12007
907.907	12034
908.023	12019
908.139	12026
908.256	11939
908.372	11954
908.488	11996
908.604	11817
908.72	11764
908.836	11798
908.952	11779
909.068	11840
909.184	11847
909.3	11802
909.415	11843
909.531	11764
909.647	11520
909.762	11592
909.878	11551
909.993	11646
910.108	11455
910.224	11501
910.339	11554
910.454	11486
910.57	11482
910.685	11349
910.8	11676
910.915	11505
911.03	11455
911.145	11277
911.259	11189
911.374	11269
911.489	11105
911.604	11166
911.718	10938
911.833	10930
911.947	10930
912.062	10820
912.176	10946
912.291	11045
912.405	10919
912.519	11223
912.633	11235
912.748	11064
912.862	10972
912.976	10911
913.09	10744
913.204	10850
913.318	10896
913.431	11033
913.545	10984
913.659	10968
913.772	10847
913.886	10812
914	10729
914.113	10869
914.226	10866
914.34	10866
914.453	10687
914.566	10771
914.68	10710
914.793	10752
914.906	10580
915.019	10447
915.132	10466
915.245	10478
915.358	10466
915.47	10459
915.583	10504
915.696	10493
915.809	10668
915.921	10687
916.034	10481
916.146	10421
916.259	10352
916.371	10554
916.483	10512
916.595	10405
916.708	10451
916.82	10402
916.932	10447
917.044	10413
917.156	10436
917.268	10272
917.38	10306
917.491	10295
917.603	10352
917.715	10436
917.826	10455
917.938	10303
918.049	10177
918.161	10329
918.272	10447
918.384	10413
918.495	10352
918.606	10261
918.717	10181
918.828	10276
918.939	10177
919.05	10147
919.161	10158
919.272	10013
919.383	9994
919.494	10268
919.604	10504
919.715	10299
919.826	10188
919.936	10211
920.047	10318
920.157	10246
920.267	10405
920.378	10314
920.488	10211
920.598	10443
920.708	10493
920.818	10432
920.928	10417
921.038	10542
921.148	10527
921.258	10219
921.368	10238
921.477	10124
921.587	10120
921.697	9991
921.806	10158
921.916	10006
922.025	9846
922.134	9823
922.244	9698
922.353	9816
922.462	9694
922.571	9625
922.68	9481
922.789	9462
922.898	9515
923.007	9485
923.116	9420
923.224	9553
923.333	9477
923.442	9351
923.55	9336
923.659	9428
923.767	9386
923.876	9306
923.984	9431
924.092	9283
924.201	9348
924.309	9382
924.417	9306
924.525	9367
924.633	9294
924.741	10196
924.849	9188
924.956	9245
925.064	9184
925.172	9047
925.279	9112
925.387	9165
925.494	9135
925.602	9249
925.709	9287
925.816	9070
925.924	9138
926.031	9211
926.138	9218
926.245	9131
926.352	9017
926.459	9165
926.566	9199
926.673	9161
926.779	8941
926.886	8956
926.993	8902
927.099	8861
927.206	8876
927.312	8823
927.419	8887
927.525	8800
927.631	8864
927.737	8731
927.843	8716
927.95	8667
928.056	8678
928.162	8655
928.267	8731
928.373	9454
928.479	8842
928.585	8617
928.69	8766
928.796	8785
928.901	8724
929.007	8549
929.112	8682
929.218	8648
929.323	8598
929.428	8606
929.533	8762
929.638	8454
929.743	8583
929.848	8583
929.953	8526
930.058	8400
930.163	8317
930.267	8294
930.372	8423
930.477	8317
930.581	8541
930.685	8423
930.79	8256
930.894	8317
930.998	8313
931.103	8473
931.207	8046
931.311	7986
931.415	7955
931.519	7803
931.623	7784
