Data from test_V78500241_659.txt Node
Date: Fri Mar 25 14:38:18 CST 2022
User: usil
Spectrometer: V785-0024
Trigger mode: 0
Integration Time (sec): 4.000000E-1
Scans to average: 1
Nonlinearity correction enabled: false
Boxcar width: 0
Storing dark spectrum: false
XAxis mode: Wavelengths
Number of Pixels in Spectrum: 1024
>>>>>Begin Spectral Data<<<<<
801.071	28139
801.214	28002
801.356	27743
801.499	27656
801.641	27408
801.783	27492
801.926	27583
802.068	27435
802.211	27374
802.353	27169
802.496	27005
802.638	27074
802.78	26857
802.923	26979
803.065	26815
803.208	26971
803.35	26880
803.492	27112
803.635	27062
803.777	27074
803.919	27192
804.061	27435
804.204	27306
804.346	27192
804.488	27218
804.63	27256
804.773	27154
804.915	27310
805.057	27435
805.199	27351
805.341	27420
805.483	27759
805.626	27618
805.768	27622
805.91	27762
806.052	27842
806.194	28051
806.336	28356
806.478	28284
806.62	28493
806.762	28805
806.904	29189
807.046	29699
807.188	29882
807.33	30308
807.472	30992
807.614	31430
807.756	32290
807.898	33473
808.04	34744
808.182	36620
808.324	39135
808.465	41760
808.607	44929
808.749	47680
808.891	49118
809.033	49411
809.174	47726
809.316	45039
809.458	41927
809.6	38800
809.741	36182
809.883	34253
810.025	32921
810.166	31818
810.308	31095
810.45	30494
810.591	30091
810.733	29630
810.875	29056
811.016	28752
811.158	28645
811.299	28763
811.441	28523
811.582	28344
811.724	28215
811.865	27991
812.007	27827
812.148	28040
812.29	27698
812.431	27850
812.573	28158
812.714	28025
812.855	28238
812.997	28120
813.138	28150
813.279	28070
813.421	27953
813.562	27770
813.703	27686
813.845	27576
813.986	27146
814.127	26921
814.268	26861
814.41	26823
814.551	26727
814.692	26731
814.833	26701
814.974	26571
815.115	26629
815.256	26511
815.397	26495
815.539	26492
815.68	26438
815.821	26256
815.962	26286
816.103	26138
816.244	26126
816.385	26058
816.526	25974
816.666	25723
816.807	25708
816.948	25750
817.089	25807
817.23	25658
817.371	25453
817.512	25609
817.653	25453
817.793	25468
817.934	25578
818.075	25571
818.216	25518
818.356	25457
818.497	25403
818.638	25175
818.778	25194
818.919	25198
819.06	25152
819.2	25289
819.341	25396
819.481	25445
819.622	25548
819.762	25696
819.903	25712
820.043	25514
820.184	25445
820.324	25301
820.465	25510
820.605	25460
820.746	25411
820.886	25225
821.026	25228
821.167	25213
821.307	25381
821.447	25190
821.588	25148
821.728	24920
821.868	24738
822.008	24783
822.149	24658
822.289	24650
822.429	24304
822.569	24209
822.709	24361
822.849	24076
822.99	24133
823.13	23935
823.27	23980
823.41	23885
823.55	23630
823.69	23824
823.83	23737
823.97	23783
824.11	23531
824.25	23608
824.389	23562
824.529	23627
824.669	23630
824.809	23703
824.949	23722
825.089	23573
825.228	23608
825.368	23360
825.508	23345
825.648	23433
825.787	23501
825.927	23547
826.067	23376
826.206	23360
826.346	23433
826.485	23406
826.625	23334
826.765	23414
826.904	23459
827.044	23143
827.183	22976
827.323	23079
827.462	23109
827.601	23090
827.741	23044
827.88	23052
828.02	22900
828.159	22991
828.298	23022
828.437	23075
828.577	22828
828.716	23166
828.855	22968
828.994	22713
829.134	22710
829.273	22824
829.412	22611
829.551	22687
829.69	22706
829.829	22675
829.968	22805
830.107	22763
830.246	22615
830.385	22721
830.524	22577
830.663	22557
830.802	22329
830.941	22261
831.08	22314
831.219	22367
831.357	22303
831.496	22504
831.635	22371
831.774	22249
831.913	22219
832.051	21991
832.19	22097
832.329	22120
832.467	22090
832.606	22002
832.744	22082
832.883	22188
833.022	22299
833.16	22329
833.299	22443
833.437	22443
833.576	22683
833.714	22797
833.852	22957
833.991	23064
834.129	23277
834.267	23292
834.406	23102
834.544	23098
834.682	22938
834.821	22885
834.959	22797
835.097	22592
835.235	22432
835.373	22421
835.511	22329
835.65	22063
835.788	22135
835.926	22082
836.064	21789
836.202	21759
836.34	21972
836.478	21930
836.615	21759
836.753	21876
836.891	21888
837.029	21842
837.167	21705
837.305	21660
837.443	21660
837.58	21595
837.718	21641
837.856	21538
837.993	21473
838.131	21667
838.269	21469
838.406	21576
838.544	21447
838.681	21325
838.819	21237
838.956	20998
839.094	20967
839.231	21017
839.369	21165
839.506	21367
839.643	21256
839.781	20982
839.918	20902
840.055	21020
840.193	20979
840.33	20998
840.467	21001
840.604	21036
840.742	21138
840.879	20819
841.016	20876
841.153	20933
841.29	21074
841.427	20986
841.564	20975
841.701	21062
841.838	20994
841.975	20914
842.112	20834
842.249	20868
842.385	20800
842.522	21062
842.659	20868
842.796	20838
842.933	20735
843.069	20735
843.206	20788
843.343	20887
843.479	20941
843.616	20876
843.752	20712
843.889	20788
844.025	20906
844.162	20925
844.298	21032
844.435	21131
844.571	21287
844.708	21599
844.844	22143
844.98	22390
845.117	22957
845.253	23863
845.389	25457
845.525	28839
845.661	34303
845.798	40626
845.934	45424
846.07	47288
846.206	45842
846.342	41463
846.478	35216
846.614	29592
846.75	26073
846.886	23920
847.022	22618
847.158	21892
847.294	21367
847.429	21024
847.565	20792
847.701	20872
847.837	20301
847.972	20100
848.108	20221
848.244	20153
848.379	19826
848.515	19868
848.65	19742
848.786	19655
848.921	19742
849.057	19875
849.192	19780
849.328	19753
849.463	19689
849.598	19590
849.734	19632
849.869	19506
850.004	19495
850.14	19388
850.275	19533
850.41	19381
850.545	19324
850.68	19373
850.815	19403
850.95	19251
851.085	19518
851.22	19381
851.355	19304
851.49	19304
851.625	19293
851.76	19335
851.895	19362
852.03	19251
852.165	19320
852.299	19453
852.434	19472
852.569	19502
852.703	19457
852.838	19453
852.973	19639
853.107	19624
853.242	19453
853.376	19468
853.511	19301
853.645	19388
853.78	19556
853.914	19586
854.048	19605
854.183	19575
854.317	19628
854.451	19757
854.585	19639
854.72	19449
854.854	19601
854.988	19400
855.122	19582
855.256	19308
855.39	19434
855.524	19483
855.658	19400
855.792	19419
855.926	19339
856.06	19320
856.194	19346
856.327	19304
856.461	19232
856.595	19236
856.729	19202
856.862	19362
856.996	19194
857.13	19217
857.263	19297
857.397	19312
857.53	19110
857.664	19145
857.797	19202
857.931	19194
858.064	19206
858.197	19228
858.331	19080
858.464	19046
858.597	19023
858.731	19091
858.864	19031
858.997	19000
859.13	19027
859.263	19080
859.396	19141
859.529	19065
859.662	19069
859.795	18943
859.928	19152
860.061	19183
860.194	19274
860.327	18840
860.46	18916
860.592	19110
860.725	19221
860.858	19057
860.99	19034
861.123	18875
861.256	18837
861.388	18939
861.521	19689
861.653	18791
861.786	18741
861.918	18871
862.05	18943
862.183	18935
862.315	18977
862.447	18951
862.58	18920
862.712	18707
862.844	18692
862.976	18745
863.108	18722
863.24	19019
863.372	18582
863.504	18745
863.636	18654
863.768	18673
863.9	18677
864.032	18517
864.164	18448
864.296	18745
864.428	18768
864.559	18696
864.691	18734
864.823	18734
864.954	18688
865.086	18593
865.217	18673
865.349	18486
865.48	18623
865.612	18570
865.743	18707
865.875	18547
866.006	18536
866.137	18677
866.269	18635
866.4	18532
866.531	18509
866.662	18437
866.793	18506
866.924	18486
867.055	18479
867.186	18437
867.317	18593
867.448	18407
867.579	18517
867.71	18490
867.841	18388
867.972	18608
868.103	18513
868.233	18551
868.364	18528
868.495	18703
868.625	18894
868.756	18890
868.886	18738
869.017	18894
869.147	18981
869.278	18928
869.408	18783
869.539	18749
869.669	18913
869.799	18947
869.929	18871
870.06	19019
870.19	19202
870.32	19244
870.45	19084
870.58	19289
870.71	19377
870.84	19362
870.97	19213
871.1	19251
871.23	19449
871.36	19548
871.489	19407
871.619	19506
871.749	19430
871.879	19518
872.008	19578
872.138	19605
872.267	19556
872.397	19407
872.526	19331
872.656	19491
872.785	19464
872.915	19662
873.044	19643
873.173	19647
873.303	19772
873.432	19696
873.561	19837
873.69	19704
873.819	19807
873.948	19925
874.077	19738
874.206	19731
874.335	19852
874.464	19997
874.593	20263
874.722	20103
874.851	20225
874.979	20286
875.108	20389
875.237	20278
875.365	20233
875.494	20514
875.623	20488
875.751	20427
875.88	20579
876.008	20613
876.136	20849
876.265	20990
876.393	21287
876.521	21230
876.65	21195
876.778	21165
876.906	21249
877.034	21351
877.162	21351
877.29	21424
877.418	21538
877.546	21477
877.674	21595
877.802	21709
877.93	21964
878.058	22055
878.185	22139
878.313	22516
878.441	22733
878.568	23025
878.696	23608
878.824	24399
878.951	25518
879.079	26921
879.206	28767
879.333	30848
879.461	32438
879.588	33283
879.715	33260
879.842	32655
879.97	30905
880.097	28786
880.224	27317
880.351	26237
880.478	25392
880.605	24741
880.732	24441
880.859	24559
880.986	24091
881.112	24038
881.239	23893
881.366	23573
881.493	23646
881.619	23566
881.746	23646
881.872	23611
881.999	23581
882.125	23604
882.252	23737
882.378	23604
882.505	23935
882.631	23710
882.757	23566
882.883	23714
883.01	23562
883.136	23611
883.262	23376
883.388	23360
883.514	23414
883.64	23596
883.766	23474
883.892	23269
884.018	23436
884.143	23478
884.269	23547
884.395	23337
884.52	23280
884.646	23307
884.772	23212
884.897	23166
885.023	23372
885.148	23455
885.274	23364
885.399	23227
885.524	22927
885.65	22987
885.775	22877
885.9	22744
886.025	22637
886.15	22470
886.275	22295
886.4	22169
886.525	22135
886.65	21918
886.775	21553
886.9	21888
887.025	21903
887.149	21500
887.274	21252
887.399	21024
887.523	21127
887.648	20929
887.773	20781
887.897	20948
888.021	20807
888.146	20720
888.27	20701
888.395	20689
888.519	20556
888.643	20549
888.767	20579
888.891	20351
889.015	20305
889.139	20244
889.263	20084
889.387	20267
889.511	20320
889.635	20244
889.759	19928
889.883	20024
890.006	20054
890.13	20020
890.254	19791
890.377	19799
890.501	19784
890.624	19559
890.748	19594
890.871	19430
890.995	19335
891.118	19289
891.241	19255
891.364	19343
891.488	19343
891.611	19274
891.734	19194
891.857	19244
891.98	19046
892.103	19190
892.226	19171
892.349	19046
892.471	18920
892.594	18943
892.717	19015
892.839	18901
892.962	19000
893.085	19031
893.207	18814
893.33	18711
893.452	18722
893.575	18795
893.697	18741
893.819	18867
893.941	18951
894.064	18817
894.186	18730
894.308	18585
894.43	18738
894.552	18745
894.674	18665
894.796	18578
894.918	18589
895.04	18513
895.161	18684
895.283	18612
895.405	18506
895.526	18388
895.648	18513
895.769	18582
895.891	18547
896.012	18631
896.134	18448
896.255	18380
896.376	18452
896.498	18277
896.619	18623
896.74	18502
896.861	18540
896.982	18745
897.103	18825
897.224	18642
897.345	18639
897.466	18620
897.587	18536
897.708	18601
897.828	18677
897.949	18464
898.07	18452
898.19	18502
898.311	18700
898.431	18570
898.552	18623
898.672	18646
898.792	18798
898.913	18669
899.033	18509
899.153	18452
899.273	18292
899.393	18342
899.513	18509
899.633	18357
899.753	18300
899.873	18277
899.993	18380
900.113	18304
900.232	18296
900.352	18266
900.472	18258
900.591	18121
900.711	18346
900.83	18117
900.95	18315
901.069	18323
901.189	18083
901.308	17904
901.427	17737
901.546	17737
901.665	17798
901.784	17775
901.904	17646
902.023	17349
902.141	17223
902.26	17208
902.379	17368
902.498	17181
902.617	17147
902.735	17052
902.854	17124
902.973	16919
903.091	16771
903.21	16820
903.328	16759
903.446	16752
903.565	16660
903.683	16626
903.801	16500
903.919	16702
904.038	16599
904.156	16390
904.274	16371
904.392	16276
904.51	16375
904.627	16405
904.745	16409
904.863	16352
904.981	16139
905.098	15926
905.216	16120
905.334	16158
905.451	15998
905.569	15964
905.686	16090
905.803	15934
905.921	15873
906.038	15903
906.155	15850
906.272	15762
906.389	15656
906.506	15378
906.623	15492
906.74	15481
906.857	15424
906.974	15439
907.091	15443
907.208	15717
907.324	15538
907.441	15389
907.557	15161
907.674	15233
907.79	15169
907.907	15043
908.023	15207
908.139	15104
908.256	15150
908.372	15077
908.488	15055
908.604	14895
908.72	14853
908.836	14944
908.952	14944
909.068	14971
909.184	15005
909.3	14960
909.415	15017
909.531	14864
909.647	14686
909.762	14632
909.878	14636
909.993	14632
910.108	14579
910.224	14678
910.339	14571
910.454	14530
910.57	14488
910.685	14396
910.8	14686
910.915	14533
911.03	14465
911.145	14396
911.259	14286
911.374	14290
911.489	14172
911.604	14134
911.718	14039
911.833	13974
911.947	13894
912.062	13898
912.176	13917
912.291	13978
912.405	13947
912.519	14092
912.633	14180
912.748	13978
912.862	14020
912.976	13883
913.09	13799
913.204	13826
913.318	13849
913.431	13913
913.545	14012
913.659	13925
913.772	13791
913.886	13738
914	13704
914.113	13734
914.226	13833
914.34	13723
914.453	13620
914.566	13674
914.68	13609
914.793	13586
914.906	13392
915.019	13358
915.132	13327
915.245	13411
915.358	13324
915.47	13460
915.583	13396
915.696	13472
915.809	13529
915.921	13518
916.034	13400
916.146	13312
916.259	13232
916.371	13362
916.483	13441
916.595	13274
916.708	13282
916.82	13259
916.932	13327
917.044	13293
917.156	13278
917.268	13168
917.38	13198
917.491	13129
917.603	13183
917.715	13183
917.826	13190
917.938	13046
918.049	12951
918.161	13103
918.272	13213
918.384	13168
918.495	13110
918.606	13008
918.717	12711
918.828	12837
918.939	12878
919.05	12741
919.161	12821
919.272	12703
919.383	12673
919.494	12795
919.604	13019
919.715	12810
919.826	12745
919.936	12760
920.047	12932
920.157	12791
920.267	12970
920.378	12814
920.488	12821
920.598	13000
920.708	13038
920.818	12947
920.928	13069
921.038	13213
921.148	13133
921.258	12856
921.368	12692
921.477	12574
921.587	12528
921.697	12483
921.806	12593
921.916	12460
922.025	12296
922.134	12353
922.244	12201
922.353	12292
922.462	12205
922.571	12068
922.68	11969
922.789	11870
922.898	11908
923.007	11897
923.116	11965
923.224	11863
923.333	11840
923.442	11779
923.55	11760
923.659	11745
923.767	11931
923.876	11672
923.984	11718
924.092	11634
924.201	11729
924.309	11676
924.417	11661
924.525	11611
924.633	11608
924.741	12330
924.849	11528
924.956	11592
925.064	11379
925.172	11349
925.279	11299
925.387	11429
925.494	11471
925.602	11490
925.709	11429
925.816	11273
925.924	11402
926.031	11474
926.138	11448
926.245	11417
926.352	11258
926.459	11387
926.566	11516
926.673	11250
926.779	11162
926.886	11166
926.993	10980
927.099	10976
927.206	11025
927.312	10968
927.419	11075
927.525	10961
927.631	11048
927.737	10862
927.843	10873
927.95	10778
928.056	10877
928.162	10900
928.267	10915
928.373	11364
928.479	10953
928.585	10759
928.69	10828
928.796	10873
928.901	10801
929.007	10607
929.112	10729
929.218	10668
929.323	10645
929.428	10615
929.533	10809
929.638	10561
929.743	10554
929.848	10653
929.953	10653
930.058	10542
930.163	10413
930.267	10409
930.372	10569
930.477	10329
930.581	10550
930.685	10421
930.79	10314
930.894	10284
930.998	10230
931.103	10356
931.207	10071
931.311	9979
931.415	9835
931.519	9728
931.623	9679
