Data from test_V78500241_2086.txt Node
Date: Fri Mar 25 14:48:14 CST 2022
User: usil
Spectrometer: V785-0024
Trigger mode: 0
Integration Time (sec): 4.000000E-1
Scans to average: 1
Nonlinearity correction enabled: false
Boxcar width: 0
Storing dark spectrum: false
XAxis mode: Wavelengths
Number of Pixels in Spectrum: 1024
>>>>>Begin Spectral Data<<<<<
801.071	21998
801.214	21873
801.356	21899
801.499	21743
801.641	21511
801.783	21610
801.926	21534
802.068	21405
802.211	21336
802.353	21264
802.496	21047
802.638	21036
802.78	20853
802.923	20895
803.065	20697
803.208	20800
803.35	20906
803.492	20986
803.635	20975
803.777	20902
803.919	20918
804.061	21218
804.204	20773
804.346	20815
804.488	20765
804.63	20845
804.773	20708
804.915	20629
805.057	20838
805.199	20762
805.341	20887
805.483	20971
805.626	20876
805.768	20739
805.91	20849
806.052	20743
806.194	20739
806.336	20960
806.478	20708
806.62	20663
806.762	20902
806.904	21055
807.046	21176
807.188	21066
807.33	21074
807.472	21020
807.614	20948
807.756	21093
807.898	20952
808.04	20864
808.182	20971
808.324	20773
808.465	20762
808.607	21043
808.749	21173
808.891	21089
809.033	21321
809.174	21264
809.316	21203
809.458	21211
809.6	21024
809.741	21161
809.883	21184
810.025	21313
810.166	21329
810.308	21161
810.45	21165
810.591	21192
810.733	21066
810.875	21009
811.016	20716
811.158	20960
811.299	21055
811.441	20982
811.582	21028
811.724	21051
811.865	20815
812.007	20937
812.148	20876
812.29	20876
812.431	21108
812.573	21104
812.714	21222
812.855	21336
812.997	21485
813.138	21663
813.279	21595
813.421	21424
813.562	21431
813.703	21207
813.845	21043
813.986	20792
814.127	20701
814.268	20533
814.41	20461
814.551	20343
814.692	20655
814.833	20328
814.974	20244
815.115	20442
815.256	20336
815.397	20347
815.539	20294
815.68	20142
815.821	20225
815.962	20119
816.103	20149
816.244	20039
816.385	19944
816.526	19890
816.666	19727
816.807	19529
816.948	19635
817.089	19738
817.23	19738
817.371	19559
817.512	19658
817.653	19571
817.793	19559
817.934	19468
818.075	19533
818.216	19624
818.356	19552
818.497	19430
818.638	19369
818.778	19244
818.919	19285
819.06	19388
819.2	19422
819.341	19411
819.481	19422
819.622	19685
819.762	19746
819.903	19609
820.043	19708
820.184	19597
820.324	19677
820.465	19578
820.605	19594
820.746	19556
820.886	19441
821.026	19544
821.167	19575
821.307	19571
821.447	19502
821.588	19400
821.728	19304
821.868	19095
822.008	19034
822.149	18962
822.289	18981
822.429	18776
822.569	18585
822.709	18684
822.849	18498
822.99	18429
823.13	18380
823.27	18525
823.41	18311
823.55	18178
823.69	18235
823.83	18258
823.97	18266
824.11	18007
824.25	17969
824.389	18087
824.529	18083
824.669	18083
824.809	18022
824.949	18205
825.089	18053
825.228	18125
825.368	17882
825.508	17866
825.648	17912
825.787	17882
825.927	17946
826.067	17817
826.206	17748
826.346	17923
826.485	17813
826.625	17786
826.765	17965
826.904	17813
827.044	17604
827.183	17623
827.323	17558
827.462	17577
827.601	17532
827.741	17539
827.88	17589
828.02	17372
828.159	17539
828.298	17532
828.437	17676
828.577	17520
828.716	17722
828.855	17455
828.994	17425
829.134	17220
829.273	17296
829.412	17048
829.551	17200
829.69	17280
829.829	17326
829.968	17288
830.107	17391
830.246	17261
830.385	17220
830.524	17197
830.663	17090
830.802	16968
830.941	16942
831.08	16839
831.219	16946
831.357	16987
831.496	17022
831.635	16854
831.774	16752
831.913	16782
832.051	16664
832.19	16710
832.329	16843
832.467	16634
832.606	16554
832.744	16558
832.883	16580
833.022	16527
833.16	16592
833.299	16687
833.437	16558
833.576	16626
833.714	16653
833.852	16653
833.991	16668
834.129	16660
834.267	16706
834.406	16500
834.544	16622
834.682	16660
834.821	16660
834.959	16790
835.097	16550
835.235	16717
835.373	16691
835.511	16645
835.65	16653
835.788	16474
835.926	16352
836.064	16379
836.202	16398
836.34	16660
836.478	16599
836.615	16481
836.753	16554
836.891	16607
837.029	16538
837.167	16478
837.305	16394
837.443	16519
837.58	16284
837.718	16421
837.856	16440
837.993	16329
838.131	16367
838.269	16333
838.406	16291
838.544	16265
838.681	16120
838.819	16124
838.956	15930
839.094	16013
839.231	15953
839.369	15983
839.506	16287
839.643	16139
839.781	16044
839.918	15861
840.055	15979
840.193	15926
840.33	15941
840.467	15915
840.604	15953
840.742	16147
840.879	15717
841.016	15846
841.153	15857
841.29	16101
841.427	15918
841.564	15979
841.701	16048
841.838	15861
841.975	15854
842.112	15975
842.249	15835
842.385	15755
842.522	15774
842.659	15827
842.796	15679
842.933	15675
843.069	15690
843.206	15690
843.343	15755
843.479	15679
843.616	15766
843.752	15591
843.889	15564
844.025	15701
844.162	15481
844.298	15622
844.435	15526
844.571	15496
844.708	15523
844.844	15625
844.98	15599
845.117	15629
845.253	15439
845.389	15435
845.525	15386
845.661	15386
845.798	15329
845.934	15336
846.07	15222
846.206	15386
846.342	15401
846.478	15401
846.614	15203
846.75	15039
846.886	15135
847.022	15150
847.158	15077
847.294	14986
847.429	15097
847.565	15097
847.701	15298
847.837	14941
847.972	14861
848.108	14933
848.244	14937
848.379	14800
848.515	14667
848.65	14648
848.786	14568
848.921	14670
849.057	14823
849.192	14754
849.328	14648
849.463	14708
849.598	14636
849.734	14632
849.869	14598
850.004	14492
850.14	14476
850.275	14549
850.41	14377
850.545	14408
850.68	14385
850.815	14389
850.95	14419
851.085	14617
851.22	14613
851.355	14480
851.49	14465
851.625	14389
851.76	14313
851.895	14317
852.03	14309
852.165	14450
852.299	14438
852.434	14606
852.569	14495
852.703	14495
852.838	14541
852.973	14606
853.107	14568
853.242	14476
853.376	14328
853.511	14202
853.645	14332
853.78	14442
853.914	14442
854.048	14290
854.183	14298
854.317	14298
854.451	14549
854.585	14294
854.72	14225
854.854	14385
854.988	14248
855.122	14240
855.256	14195
855.39	14278
855.524	14404
855.658	14419
855.792	14328
855.926	14290
856.06	14377
856.194	14442
856.327	14377
856.461	14278
856.595	14271
856.729	14332
856.862	14507
856.996	14358
857.13	14412
857.263	14495
857.397	14412
857.53	14282
857.664	14377
857.797	14457
857.931	14408
858.064	14305
858.197	14431
858.331	14301
858.464	14221
858.597	14286
858.731	14240
858.864	14282
858.997	14206
859.13	14317
859.263	14423
859.396	14408
859.529	14294
859.662	14271
859.795	14244
859.928	14332
860.061	14476
860.194	14492
860.327	14393
860.46	14271
860.592	14343
860.725	14469
860.858	14522
860.99	14313
861.123	14309
861.256	14305
861.388	14381
861.521	14853
861.653	14298
861.786	14024
861.918	14191
862.05	14172
862.183	14347
862.315	14309
862.447	14358
862.58	14278
862.712	14123
862.844	14103
862.976	14168
863.108	14176
863.24	14336
863.372	14020
863.504	14062
863.636	14157
863.768	14214
863.9	14043
864.032	14054
864.164	14142
864.296	14103
864.428	14191
864.559	14195
864.691	14229
864.823	14157
864.954	14100
865.086	14130
865.217	14069
865.349	14050
865.48	14043
865.612	14084
865.743	14328
865.875	14134
866.006	14073
866.137	14046
866.269	14149
866.4	14020
866.531	14031
866.662	13909
866.793	14077
866.924	14008
867.055	14107
867.186	14035
867.317	13997
867.448	13978
867.579	14058
867.71	13947
867.841	14001
867.972	14069
868.103	14100
868.233	14024
868.364	14043
868.495	14145
868.625	14301
868.756	14438
868.886	14221
869.017	14301
869.147	14385
869.278	14381
869.408	14400
869.539	14271
869.669	14419
869.799	14377
869.929	14434
870.06	14465
870.19	14636
870.32	14518
870.45	14674
870.58	14720
870.71	14830
870.84	14716
870.97	14788
871.1	14644
871.23	14891
871.36	14876
871.489	14826
871.619	14906
871.749	14925
871.879	14880
872.008	15020
872.138	15024
872.267	14914
872.397	14800
872.526	14792
872.656	14746
872.785	14864
872.915	14929
873.044	15009
873.173	15093
873.303	14982
873.432	15058
873.561	15066
873.69	15024
873.819	15074
873.948	15017
874.077	14861
874.206	14883
874.335	15051
874.464	15127
874.593	15351
874.722	15222
874.851	15313
874.979	15294
875.108	15279
875.237	15302
875.365	15188
875.494	15180
875.623	15298
875.751	15180
875.88	15268
876.008	15504
876.136	15519
876.265	15667
876.393	15857
876.521	15812
876.65	15812
876.778	15720
876.906	15713
877.034	15709
877.162	15671
877.29	15743
877.418	15705
877.546	15736
877.674	15713
877.802	15770
877.93	15789
878.058	15679
878.185	15644
878.313	15599
878.441	15675
878.568	15576
878.696	15713
878.824	15739
878.951	15762
879.079	15903
879.206	16021
879.333	15816
879.461	15644
879.588	15835
879.715	15945
879.842	15987
879.97	15709
880.097	15462
880.224	15587
880.351	15557
880.478	15580
880.605	15500
880.732	15481
880.859	15816
880.986	15523
881.112	15663
881.239	15511
881.366	15340
881.493	15268
881.619	15135
881.746	15173
881.872	15230
881.999	15108
882.125	15119
882.252	15176
882.378	15237
882.505	15363
882.631	15100
882.757	15009
882.883	15222
883.01	15058
883.136	14941
883.262	14918
883.388	14891
883.514	15036
883.64	15085
883.766	15013
883.892	14819
884.018	14861
884.143	15081
884.269	15131
884.395	14883
884.52	14769
884.646	14785
884.772	14644
884.897	14568
885.023	14765
885.148	14838
885.274	14948
885.399	14849
885.524	14705
885.65	14762
885.775	14765
885.9	14731
886.025	14887
886.15	14861
886.275	14598
886.4	14655
886.525	14735
886.65	14621
886.775	14632
886.9	14785
887.025	14975
887.149	14712
887.274	14549
887.399	14492
887.523	14541
887.648	14488
887.773	14461
887.897	14564
888.021	14636
888.146	14533
888.27	14670
888.395	14689
888.519	14617
888.643	14648
888.767	14708
888.891	14381
889.015	14533
889.139	14492
889.263	14377
889.387	14564
889.511	14750
889.635	14530
889.759	14377
889.883	14434
890.006	14541
890.13	14552
890.254	14438
890.377	14351
890.501	14263
890.624	14275
890.748	14305
890.871	14157
890.995	14115
891.118	14103
891.241	14115
891.364	14142
891.488	14210
891.611	13986
891.734	14157
891.857	14126
891.98	14168
892.103	14153
892.226	14153
892.349	14088
892.471	13951
892.594	14058
892.717	14172
892.839	14065
892.962	14134
893.085	14126
893.207	14100
893.33	13940
893.452	14069
893.575	14168
893.697	14107
893.819	14275
893.941	14370
894.064	14187
894.186	14084
894.308	14176
894.43	14191
894.552	14290
894.674	14202
894.796	14103
894.918	14206
895.04	14065
895.161	14347
895.283	14191
895.405	14134
895.526	14183
895.648	14176
895.769	14233
895.891	14294
896.012	14343
896.134	14214
896.255	14339
896.376	14317
896.498	14282
896.619	14298
896.74	14237
896.861	14396
896.982	14571
897.103	14883
897.224	14552
897.345	14583
897.466	14583
897.587	14480
897.708	14743
897.828	14598
897.949	14537
898.07	14461
898.19	14526
898.311	14689
898.431	14693
898.552	14678
898.672	14735
898.792	14678
898.913	14678
899.033	14575
899.153	14549
899.273	14400
899.393	14499
899.513	14564
899.633	14552
899.753	14545
899.873	14507
899.993	14583
900.113	14450
900.232	14518
900.352	14507
900.472	14412
900.591	14332
900.711	14355
900.83	14343
900.95	14446
901.069	14514
901.189	14336
901.308	14062
901.427	14081
901.546	14012
901.665	14092
901.784	14046
901.904	13921
902.023	13890
902.141	13586
902.26	13632
902.379	13632
902.498	13632
902.617	13460
902.735	13575
902.854	13586
902.973	13620
903.091	13304
903.21	13304
903.328	13384
903.446	13358
903.565	13152
903.683	13221
903.801	12996
903.919	13095
904.038	13179
904.156	12935
904.274	13012
904.392	13034
904.51	13034
904.627	12993
904.745	13008
904.863	13000
904.981	12817
905.098	12669
905.216	12722
905.334	12711
905.451	12642
905.569	12707
905.686	12722
905.803	12673
905.921	12475
906.038	12662
906.155	12448
906.272	12441
906.389	12445
906.506	12292
906.623	12239
906.74	12194
906.857	12129
906.974	12167
907.091	12330
907.208	12452
907.324	12311
907.441	12194
907.557	12019
907.674	11958
907.79	11961
907.907	11980
908.023	11954
908.139	12091
908.256	12022
908.372	11965
908.488	11927
908.604	11783
908.72	11760
908.836	11813
908.952	11714
909.068	11760
909.184	11901
909.3	11714
909.415	11923
909.531	11771
909.647	11524
909.762	11615
909.878	11543
909.993	11611
910.108	11539
910.224	11562
910.339	11585
910.454	11421
910.57	11421
910.685	11330
910.8	11676
910.915	11547
911.03	11383
911.145	11315
911.259	11235
911.374	11242
911.489	11170
911.604	11109
911.718	11010
911.833	11067
911.947	10999
912.062	10869
912.176	10938
912.291	11048
912.405	10965
912.519	11212
912.633	11189
912.748	11010
912.862	11037
912.976	10812
913.09	10725
913.204	10923
913.318	10904
913.431	10965
913.545	10927
913.659	10991
913.772	10862
913.886	10694
914	10801
914.113	10873
914.226	10980
914.34	10896
914.453	10721
914.566	10911
914.68	10752
914.793	10714
914.906	10561
915.019	10481
915.132	10489
915.245	10428
915.358	10550
915.47	10519
915.583	10531
915.696	10634
915.809	10626
915.921	10687
916.034	10466
916.146	10451
916.259	10432
916.371	10561
916.483	10481
916.595	10470
916.708	10474
916.82	10478
916.932	10424
917.044	10413
917.156	10447
917.268	10284
917.38	10390
917.491	10360
917.603	10402
917.715	10459
917.826	10474
917.938	10318
918.049	10234
918.161	10367
918.272	10432
918.384	10447
918.495	10382
918.606	10223
918.717	10143
918.828	10200
918.939	10249
919.05	10162
919.161	10166
919.272	10013
919.383	10105
919.494	10253
919.604	10379
919.715	10261
919.826	10150
919.936	10181
920.047	10325
920.157	10188
920.267	10440
920.378	10287
920.488	10200
920.598	10421
920.708	10504
920.818	10386
920.928	10436
921.038	10615
921.148	10554
921.258	10257
921.368	10215
921.477	10090
921.587	10097
921.697	9987
921.806	10131
921.916	9972
922.025	9869
922.134	9781
922.244	9781
922.353	9880
922.462	9720
922.571	9625
922.68	9447
922.789	9485
922.898	9469
923.007	9412
923.116	9549
923.224	9447
923.333	9515
923.442	9336
923.55	9321
923.659	9367
923.767	9469
923.876	9325
923.984	9412
924.092	9291
924.201	9382
924.309	9287
924.417	9294
924.525	9294
924.633	9329
924.741	10227
924.849	9062
924.956	9351
925.064	9074
925.172	9013
925.279	9173
925.387	9214
925.494	9135
925.602	9317
925.709	9230
925.816	9066
925.924	9097
926.031	9233
926.138	9135
926.245	9146
926.352	9116
926.459	9211
926.566	9241
926.673	9104
926.779	9047
926.886	8982
926.993	8857
927.099	8823
927.206	8868
927.312	8766
927.419	8864
927.525	8857
927.631	8921
927.737	8766
927.843	8769
927.95	8583
928.056	8651
928.162	8788
928.267	8773
928.373	9397
928.479	8880
928.585	8598
928.69	8754
928.796	8754
928.901	8610
929.007	8499
929.112	8708
929.218	8651
929.323	8617
929.428	8530
929.533	8689
929.638	8556
929.743	8583
929.848	8583
929.953	8541
930.058	8415
930.163	8332
930.267	8317
930.372	8446
930.477	8309
930.581	8594
930.685	8404
930.79	8244
930.894	8244
930.998	8294
931.103	8377
931.207	8031
931.311	8043
931.415	7928
931.519	7772
931.623	7822
