Data from test_V78500241_1154.txt Node
Date: Fri Mar 25 14:41:45 CST 2022
User: usil
Spectrometer: V785-0024
Trigger mode: 0
Integration Time (sec): 4.000000E-1
Scans to average: 1
Nonlinearity correction enabled: false
Boxcar width: 0
Storing dark spectrum: false
XAxis mode: Wavelengths
Number of Pixels in Spectrum: 1024
>>>>>Begin Spectral Data<<<<<
801.071	22615
801.214	22478
801.356	22166
801.499	22070
801.641	21949
801.783	21876
801.926	21907
802.068	21861
802.211	21762
802.353	21751
802.496	21469
802.638	21401
802.78	21252
802.923	21321
803.065	21176
803.208	21321
803.35	21226
803.492	21428
803.635	21348
803.777	21195
803.919	21222
804.061	21526
804.204	21370
804.346	21233
804.488	21165
804.63	21222
804.773	21108
804.915	21233
805.057	21340
805.199	21233
805.341	21294
805.483	21207
805.626	21241
805.768	21146
805.91	21310
806.052	21195
806.194	21138
806.336	21370
806.478	21214
806.62	21074
806.762	21214
806.904	21507
807.046	21591
807.188	21504
807.33	21504
807.472	21530
807.614	21412
807.756	21561
807.898	21370
808.04	21389
808.182	21405
808.324	21450
808.465	21454
808.607	21694
808.749	21724
808.891	21850
809.033	22010
809.174	21831
809.316	21633
809.458	21660
809.6	21610
809.741	21816
809.883	21751
810.025	21770
810.166	21743
810.308	21800
810.45	21648
810.591	21564
810.733	21542
810.875	21401
811.016	21241
811.158	21249
811.299	21519
811.441	21568
811.582	21386
811.724	21321
811.865	21294
812.007	21397
812.148	21363
812.29	21321
812.431	21576
812.573	21542
812.714	21766
812.855	21797
812.997	21968
813.138	22109
813.279	22002
813.421	21895
813.562	21766
813.703	21641
813.845	21542
813.986	21230
814.127	21176
814.268	20975
814.41	20834
814.551	20861
814.692	20994
814.833	20902
814.974	20872
815.115	20929
815.256	20705
815.397	20674
815.539	20724
815.68	20705
815.821	20640
815.962	20758
816.103	20594
816.244	20583
816.385	20374
816.526	20351
816.666	20142
816.807	20096
816.948	20020
817.089	20218
817.23	20096
817.371	20001
817.512	20035
817.653	20035
817.793	19947
817.934	20100
818.075	20107
818.216	20069
818.356	20054
818.497	19909
818.638	19723
818.778	19795
818.919	19704
819.06	19765
819.2	19906
819.341	19925
819.481	19951
819.622	20111
819.762	20309
819.903	20069
820.043	20088
820.184	20054
820.324	20005
820.465	20115
820.605	20077
820.746	20050
820.886	19909
821.026	19993
821.167	20062
821.307	19967
821.447	19932
821.588	19959
821.728	19772
821.868	19628
822.008	19472
822.149	19377
822.289	19400
822.429	19198
822.569	19114
822.709	19126
822.849	19027
822.99	18916
823.13	18894
823.27	18840
823.41	18844
823.55	18616
823.69	18658
823.83	18760
823.97	18585
824.11	18532
824.25	18486
824.389	18441
824.529	18570
824.669	18475
824.809	18582
824.949	18654
825.089	18639
825.228	18585
825.368	18391
825.508	18361
825.648	18357
825.787	18334
825.927	18376
826.067	18258
826.206	18357
826.346	18395
826.485	18410
826.625	18327
826.765	18433
826.904	18311
827.044	18034
827.183	18167
827.323	17935
827.462	17973
827.601	18068
827.741	17904
827.88	18049
828.02	17923
828.159	17927
828.298	18026
828.437	18003
828.577	17866
828.716	18102
828.855	18022
828.994	17764
829.134	17745
829.273	17752
829.412	17672
829.551	17718
829.69	17805
829.829	17836
829.968	17927
830.107	17733
830.246	17752
830.385	17600
830.524	17783
830.663	17551
830.802	17471
830.941	17349
831.08	17337
831.219	17433
831.357	17520
831.496	17623
831.635	17330
831.774	17269
831.913	17254
832.051	17159
832.19	17151
832.329	17280
832.467	17083
832.606	16923
832.744	16980
832.883	17056
833.022	17071
833.16	17109
833.299	17124
833.437	17079
833.576	17140
833.714	17117
833.852	17174
833.991	17204
834.129	17181
834.267	17193
834.406	17204
834.544	17105
834.682	17071
834.821	17208
834.959	17235
835.097	17136
835.235	17136
835.373	17128
835.511	17124
835.65	17071
835.788	17064
835.926	16915
836.064	16843
836.202	16828
836.34	17083
836.478	17132
836.615	17037
836.753	16999
836.891	17098
837.029	17064
837.167	17025
837.305	16946
837.443	16972
837.58	16858
837.718	16949
837.856	16949
837.993	16885
838.131	16911
838.269	16850
838.406	16843
838.544	16744
838.681	16736
838.819	16538
838.956	16428
839.094	16443
839.231	16447
839.369	16630
839.506	16961
839.643	16675
839.781	16550
839.918	16500
840.055	16527
840.193	16443
840.33	16519
840.467	16424
840.604	16386
840.742	16717
840.879	16291
841.016	16352
841.153	16402
841.29	16596
841.427	16466
841.564	16424
841.701	16489
841.838	16303
841.975	16363
842.112	16322
842.249	16238
842.385	16249
842.522	16500
842.659	16280
842.796	16192
842.933	16154
843.069	16253
843.206	16112
843.343	16367
843.479	16287
843.616	16257
843.752	16044
843.889	16051
844.025	16109
844.162	15972
844.298	16055
844.435	16105
844.571	16021
844.708	16063
844.844	16192
844.98	16139
845.117	16181
845.253	15991
845.389	15994
845.525	15983
845.661	16010
845.798	16093
845.934	16059
846.07	16021
846.206	16055
846.342	16188
846.478	15892
846.614	15671
846.75	15545
846.886	15542
847.022	15766
847.158	15553
847.294	15595
847.429	15625
847.565	15599
847.701	15895
847.837	15439
847.972	15287
848.108	15530
848.244	15374
848.379	15188
848.515	15043
848.65	15154
848.786	15176
848.921	15283
849.057	15287
849.192	15222
849.328	15169
849.463	15184
849.598	15093
849.734	15112
849.869	15017
850.004	15001
850.14	14979
850.275	14910
850.41	14807
850.545	14906
850.68	14838
850.815	14902
850.95	14933
851.085	15039
851.22	14990
851.355	14956
851.49	14941
851.625	14914
851.76	14849
851.895	14830
852.03	14880
852.165	14887
852.299	14921
852.434	14994
852.569	14891
852.703	14891
852.838	14986
852.973	15108
853.107	15112
853.242	14910
853.376	14845
853.511	14758
853.645	14800
853.78	14891
853.914	14823
854.048	14735
854.183	14746
854.317	14777
854.451	14979
854.585	14765
854.72	14743
854.854	14773
854.988	14712
855.122	14720
855.256	14636
855.39	14746
855.524	14880
855.658	14849
855.792	14845
855.926	14876
856.06	14845
856.194	14948
856.327	14777
856.461	14777
856.595	14796
856.729	14792
856.862	14876
856.996	14758
857.13	14929
857.263	14834
857.397	14929
857.53	14811
857.664	14868
857.797	14811
857.931	14899
858.064	14895
858.197	14902
858.331	14746
858.464	14788
858.597	14716
858.731	14800
858.864	14750
858.997	14724
859.13	14804
859.263	14781
859.396	14887
859.529	14902
859.662	14731
859.795	14720
859.928	14785
860.061	14899
860.194	14883
860.327	14792
860.46	14826
860.592	14906
860.725	14952
860.858	14933
860.99	14826
861.123	14693
861.256	14716
861.388	14838
861.521	15473
861.653	14701
861.786	14636
861.918	14686
862.05	14727
862.183	14800
862.315	14815
862.447	14842
862.58	14739
862.712	14533
862.844	14442
862.976	14606
863.108	14644
863.24	15055
863.372	14514
863.504	14594
863.636	14602
863.768	14606
863.9	14617
864.032	14499
864.164	14606
864.296	14594
864.428	14674
864.559	14613
864.691	14575
864.823	14640
864.954	14571
865.086	14602
865.217	14781
865.349	14533
865.48	14526
865.612	14606
865.743	14644
865.875	14613
866.006	14511
866.137	14518
866.269	14480
866.4	14579
866.531	14514
866.662	14488
866.793	14518
866.924	14541
867.055	14518
867.186	14545
867.317	14507
867.448	14404
867.579	14549
867.71	14438
867.841	14473
867.972	14507
868.103	14526
868.233	14590
868.364	14514
868.495	14629
868.625	14697
868.756	14880
868.886	14674
869.017	14765
869.147	14864
869.278	14872
869.408	14868
869.539	14861
869.669	14876
869.799	14868
869.929	14937
870.06	14891
870.19	15077
870.32	15245
870.45	15184
870.58	15203
870.71	15287
870.84	15317
870.97	15146
871.1	15252
871.23	15389
871.36	15389
871.489	15363
871.619	15344
871.749	15416
871.879	15450
872.008	15587
872.138	15439
872.267	15374
872.397	15218
872.526	15272
872.656	15230
872.785	15237
872.915	15389
873.044	15431
873.173	15473
873.303	15481
873.432	15454
873.561	15526
873.69	15439
873.819	15389
873.948	15599
874.077	15428
874.206	15363
874.335	15454
874.464	15504
874.593	15720
874.722	15827
874.851	15747
874.979	15762
875.108	15759
875.237	15842
875.365	15591
875.494	15648
875.623	15865
875.751	15774
875.88	15804
876.008	15816
876.136	16025
876.265	16166
876.393	16257
876.521	16226
876.65	16257
876.778	16196
876.906	16116
877.034	16135
877.162	16204
877.29	16013
877.418	16166
877.546	16242
877.674	16124
877.802	16192
877.93	16112
878.058	16109
878.185	16093
878.313	16181
878.441	16143
878.568	16048
878.696	16139
878.824	16196
878.951	16333
879.079	16375
879.206	16527
879.333	16504
879.461	16440
879.588	16352
879.715	16481
879.842	16550
879.97	16246
880.097	15983
880.224	16116
880.351	15979
880.478	16002
880.605	15857
880.732	15941
880.859	16234
880.986	16071
881.112	16021
881.239	16044
881.366	15892
881.493	15736
881.619	15663
881.746	15618
881.872	15739
881.999	15584
882.125	15610
882.252	15694
882.378	15724
882.505	15751
882.631	15568
882.757	15500
882.883	15610
883.01	15488
883.136	15458
883.262	15435
883.388	15249
883.514	15526
883.64	15549
883.766	15511
883.892	15249
884.018	15393
884.143	15431
884.269	15477
884.395	15313
884.52	15184
884.646	15283
884.772	15146
884.897	15104
885.023	15260
885.148	15348
885.274	15351
885.399	15310
885.524	15169
885.65	15173
885.775	15184
885.9	15230
886.025	15298
886.15	15313
886.275	15138
886.4	15169
886.525	15131
886.65	15017
886.775	15157
886.9	15298
887.025	15313
887.149	15249
887.274	15070
887.399	14910
887.523	15100
887.648	14971
887.773	14921
887.897	15020
888.021	15024
888.146	14933
888.27	15097
888.395	15066
888.519	15028
888.643	15043
888.767	15055
888.891	15013
889.015	14883
889.139	14842
889.263	14853
889.387	14941
889.511	15199
889.635	15017
889.759	14880
889.883	14914
890.006	14788
890.13	14887
890.254	14807
890.377	14826
890.501	14708
890.624	14606
890.748	14811
890.871	14621
890.995	14560
891.118	14499
891.241	14552
891.364	14564
891.488	14587
891.611	14560
891.734	14545
891.857	14678
891.98	14533
892.103	14651
892.226	14575
892.349	14579
892.471	14450
892.594	14530
892.717	14606
892.839	14541
892.962	14465
893.085	14708
893.207	14522
893.33	14499
893.452	14454
893.575	14545
893.697	14499
893.819	14674
893.941	14682
894.064	14659
894.186	14480
894.308	14522
894.43	14769
894.552	14781
894.674	14644
894.796	14552
894.918	14610
895.04	14552
895.161	14602
895.283	14621
895.405	14583
895.526	14613
895.648	14670
895.769	14655
895.891	14705
896.012	14720
896.134	14792
896.255	14697
896.376	14678
896.498	14648
896.619	14804
896.74	14701
896.861	14819
896.982	15058
897.103	15112
897.224	15039
897.345	14811
897.466	14887
897.587	14857
897.708	15089
897.828	14960
897.949	14864
898.07	14826
898.19	14982
898.311	15127
898.431	14914
898.552	15020
898.672	15180
898.792	15005
898.913	15032
899.033	14910
899.153	14933
899.273	14883
899.393	14849
899.513	14845
899.633	14834
899.753	14902
899.873	14891
899.993	14887
900.113	14933
900.232	14895
900.352	14872
900.472	14811
900.591	14701
900.711	14754
900.83	14697
900.95	14834
901.069	14785
901.189	14697
901.308	14465
901.427	14355
901.546	14457
901.665	14503
901.784	14404
901.904	14259
902.023	14210
902.141	14008
902.26	14005
902.379	14001
902.498	13967
902.617	13936
902.735	14001
902.854	13947
902.973	13868
903.091	13628
903.21	13594
903.328	13708
903.446	13651
903.565	13537
903.683	13518
903.801	13324
903.919	13571
904.038	13506
904.156	13377
904.274	13453
904.392	13308
904.51	13251
904.627	13297
904.745	13464
904.863	13384
904.981	13171
905.098	13034
905.216	13034
905.334	13019
905.451	13046
905.569	12928
905.686	13145
905.803	13084
905.921	12901
906.038	12970
906.155	12768
906.272	12791
906.389	12848
906.506	12574
906.623	12623
906.74	12566
906.857	12528
906.974	12494
907.091	12654
907.208	12688
907.324	12646
907.441	12456
907.557	12422
907.674	12346
907.79	12285
907.907	12342
908.023	12311
908.139	12452
908.256	12323
908.372	12201
908.488	12254
908.604	12121
908.72	12102
908.836	12072
908.952	12068
909.068	12079
909.184	12140
909.3	12152
909.415	12144
909.531	12121
909.647	11889
909.762	11893
909.878	11863
909.993	11939
910.108	11824
910.224	11897
910.339	11863
910.454	11764
910.57	11729
910.685	11665
910.8	11984
910.915	11859
911.03	11813
911.145	11672
911.259	11611
911.374	11505
911.489	11490
911.604	11547
911.718	11269
911.833	11322
911.947	11254
912.062	11151
912.176	11337
912.291	11372
912.405	11391
912.519	11547
912.633	11573
912.748	11326
912.862	11391
912.976	11185
913.09	11132
913.204	11174
913.318	11185
913.431	11364
913.545	11258
913.659	11341
913.772	11277
913.886	11136
914	11060
914.113	11178
914.226	11277
914.34	11117
914.453	11010
914.566	11193
914.68	11018
914.793	10972
914.906	10858
915.019	10812
915.132	10744
915.245	10744
915.358	10831
915.47	10885
915.583	10797
915.696	10877
915.809	10957
915.921	10965
916.034	10839
916.146	10805
916.259	10721
916.371	10862
916.483	10820
916.595	10706
916.708	10714
916.82	10763
916.932	10729
917.044	10683
917.156	10710
917.268	10580
917.38	10660
917.491	10618
917.603	10584
917.715	10782
917.826	10797
917.938	10599
918.049	10554
918.161	10660
918.272	10752
918.384	10763
918.495	10733
918.606	10523
918.717	10428
918.828	10569
918.939	10402
919.05	10417
919.161	10478
919.272	10394
919.383	10382
919.494	10535
919.604	10664
919.715	10569
919.826	10447
919.936	10519
920.047	10573
920.157	10481
920.267	10668
920.378	10626
920.488	10493
920.598	10706
920.708	10915
920.818	10752
920.928	10664
921.038	10843
921.148	10900
921.258	10569
921.368	10390
921.477	10459
921.587	10405
921.697	10276
921.806	10398
921.916	10276
922.025	10154
922.134	10105
922.244	10017
922.353	10150
922.462	9964
922.571	9854
922.68	9720
922.789	9717
922.898	9762
923.007	9720
923.116	9751
923.224	9762
923.333	9709
923.442	9667
923.55	9660
923.659	9606
923.767	9747
923.876	9526
923.984	9644
924.092	9545
924.201	9743
924.309	9656
924.417	9591
924.525	9641
924.633	9572
924.741	10371
924.849	9378
924.956	9549
925.064	9363
925.172	9294
925.279	9367
925.387	9408
925.494	9431
925.602	9469
925.709	9485
925.816	9344
925.924	9344
926.031	9473
926.138	9412
926.245	9473
926.352	9340
926.459	9428
926.566	9462
926.673	9351
926.779	9199
926.886	9214
926.993	9119
927.099	9154
927.206	9066
927.312	9051
927.419	9203
927.525	9131
927.631	9089
927.737	8967
927.843	8971
927.95	8902
928.056	8868
928.162	8979
928.267	9047
928.373	9709
928.479	9070
928.585	8883
928.69	8986
928.796	9032
928.901	8842
929.007	8766
929.112	8967
929.218	8838
929.323	8876
929.428	8834
929.533	8914
929.638	8731
929.743	8834
929.848	8826
929.953	8769
930.058	8682
930.163	8495
930.267	8583
930.372	8682
930.477	8571
930.581	8769
930.685	8625
930.79	8564
930.894	8488
930.998	8511
931.103	8621
931.207	8237
931.311	8218
931.415	8290
931.519	8016
931.623	7959
