Data from test_V78500241_1097.txt Node
Date: Fri Mar 25 14:41:21 CST 2022
User: usil
Spectrometer: V785-0024
Trigger mode: 0
Integration Time (sec): 4.000000E-1
Scans to average: 1
Nonlinearity correction enabled: false
Boxcar width: 0
Storing dark spectrum: false
XAxis mode: Wavelengths
Number of Pixels in Spectrum: 1024
>>>>>Begin Spectral Data<<<<<
801.071	22615
801.214	22672
801.356	22329
801.499	22268
801.641	22154
801.783	22128
801.926	21945
802.068	21937
802.211	21835
802.353	21774
802.496	21675
802.638	21504
802.78	21538
802.923	21500
803.065	21382
803.208	21260
803.35	21374
803.492	21542
803.635	21462
803.777	21355
803.919	21458
804.061	21770
804.204	21496
804.346	21401
804.488	21306
804.63	21340
804.773	21245
804.915	21298
805.057	21473
805.199	21287
805.341	21492
805.483	21504
805.626	21435
805.768	21291
805.91	21298
806.052	21233
806.194	21161
806.336	21511
806.478	21405
806.62	21313
806.762	21469
806.904	21473
807.046	21663
807.188	21701
807.33	21713
807.472	21747
807.614	21724
807.756	21865
807.898	21572
808.04	21519
808.182	21553
808.324	21717
808.465	21709
808.607	21934
808.749	22173
808.891	22188
809.033	22367
809.174	22158
809.316	22097
809.458	21922
809.6	21907
809.741	21888
809.883	21968
810.025	22029
810.166	22051
810.308	22029
810.45	21975
810.591	21926
810.733	21728
810.875	21732
811.016	21549
811.158	21393
811.299	21739
811.441	21614
811.582	21641
811.724	21564
811.865	21325
812.007	21523
812.148	21473
812.29	21591
812.431	21603
812.573	21762
812.714	21762
812.855	21915
812.997	22078
813.138	22268
813.279	22188
813.421	22074
813.562	21884
813.703	21915
813.845	21724
813.986	21382
814.127	21249
814.268	21138
814.41	21096
814.551	21039
814.692	21184
814.833	21043
814.974	20956
815.115	21058
815.256	20845
815.397	20823
815.539	20910
815.68	20933
815.821	20678
815.962	20796
816.103	20804
816.244	20609
816.385	20473
816.526	20625
816.666	20347
816.807	20240
816.948	20313
817.089	20446
817.23	20259
817.371	20301
817.512	20214
817.653	20221
817.793	20259
817.934	20240
818.075	20172
818.216	20290
818.356	20210
818.497	20119
818.638	20012
818.778	19925
818.919	19913
819.06	19887
819.2	20001
819.341	20149
819.481	20107
819.622	20221
819.762	20461
819.903	20339
820.043	20320
820.184	20351
820.324	20088
820.465	20324
820.605	20206
820.746	20237
820.886	20065
821.026	20050
821.167	20176
821.307	20259
821.447	20035
821.588	20062
821.728	19978
821.868	19696
822.008	19613
822.149	19499
822.289	19544
822.429	19335
822.569	19297
822.709	19259
822.849	19103
822.99	19141
823.13	19072
823.27	19137
823.41	18867
823.55	18844
823.69	18791
823.83	18939
823.97	18749
824.11	18563
824.25	18509
824.389	18620
824.529	18700
824.669	18673
824.809	18817
824.949	18791
825.089	18658
825.228	18738
825.368	18410
825.508	18544
825.648	18498
825.787	18388
825.927	18585
826.067	18372
826.206	18429
826.346	18460
826.485	18467
826.625	18414
826.765	18574
826.904	18604
827.044	18266
827.183	18251
827.323	18152
827.462	18247
827.601	18205
827.741	18178
827.88	18186
828.02	18125
828.159	18205
828.298	18190
828.437	18102
828.577	18072
828.716	18243
828.855	18178
828.994	17794
829.134	17847
829.273	17977
829.412	17973
829.551	17767
829.69	17885
829.829	17908
829.968	18041
830.107	18041
830.246	17821
830.385	17794
830.524	17748
830.663	17752
830.802	17573
830.941	17501
831.08	17539
831.219	17585
831.357	17661
831.496	17722
831.635	17482
831.774	17433
831.913	17459
832.051	17341
832.19	17318
832.329	17330
832.467	17166
832.606	17185
832.744	17174
832.883	17246
833.022	17200
833.16	17204
833.299	17292
833.437	17337
833.576	17299
833.714	17242
833.852	17299
833.991	17318
834.129	17379
834.267	17433
834.406	17288
834.544	17239
834.682	17318
834.821	17296
834.959	17330
835.097	17258
835.235	17292
835.373	17246
835.511	17368
835.65	17136
835.788	17185
835.926	17025
836.064	16930
836.202	17003
836.34	17242
836.478	17242
836.615	17181
836.753	17155
836.891	17235
837.029	17223
837.167	17041
837.305	17071
837.443	17086
837.58	16968
837.718	17037
837.856	17045
837.993	17014
838.131	17079
838.269	16763
838.406	17003
838.544	16847
838.681	16736
838.819	16710
838.956	16577
839.094	16637
839.231	16672
839.369	16637
839.506	17064
839.643	16900
839.781	16664
839.918	16466
840.055	16508
840.193	16508
840.33	16527
840.467	16558
840.604	16573
840.742	16828
840.879	16421
841.016	16489
841.153	16405
841.29	16580
841.427	16546
841.564	16531
841.701	16561
841.838	16554
841.975	16478
842.112	16409
842.249	16386
842.385	16306
842.522	16634
842.659	16405
842.796	16344
842.933	16318
843.069	16341
843.206	16306
843.343	16462
843.479	16367
843.616	16344
843.752	16139
843.889	16135
844.025	16196
844.162	16010
844.298	16246
844.435	16124
844.571	16204
844.708	16150
844.844	16280
844.98	16352
845.117	16188
845.253	16192
845.389	16162
845.525	16188
845.661	16185
845.798	16310
845.934	16379
846.07	16382
846.206	16500
846.342	16478
846.478	16185
846.614	15930
846.75	15755
846.886	15682
847.022	15800
847.158	15698
847.294	15797
847.429	15739
847.565	15675
847.701	15934
847.837	15424
847.972	15458
848.108	15648
848.244	15485
848.379	15351
848.515	15272
848.65	15321
848.786	15367
848.921	15249
849.057	15435
849.192	15283
849.328	15279
849.463	15287
849.598	15272
849.734	15291
849.869	15150
850.004	15058
850.14	15093
850.275	15127
850.41	15009
850.545	15062
850.68	15077
850.815	15108
850.95	14944
851.085	15241
851.22	15108
851.355	15039
851.49	15020
851.625	14975
851.76	15036
851.895	14960
852.03	14971
852.165	15009
852.299	15013
852.434	15123
852.569	15051
852.703	15055
852.838	15260
852.973	15291
853.107	15268
853.242	14994
853.376	14963
853.511	14788
853.645	14857
853.78	15097
853.914	15005
854.048	14941
854.183	14910
854.317	15055
854.451	15039
854.585	14895
854.72	14910
854.854	14963
854.988	14880
855.122	14811
855.256	14785
855.39	14960
855.524	14998
855.658	15028
855.792	14975
855.926	14944
856.06	14979
856.194	15093
856.327	14838
856.461	15024
856.595	14895
856.729	14899
856.862	15093
856.996	14853
857.13	14956
857.263	14994
857.397	15203
857.53	14967
857.664	15043
857.797	15089
857.931	15013
858.064	15062
858.197	15051
858.331	14944
858.464	14918
858.597	14876
858.731	15001
858.864	14952
858.997	15036
859.13	15032
859.263	14979
859.396	15047
859.529	14982
859.662	14910
859.795	14941
859.928	14963
860.061	15074
860.194	15157
860.327	14975
860.46	14998
860.592	15032
860.725	15100
860.858	15112
860.99	15028
861.123	14785
861.256	14830
861.388	14979
861.521	15705
861.653	14792
861.786	14804
861.918	14834
862.05	14864
862.183	14792
862.315	14956
862.447	14967
862.58	14872
862.712	14724
862.844	14716
862.976	14743
863.108	14788
863.24	15093
863.372	14590
863.504	14659
863.636	14674
863.768	14746
863.9	14735
864.032	14651
864.164	14594
864.296	14727
864.428	14853
864.559	14887
864.691	14792
864.823	14697
864.954	14758
865.086	14701
865.217	14697
865.349	14644
865.48	14651
865.612	14678
865.743	14914
865.875	14716
866.006	14689
866.137	14602
866.269	14708
866.4	14640
866.531	14667
866.662	14667
866.793	14613
866.924	14682
867.055	14579
867.186	14648
867.317	14682
867.448	14651
867.579	14686
867.71	14629
867.841	14674
867.972	14689
868.103	14705
868.233	14689
868.364	14674
868.495	14762
868.625	14883
868.756	14990
868.886	14834
869.017	14887
869.147	15024
869.278	15043
869.408	14998
869.539	14929
869.669	15001
869.799	14895
869.929	15058
870.06	14998
870.19	15313
870.32	15283
870.45	15184
870.58	15344
870.71	15473
870.84	15359
870.97	15313
871.1	15378
871.23	15519
871.36	15542
871.489	15370
871.619	15439
871.749	15564
871.879	15603
872.008	15694
872.138	15576
872.267	15439
872.397	15401
872.526	15351
872.656	15393
872.785	15424
872.915	15492
873.044	15595
873.173	15515
873.303	15564
873.432	15606
873.561	15682
873.69	15614
873.819	15561
873.948	15667
874.077	15576
874.206	15538
874.335	15580
874.464	15739
874.593	15945
874.722	15823
874.851	15998
874.979	15903
875.108	15915
875.237	15869
875.365	15717
875.494	15778
875.623	15926
875.751	15800
875.88	15895
876.008	16051
876.136	16105
876.265	16257
876.393	16440
876.521	16424
876.65	16382
876.778	16344
876.906	16246
877.034	16154
877.162	16295
877.29	16306
877.418	16325
877.546	16253
877.674	16341
877.802	16299
877.93	16318
878.058	16310
878.185	16196
878.313	16246
878.441	16242
878.568	16204
878.696	16329
878.824	16417
878.951	16455
879.079	16558
879.206	16763
879.333	16687
879.461	16569
879.588	16641
879.715	16679
879.842	16729
879.97	16508
880.097	16246
880.224	16287
880.351	16276
880.478	16219
880.605	16078
880.732	16310
880.859	16421
880.986	16226
881.112	16238
881.239	16131
881.366	15934
881.493	15903
881.619	15785
881.746	15873
881.872	15960
881.999	15869
882.125	15865
882.252	15888
882.378	15831
882.505	16036
882.631	15781
882.757	15751
882.883	15709
883.01	15785
883.136	15606
883.262	15557
883.388	15519
883.514	15679
883.64	15743
883.766	15622
883.892	15469
884.018	15481
884.143	15686
884.269	15808
884.395	15405
884.52	15370
884.646	15435
884.772	15294
884.897	15165
885.023	15382
885.148	15412
885.274	15386
885.399	15408
885.524	15469
885.65	15329
885.775	15408
885.9	15291
886.025	15431
886.15	15428
886.275	15374
886.4	15252
886.525	15431
886.65	15211
886.775	15268
886.9	15515
887.025	15519
887.149	15466
887.274	15169
887.399	15222
887.523	15123
887.648	15062
887.773	14979
887.897	15226
888.021	15272
888.146	15055
888.27	15287
888.395	15272
888.519	15245
888.643	15245
888.767	15230
888.891	14979
889.015	14986
889.139	14986
889.263	15001
889.387	15032
889.511	15165
889.635	15108
889.759	14906
889.883	15020
890.006	15097
890.13	15020
890.254	14895
890.377	14941
890.501	14754
890.624	14785
890.748	14960
890.871	14712
890.995	14560
891.118	14537
891.241	14629
891.364	14727
891.488	14834
891.611	14575
891.734	14655
891.857	14708
891.98	14724
892.103	14739
892.226	14727
892.349	14590
892.471	14602
892.594	14644
892.717	14678
892.839	14644
892.962	14621
893.085	14830
893.207	14686
893.33	14636
893.452	14564
893.575	14655
893.697	14689
893.819	14777
893.941	14830
894.064	14845
894.186	14648
894.308	14659
894.43	14769
894.552	14754
894.674	14811
894.796	14568
894.918	14705
895.04	14670
895.161	14785
895.283	14842
895.405	14701
895.526	14697
895.648	14739
895.769	14902
895.891	14872
896.012	14845
896.134	14834
896.255	14769
896.376	14807
896.498	14830
896.619	14902
896.74	14796
896.861	14883
896.982	15241
897.103	15272
897.224	15070
897.345	14963
897.466	14975
897.587	15070
897.708	15188
897.828	15203
897.949	14944
898.07	15066
898.19	15036
898.311	15081
898.431	15005
898.552	15241
898.672	15199
898.792	15218
898.913	15211
899.033	15024
899.153	14994
899.273	14925
899.393	15024
899.513	15024
899.633	15020
899.753	15074
899.873	14990
899.993	15055
900.113	15112
900.232	15119
900.352	15024
900.472	14895
900.591	14834
900.711	14895
900.83	14819
900.95	14914
901.069	15001
901.189	14785
901.308	14533
901.427	14549
901.546	14484
901.665	14571
901.784	14556
901.904	14336
902.023	14244
902.141	14180
902.26	14088
902.379	14119
902.498	14103
902.617	14107
902.735	14138
902.854	14134
902.973	14115
903.091	13852
903.21	13871
903.328	13799
903.446	13601
903.565	13571
903.683	13788
903.801	13567
903.919	13483
904.038	13597
904.156	13430
904.274	13506
904.392	13419
904.51	13476
904.627	13384
904.745	13620
904.863	13445
904.981	13282
905.098	13110
905.216	13118
905.334	13190
905.451	13118
905.569	13137
905.686	13137
905.803	13160
905.921	12875
906.038	13080
906.155	13008
906.272	12913
906.389	12859
906.506	12730
906.623	12741
906.74	12745
906.857	12597
906.974	12597
907.091	12795
907.208	12741
907.324	12772
907.441	12631
907.557	12433
907.674	12448
907.79	12372
907.907	12441
908.023	12490
908.139	12445
908.256	12346
908.372	12490
908.488	12448
908.604	12232
908.72	12216
908.836	12152
908.952	12232
909.068	12182
909.184	12353
909.3	12190
909.415	12243
909.531	12190
909.647	11942
909.762	11946
909.878	11942
909.993	12015
910.108	11999
910.224	11885
910.339	11935
910.454	11870
910.57	11863
910.685	11813
910.8	12034
910.915	12026
911.03	11821
911.145	11726
911.259	11608
911.374	11627
911.489	11558
911.604	11493
911.718	11421
911.833	11482
911.947	11231
912.062	11231
912.176	11379
912.291	11467
912.405	11398
912.519	11528
912.633	11581
912.748	11490
912.862	11406
912.976	11379
913.09	11083
913.204	11246
913.318	11364
913.431	11391
913.545	11322
913.659	11440
913.772	11261
913.886	11170
914	11124
914.113	11246
914.226	11265
914.34	11231
914.453	11033
914.566	11231
914.68	11105
914.793	11052
914.906	10904
915.019	10972
915.132	10767
915.245	10873
915.358	10923
915.47	10866
915.583	10896
915.696	10908
915.809	11064
915.921	11056
916.034	10831
916.146	10843
916.259	10809
916.371	10930
916.483	11006
916.595	10828
916.708	10824
916.82	10717
916.932	10881
917.044	10790
917.156	10824
917.268	10672
917.38	10759
917.491	10683
917.603	10729
917.715	10820
917.826	10755
917.938	10691
918.049	10672
918.161	10706
918.272	10820
918.384	10740
918.495	10637
918.606	10527
918.717	10527
918.828	10607
918.939	10569
919.05	10478
919.161	10546
919.272	10337
919.383	10485
919.494	10691
919.604	10767
919.715	10596
919.826	10500
919.936	10573
920.047	10656
920.157	10584
920.267	10786
920.378	10626
920.488	10626
920.598	10805
920.708	10980
920.818	10850
920.928	10809
921.038	10942
921.148	11010
921.258	10683
921.368	10493
921.477	10512
921.587	10493
921.697	10314
921.806	10485
921.916	10295
922.025	10188
922.134	10105
922.244	10162
922.353	10223
922.462	9979
922.571	9956
922.68	9789
922.789	9800
922.898	9857
923.007	9785
923.116	9892
923.224	9797
923.333	9751
923.442	9698
923.55	9724
923.659	9743
923.767	9842
923.876	9690
923.984	9755
924.092	9584
924.201	9652
924.309	9698
924.417	9759
924.525	9720
924.633	9728
924.741	10649
924.849	9485
924.956	9629
925.064	9507
925.172	9431
925.279	9443
925.387	9458
925.494	9481
925.602	9644
925.709	9584
925.816	9496
925.924	9515
926.031	9553
926.138	9420
926.245	9572
926.352	9405
926.459	9625
926.566	9519
926.673	9363
926.779	9332
926.886	9359
926.993	9211
927.099	9207
927.206	9180
927.312	9154
927.419	9268
927.525	9169
927.631	9298
927.737	9032
927.843	9051
927.95	9013
928.056	9085
928.162	9150
928.267	9119
928.373	9766
928.479	9108
928.585	8933
928.69	9089
928.796	9127
928.901	8963
929.007	8842
929.112	8937
929.218	8982
929.323	8876
929.428	8899
929.533	9070
929.638	8891
929.743	8929
929.848	8933
929.953	8842
930.058	8830
930.163	8655
930.267	8693
930.372	8766
930.477	8625
930.581	8921
930.685	8727
930.79	8590
930.894	8617
930.998	8621
931.103	8731
931.207	8362
931.311	8377
931.415	8336
931.519	8092
931.623	8092
