Data from test_V78500241_933.txt Node
Date: Fri Mar 25 14:40:12 CST 2022
User: usil
Spectrometer: V785-0024
Trigger mode: 0
Integration Time (sec): 4.000000E-1
Scans to average: 1
Nonlinearity correction enabled: false
Boxcar width: 0
Storing dark spectrum: false
XAxis mode: Wavelengths
Number of Pixels in Spectrum: 1024
>>>>>Begin Spectral Data<<<<<
801.071	24429
801.214	24384
801.356	24148
801.499	24057
801.641	23824
801.783	23908
801.926	23805
802.068	23786
802.211	23638
802.353	23478
802.496	23402
802.638	23387
802.78	23318
802.923	23105
803.065	23041
803.208	23109
803.35	23250
803.492	23265
803.635	23261
803.777	23155
803.919	23315
804.061	23684
804.204	23269
804.346	23067
804.488	22980
804.63	22984
804.773	23033
804.915	23029
805.057	23303
805.199	23220
805.341	23258
805.483	23337
805.626	23227
805.768	23277
805.91	23235
806.052	23220
806.194	23288
806.336	23543
806.478	23330
806.62	23334
806.762	23478
806.904	23680
807.046	23927
807.188	23893
807.33	23992
807.472	24022
807.614	23912
807.756	24140
807.898	24220
808.04	24133
808.182	24410
808.324	24867
808.465	25259
808.607	25894
808.749	26233
808.891	26606
809.033	26533
809.174	26240
809.316	25799
809.458	25426
809.6	25118
809.741	24798
809.883	24544
810.025	24517
810.166	24350
810.308	24266
810.45	24083
810.591	24053
810.733	23767
810.875	23748
811.016	23516
811.158	23528
811.299	23665
811.441	23672
811.582	23703
811.724	23535
811.865	23474
812.007	23395
812.148	23547
812.29	23425
812.431	23680
812.573	23748
812.714	23885
812.855	24007
812.997	24045
813.138	24247
813.279	24049
813.421	23912
813.562	23843
813.703	23760
813.845	23684
813.986	23292
814.127	23109
814.268	23018
814.41	23094
814.551	23029
814.692	22927
814.833	22919
814.974	22869
815.115	23029
815.256	22839
815.397	22687
815.539	22748
815.68	22698
815.821	22687
815.962	22546
816.103	22645
816.244	22512
816.385	22451
816.526	22436
816.666	22337
816.807	22105
816.948	22158
817.089	22265
817.23	22284
817.371	22067
817.512	22040
817.653	22204
817.793	21949
817.934	22059
818.075	22048
818.216	22097
818.356	22044
818.497	21823
818.638	21831
818.778	21705
818.919	21641
819.06	21739
819.2	21922
819.341	21956
819.481	21888
819.622	22192
819.762	22211
819.903	22150
820.043	22143
820.184	21979
820.324	22074
820.465	22086
820.605	21964
820.746	22055
820.886	21797
821.026	22036
821.167	21926
821.307	22021
821.447	22048
821.588	21812
821.728	21755
821.868	21591
822.008	21526
822.149	21439
822.289	21363
822.429	21070
822.569	21146
822.709	21005
822.849	20853
822.99	20830
823.13	20876
823.27	20819
823.41	20613
823.55	20625
823.69	20762
823.83	20678
823.97	20693
824.11	20549
824.25	20454
824.389	20404
824.529	20480
824.669	20545
824.809	20404
824.949	20541
825.089	20514
825.228	20290
825.368	20176
825.508	20271
825.648	20252
825.787	20324
825.927	20248
826.067	20100
826.206	20142
826.346	20191
826.485	20275
826.625	20149
826.765	20358
826.904	20176
827.044	19951
827.183	19986
827.323	19909
827.462	20012
827.601	19799
827.741	19868
827.88	19890
828.02	19761
828.159	19841
828.298	19909
828.437	19997
828.577	19822
828.716	20027
828.855	19803
828.994	19563
829.134	19628
829.273	19689
829.412	19514
829.551	19453
829.69	19449
829.829	19586
829.968	19578
830.107	19632
830.246	19605
830.385	19472
830.524	19468
830.663	19388
830.802	19270
830.941	19202
831.08	19259
831.219	19369
831.357	19312
831.496	19377
831.635	19099
831.774	19164
831.913	19076
832.051	19019
832.19	18924
832.329	19012
832.467	19034
832.606	18909
832.744	18901
832.883	18844
833.022	18848
833.16	18821
833.299	18989
833.437	19019
833.576	19004
833.714	19004
833.852	19038
833.991	19110
834.129	19236
834.267	19110
834.406	18973
834.544	18943
834.682	19061
834.821	18901
834.959	19038
835.097	18886
835.235	18981
835.373	18973
835.511	18947
835.65	18783
835.788	18719
835.926	18665
836.064	18589
836.202	18589
836.34	18707
836.478	18795
836.615	18692
836.753	18760
836.891	18829
837.029	18722
837.167	18642
837.305	18700
837.443	18635
837.58	18566
837.718	18677
837.856	18669
837.993	18631
838.131	18521
838.269	18536
838.406	18616
838.544	18502
838.681	18292
838.819	18209
838.956	18133
839.094	18167
839.231	18220
839.369	18117
839.506	18486
839.643	18376
839.781	18194
839.918	18064
840.055	18049
840.193	18045
840.33	17969
840.467	18022
840.604	18038
840.742	18254
840.879	17935
841.016	17958
841.153	17946
841.29	18201
841.427	17965
841.564	17999
841.701	18125
841.838	18057
841.975	17923
842.112	17980
842.249	17748
842.385	17866
842.522	18072
842.659	17908
842.796	17813
842.933	17882
843.069	17707
843.206	17684
843.343	17855
843.479	17752
843.616	17764
843.752	17577
843.889	17512
844.025	17733
844.162	17646
844.298	17691
844.435	17634
844.571	17619
844.708	17813
844.844	17901
844.98	17912
845.117	18022
845.253	17935
845.389	18015
845.525	18521
845.661	19145
845.798	19772
845.934	20617
846.07	20891
846.206	20826
846.342	20415
846.478	19525
846.614	18433
846.75	17923
846.886	17566
847.022	17486
847.158	17383
847.294	17303
847.429	17208
847.565	17220
847.701	17455
847.837	16961
847.972	16839
848.108	16915
848.244	16881
848.379	16801
848.515	16736
848.65	16698
848.786	16675
848.921	16736
849.057	16892
849.192	16843
849.328	16812
849.463	16698
849.598	16592
849.734	16630
849.869	16538
850.004	16538
850.14	16367
850.275	16394
850.41	16287
850.545	16329
850.68	16428
850.815	16417
850.95	16371
851.085	16637
851.22	16527
851.355	16470
851.49	16371
851.625	16386
851.76	16405
851.895	16314
852.03	16318
852.165	16413
852.299	16500
852.434	16440
852.569	16436
852.703	16405
852.838	16508
852.973	16569
853.107	16603
853.242	16417
853.376	16287
853.511	16337
853.645	16310
853.78	16436
853.914	16287
854.048	16287
854.183	16337
854.317	16295
854.451	16398
854.585	16329
854.72	16219
854.854	16306
854.988	16192
855.122	16325
855.256	16173
855.39	16295
855.524	16360
855.658	16272
855.792	16291
855.926	16284
856.06	16276
856.194	16394
856.327	16196
856.461	16268
856.595	16249
856.729	16242
856.862	16398
856.996	16379
857.13	16276
857.263	16421
857.397	16348
857.53	16344
857.664	16371
857.797	16318
857.931	16394
858.064	16322
858.197	16436
858.331	16276
858.464	16242
858.597	16166
858.731	16306
858.864	16272
858.997	16226
859.13	16219
859.263	16303
859.396	16367
859.529	16150
859.662	16219
859.795	16166
859.928	16280
860.061	16402
860.194	16360
860.327	16223
860.46	16207
860.592	16360
860.725	16375
860.858	16261
860.99	16318
861.123	16177
861.256	16181
861.388	16192
861.521	16866
861.653	16177
861.786	16097
861.918	16135
862.05	16139
862.183	16276
862.315	16249
862.447	16242
862.58	16150
862.712	16025
862.844	15903
862.976	16093
863.108	16055
863.24	16432
863.372	15983
863.504	15987
863.636	16048
863.768	16017
863.9	15949
864.032	16013
864.164	15983
864.296	16131
864.428	16173
864.559	16040
864.691	16078
864.823	15979
864.954	16093
865.086	15949
865.217	15850
865.349	15876
865.48	16002
865.612	16017
865.743	16173
865.875	15975
866.006	15991
866.137	15934
866.269	15949
866.4	15926
866.531	15873
866.662	15857
866.793	15926
866.924	15960
867.055	15895
867.186	15831
867.317	15915
867.448	15816
867.579	15968
867.71	15850
867.841	15861
867.972	15953
868.103	15960
868.233	15865
868.364	15903
868.495	15918
868.625	16234
868.756	16200
868.886	16032
869.017	16116
869.147	16367
869.278	16379
869.408	16249
869.539	16150
869.669	16284
869.799	16116
869.929	16371
870.06	16318
870.19	16527
870.32	16489
870.45	16500
870.58	16603
870.71	16691
870.84	16565
870.97	16656
871.1	16546
871.23	16660
871.36	16713
871.489	16622
871.619	16755
871.749	16736
871.879	16793
872.008	16835
872.138	16805
872.267	16816
872.397	16653
872.526	16691
872.656	16691
872.785	16649
872.915	16755
873.044	16942
873.173	16881
873.303	16812
873.432	16774
873.561	16873
873.69	16812
873.819	16885
873.948	16949
874.077	16847
874.206	16824
874.335	16835
874.464	16946
874.593	17193
874.722	16987
874.851	17140
874.979	17166
875.108	17204
875.237	17162
875.365	17166
875.494	17166
875.623	17242
875.751	17170
875.88	17189
876.008	17364
876.136	17330
876.265	17619
876.393	17737
876.521	17813
876.65	17714
876.778	17581
876.906	17695
877.034	17554
877.162	17665
877.29	17520
877.418	17726
877.546	17741
877.674	17634
877.802	17665
877.93	17786
878.058	17756
878.185	17672
878.313	17756
878.441	17764
878.568	17718
878.696	17832
878.824	18060
878.951	18186
879.079	18517
879.206	18859
879.333	19012
879.461	19148
879.588	19327
879.715	19365
879.842	19449
879.97	18935
880.097	18494
880.224	18273
880.351	18194
880.478	18068
880.605	17863
880.732	17927
880.859	18041
880.986	17866
881.112	17851
881.239	17741
881.366	17615
881.493	17524
881.619	17490
881.746	17600
881.872	17490
881.999	17471
882.125	17474
882.252	17532
882.378	17573
882.505	17634
882.631	17330
882.757	17318
882.883	17402
883.01	17280
883.136	17288
883.262	17200
883.388	17155
883.514	17269
883.64	17391
883.766	17246
883.892	17083
884.018	17200
884.143	17337
884.269	17387
884.395	17159
884.52	17025
884.646	17060
884.772	16904
884.897	16797
885.023	16984
885.148	17064
885.274	17200
885.399	17113
885.524	16930
885.65	17018
885.775	17025
885.9	16923
886.025	16999
886.15	16866
886.275	16908
886.4	16778
886.525	16839
886.65	16809
886.775	16771
886.9	16854
887.025	17079
887.149	16820
887.274	16592
887.399	16538
887.523	16611
887.648	16470
887.773	16428
887.897	16626
888.021	16443
888.146	16451
888.27	16580
888.395	16653
888.519	16626
888.643	16615
888.767	16504
888.891	16478
889.015	16421
889.139	16348
889.263	16257
889.387	16432
889.511	16443
889.635	16379
889.759	16303
889.883	16337
890.006	16382
890.13	16500
890.254	16124
890.377	16139
890.501	16029
890.624	15949
890.748	16021
890.871	16059
890.995	15903
891.118	15876
891.241	15983
891.364	15934
891.488	16082
891.611	15945
891.734	15979
891.857	15975
891.98	15964
892.103	16036
892.226	15895
892.349	15926
892.471	15751
892.594	15949
892.717	15892
892.839	15736
892.962	15899
893.085	15895
893.207	15941
893.33	15755
893.452	15747
893.575	15846
893.697	15823
893.819	16040
893.941	16158
894.064	15884
894.186	15884
894.308	15831
894.43	15964
894.552	16063
894.674	15991
894.796	15690
894.918	15979
895.04	15800
895.161	15956
895.283	15865
895.405	15857
895.526	15857
895.648	15831
895.769	15972
895.891	16055
896.012	16101
896.134	15956
896.255	15964
896.376	16032
896.498	15956
896.619	15998
896.74	15991
896.861	15960
896.982	16322
897.103	16512
897.224	16337
897.345	16204
897.466	16166
897.587	16177
897.708	16306
897.828	16238
897.949	16192
898.07	16105
898.19	16200
898.311	16375
898.431	16261
898.552	16291
898.672	16306
898.792	16356
898.913	16310
899.033	16211
899.153	16173
899.273	15991
899.393	16071
899.513	16177
899.633	16086
899.753	16230
899.873	16013
899.993	16200
900.113	16169
900.232	16139
900.352	16166
900.472	16036
900.591	15972
900.711	15930
900.83	15895
900.95	16147
901.069	15987
901.189	15926
901.308	15698
901.427	15572
901.546	15606
901.665	15652
901.784	15656
901.904	15401
902.023	15492
902.141	15336
902.26	15051
902.379	15260
902.498	15192
902.617	15047
902.735	15058
902.854	15119
902.973	15085
903.091	14819
903.21	14842
903.328	14895
903.446	14796
903.565	14769
903.683	14735
903.801	14545
903.919	14629
904.038	14617
904.156	14366
904.274	14499
904.392	14396
904.51	14484
904.627	14419
904.745	14461
904.863	14461
904.981	14199
905.098	14130
905.216	14073
905.334	14058
905.451	14065
905.569	14088
905.686	14233
905.803	14126
905.921	14001
906.038	13959
906.155	14008
906.272	13753
906.389	13811
906.506	13738
906.623	13670
906.74	13571
906.857	13563
906.974	13601
907.091	13715
907.208	13769
907.324	13727
907.441	13605
907.557	13388
907.674	13396
907.79	13289
907.907	13308
908.023	13430
908.139	13434
908.256	13358
908.372	13225
908.488	13369
908.604	13179
908.72	13072
908.836	13095
908.952	13114
909.068	13107
909.184	13232
909.3	13118
909.415	13126
909.531	13137
909.647	12913
909.762	12795
909.878	12878
909.993	12993
910.108	12856
910.224	12840
910.339	12817
910.454	12776
910.57	12753
910.685	12570
910.8	12897
910.915	12848
911.03	12829
911.145	12582
911.259	12509
911.374	12601
911.489	12490
911.604	12429
911.718	12266
911.833	12342
911.947	12178
912.062	12148
912.176	12228
912.291	12205
912.405	12330
912.519	12536
912.633	12437
912.748	12365
912.862	12220
912.976	12133
913.09	12022
913.204	12076
913.318	12133
913.431	12190
913.545	12201
913.659	12289
913.772	12068
913.886	12030
914	12019
914.113	12121
914.226	12129
914.34	11969
914.453	11923
914.566	12041
914.68	11969
914.793	11939
914.906	11828
915.019	11649
915.132	11710
915.245	11703
915.358	11737
915.47	11737
915.583	11714
915.696	11775
915.809	11802
915.921	11859
916.034	11703
916.146	11714
916.259	11707
916.371	11722
916.483	11786
916.595	11608
916.708	11649
916.82	11608
916.932	11577
917.044	11604
917.156	11562
917.268	11490
917.38	11577
917.491	11455
917.603	11589
917.715	11581
917.826	11627
917.938	11509
918.049	11284
918.161	11505
918.272	11634
918.384	11611
918.495	11497
918.606	11398
918.717	11223
918.828	11421
918.939	11398
919.05	11269
919.161	11448
919.272	11124
919.383	11185
919.494	11391
919.604	11463
919.715	11337
919.826	11273
919.936	11326
920.047	11425
920.157	11322
920.267	11524
920.378	11417
920.488	11337
920.598	11512
920.708	11672
920.818	11509
920.928	11600
921.038	11718
921.148	11657
921.258	11307
921.368	11250
921.477	11189
921.587	11086
921.697	11067
921.806	11231
921.916	11117
922.025	10812
922.134	10961
922.244	10835
922.353	10862
922.462	10687
922.571	10618
922.68	10577
922.789	10504
922.898	10569
923.007	10390
923.116	10538
923.224	10489
923.333	10538
923.442	10386
923.55	10322
923.659	10436
923.767	10371
923.876	10356
923.984	10409
924.092	10337
924.201	10337
924.309	10276
924.417	10379
924.525	10257
924.633	10287
924.741	11064
924.849	10101
924.956	10306
925.064	10162
925.172	10086
925.279	10124
925.387	10139
925.494	10150
925.602	10268
925.709	10135
925.816	10055
925.924	10051
926.031	10135
926.138	10078
926.245	10135
926.352	9983
926.459	10147
926.566	10200
926.673	10036
926.779	9949
926.886	9983
926.993	9899
927.099	9755
927.206	9686
927.312	9717
927.419	9846
927.525	9789
927.631	9812
927.737	9690
927.843	9610
927.95	9545
928.056	9701
928.162	9625
928.267	9671
928.373	10238
928.479	9740
928.585	9500
928.69	9595
928.796	9682
928.901	9542
929.007	9439
929.112	9542
929.218	9519
929.323	9523
929.428	9420
929.533	9568
929.638	9424
929.743	9420
929.848	9542
929.953	9431
930.058	9310
930.163	9222
930.267	9283
930.372	9348
930.477	9123
930.581	9401
930.685	9279
930.79	9123
930.894	9222
930.998	9150
931.103	9253
931.207	8921
931.311	8899
931.415	8796
931.519	8636
931.623	8564
