Data from test_V78500241_2541.txt Node
Date: Fri Mar 25 14:51:24 CST 2022
User: usil
Spectrometer: V785-0024
Trigger mode: 0
Integration Time (sec): 4.000000E-1
Scans to average: 1
Nonlinearity correction enabled: false
Boxcar width: 0
Storing dark spectrum: false
XAxis mode: Wavelengths
Number of Pixels in Spectrum: 1024
>>>>>Begin Spectral Data<<<<<
801.071	22025
801.214	21926
801.356	21644
801.499	21610
801.641	21435
801.783	21386
801.926	21481
802.068	21287
802.211	21272
802.353	21252
802.496	21055
802.638	20864
802.78	20811
802.923	20895
803.065	20724
803.208	20686
803.35	20804
803.492	20842
803.635	20861
803.777	20804
803.919	20731
804.061	21230
804.204	20834
804.346	20777
804.488	20735
804.63	20754
804.773	20632
804.915	20537
805.057	20769
805.199	20651
805.341	20693
805.483	20842
805.626	20750
805.768	20609
805.91	20735
806.052	20731
806.194	20697
806.336	20849
806.478	20670
806.62	20499
806.762	20712
806.904	20785
807.046	21199
807.188	21013
807.33	20948
807.472	21032
807.614	20944
807.756	20910
807.898	20765
808.04	20640
808.182	20663
808.324	20727
808.465	20826
808.607	20937
808.749	20960
808.891	21169
809.033	21298
809.174	21074
809.316	20986
809.458	21047
809.6	21028
809.741	21161
809.883	21074
810.025	21188
810.166	21138
810.308	21150
810.45	21146
810.591	20979
810.733	20857
810.875	20868
811.016	20826
811.158	20518
811.299	20895
811.441	20971
811.582	20891
811.724	20842
811.865	20773
812.007	20758
812.148	20754
812.29	20826
812.431	20838
812.573	21104
812.714	21195
812.855	21332
812.997	21488
813.138	21473
813.279	21397
813.421	21252
813.562	21268
813.703	21135
813.845	20975
813.986	20640
814.127	20560
814.268	20442
814.41	20317
814.551	20347
814.692	20362
814.833	20290
814.974	20415
815.115	20328
815.256	20286
815.397	20206
815.539	20339
815.68	20020
815.821	20035
815.962	20145
816.103	20046
816.244	19883
816.385	19814
816.526	19818
816.666	19666
816.807	19464
816.948	19529
817.089	19544
817.23	19563
817.371	19533
817.512	19487
817.653	19586
817.793	19472
817.934	19411
818.075	19426
818.216	19468
818.356	19430
818.497	19316
818.638	19213
818.778	19206
818.919	19225
819.06	19209
819.2	19240
819.341	19381
819.481	19453
819.622	19506
819.762	19776
819.903	19681
820.043	19472
820.184	19506
820.324	19491
820.465	19540
820.605	19449
820.746	19525
820.886	19407
821.026	19396
821.167	19396
821.307	19400
821.447	19403
821.588	19304
821.728	19202
821.868	19053
822.008	18798
822.149	18920
822.289	18757
822.429	18612
822.569	18544
822.709	18589
822.849	18380
822.99	18410
823.13	18384
823.27	18433
823.41	18159
823.55	18049
823.69	18254
823.83	18117
823.97	18159
824.11	17999
824.25	17866
824.389	17908
824.529	17916
824.669	17916
824.809	17992
824.949	17889
825.089	17908
825.228	18015
825.368	17657
825.508	17668
825.648	17733
825.787	17802
825.927	17726
826.067	17661
826.206	17703
826.346	17687
826.485	17718
826.625	17657
826.765	17824
826.904	17737
827.044	17478
827.183	17436
827.323	17345
827.462	17505
827.601	17482
827.741	17383
827.88	17425
828.02	17258
828.159	17395
828.298	17509
828.437	17459
828.577	17364
828.716	17493
828.855	17330
828.994	17128
829.134	17162
829.273	17254
829.412	17090
829.551	17022
829.69	17083
829.829	17109
829.968	17322
830.107	17159
830.246	17200
830.385	17151
830.524	17041
830.663	16934
830.802	16961
830.941	16839
831.08	16805
831.219	16911
831.357	16763
831.496	17056
831.635	16797
831.774	16675
831.913	16622
832.051	16527
832.19	16569
832.329	16443
832.467	16459
832.606	16417
832.744	16466
832.883	16390
833.022	16367
833.16	16493
833.299	16470
833.437	16512
833.576	16462
833.714	16516
833.852	16634
833.991	16573
834.129	16622
834.267	16645
834.406	16516
834.544	16577
834.682	16558
834.821	16500
834.959	16733
835.097	16462
835.235	16577
835.373	16535
835.511	16516
835.65	16485
835.788	16561
835.926	16325
836.064	16268
836.202	16318
836.34	16493
836.478	16485
836.615	16440
836.753	16386
836.891	16504
837.029	16466
837.167	16329
837.305	16367
837.443	16337
837.58	16295
837.718	16459
837.856	16325
837.993	16238
838.131	16188
838.269	16276
838.406	16242
838.544	16211
838.681	15968
838.819	15994
838.956	15850
839.094	15812
839.231	15907
839.369	15983
839.506	16318
839.643	16093
839.781	15842
839.918	15838
840.055	15846
840.193	15876
840.33	15869
840.467	15736
840.604	15880
840.742	16143
840.879	15774
841.016	15785
841.153	15762
841.29	15945
841.427	15854
841.564	15778
841.701	15960
841.838	15880
841.975	15713
842.112	15827
842.249	15599
842.385	15481
842.522	15865
842.659	15679
842.796	15618
842.933	15679
843.069	15641
843.206	15618
843.343	15679
843.479	15618
843.616	15633
843.752	15462
843.889	15450
844.025	15682
844.162	15420
844.298	15553
844.435	15408
844.571	15393
844.708	15576
844.844	15477
844.98	15507
845.117	15534
845.253	15439
845.389	15275
845.525	15435
845.661	15268
845.798	15169
845.934	15329
846.07	15264
846.206	15275
846.342	15351
846.478	15154
846.614	14960
846.75	15024
846.886	14990
847.022	15116
847.158	15032
847.294	15066
847.429	15024
847.565	15081
847.701	15199
847.837	14815
847.972	14621
848.108	14861
848.244	14887
848.379	14598
848.515	14629
848.65	14617
848.786	14564
848.921	14537
849.057	14659
849.192	14727
849.328	14697
849.463	14556
849.598	14575
849.734	14454
849.869	14442
850.004	14434
850.14	14499
850.275	14393
850.41	14324
850.545	14396
850.68	14381
850.815	14427
850.95	14366
851.085	14469
851.22	14556
851.355	14374
851.49	14374
851.625	14374
851.76	14347
851.895	14271
852.03	14263
852.165	14336
852.299	14362
852.434	14381
852.569	14431
852.703	14408
852.838	14511
852.973	14541
853.107	14488
853.242	14434
853.376	14191
853.511	14111
853.645	14237
853.78	14370
853.914	14176
854.048	14259
854.183	14206
854.317	14240
854.451	14355
854.585	14286
854.72	14267
854.854	14263
854.988	14180
855.122	14153
855.256	14065
855.39	14202
855.524	14355
855.658	14271
855.792	14229
855.926	14263
856.06	14301
856.194	14343
856.327	14180
856.461	14069
856.595	14123
856.729	14244
856.862	14351
856.996	14229
857.13	14271
857.263	14427
857.397	14355
857.53	14210
857.664	14240
857.797	14336
857.931	14286
858.064	14240
858.197	14256
858.331	14191
858.464	14176
858.597	14111
858.731	14218
858.864	14240
858.997	14237
859.13	14366
859.263	14328
859.396	14290
859.529	14240
859.662	14214
859.795	14145
859.928	14278
860.061	14332
860.194	14492
860.327	14347
860.46	14252
860.592	14339
860.725	14377
860.858	14393
860.99	14145
861.123	14237
861.256	14240
861.388	14233
861.521	14956
861.653	14088
861.786	13921
861.918	14138
862.05	14240
862.183	14210
862.315	14275
862.447	14317
862.58	14290
862.712	14062
862.844	13902
862.976	14035
863.108	14058
863.24	14518
863.372	13936
863.504	13970
863.636	14043
863.768	14119
863.9	14050
864.032	13868
864.164	14027
864.296	14031
864.428	14229
864.559	14183
864.691	14065
864.823	14180
864.954	14001
865.086	14126
865.217	14005
865.349	13898
865.48	14027
865.612	13963
865.743	14134
865.875	14077
866.006	13967
866.137	14054
866.269	14001
866.4	13970
866.531	14050
866.662	13887
866.793	13898
866.924	13909
867.055	14073
867.186	14001
867.317	13970
867.448	13955
867.579	14020
867.71	14024
867.841	13833
867.972	14035
868.103	13955
868.233	14039
868.364	14016
868.495	14005
868.625	14191
868.756	14362
868.886	14161
869.017	14206
869.147	14347
869.278	14355
869.408	14282
869.539	14263
869.669	14400
869.799	14259
869.929	14347
870.06	14393
870.19	14541
870.32	14465
870.45	14617
870.58	14640
870.71	14712
870.84	14735
870.97	14613
871.1	14598
871.23	14838
871.36	14887
871.489	14743
871.619	14826
871.749	14864
871.879	14967
872.008	14933
872.138	14887
872.267	14773
872.397	14663
872.526	14697
872.656	14602
872.785	14686
872.915	14895
873.044	14929
873.173	14918
873.303	14918
873.432	14944
873.561	15055
873.69	14933
873.819	14902
873.948	15009
874.077	14895
874.206	14910
874.335	15001
874.464	15138
874.593	15150
874.722	15264
874.851	15222
874.979	15184
875.108	15268
875.237	15108
875.365	15146
875.494	15192
875.623	15256
875.751	15195
875.88	15279
876.008	15359
876.136	15466
876.265	15728
876.393	15778
876.521	15766
876.65	15709
876.778	15694
876.906	15698
877.034	15682
877.162	15564
877.29	15561
877.418	15629
877.546	15587
877.674	15698
877.802	15679
877.93	15587
878.058	15663
878.185	15538
878.313	15595
878.441	15587
878.568	15447
878.696	15568
878.824	15610
878.951	15713
879.079	15907
879.206	15926
879.333	15705
879.461	15648
879.588	15656
879.715	15759
879.842	16002
879.97	15682
880.097	15477
880.224	15367
880.351	15424
880.478	15428
880.605	15431
880.732	15488
880.859	15720
880.986	15355
881.112	15656
881.239	15397
881.366	15287
881.493	15222
881.619	15165
881.746	15195
881.872	15180
881.999	15161
882.125	15039
882.252	15176
882.378	15165
882.505	15233
882.631	15131
882.757	15081
882.883	15036
883.01	14971
883.136	14948
883.262	14975
883.388	14815
883.514	15001
883.64	14967
883.766	14906
883.892	14735
884.018	14804
884.143	14899
884.269	15009
884.395	14720
884.52	14549
884.646	14678
884.772	14549
884.897	14552
885.023	14697
885.148	14720
885.274	14906
885.399	14811
885.524	14826
885.65	14716
885.775	14640
885.9	14651
886.025	14765
886.15	14659
886.275	14560
886.4	14552
886.525	14625
886.65	14632
886.775	14571
886.9	14823
887.025	14914
887.149	14648
887.274	14564
887.399	14473
887.523	14431
887.648	14415
887.773	14423
887.897	14526
888.021	14476
888.146	14537
888.27	14651
888.395	14659
888.519	14606
888.643	14533
888.767	14492
888.891	14419
889.015	14370
889.139	14305
889.263	14355
889.387	14400
889.511	14568
889.635	14549
889.759	14324
889.883	14313
890.006	14431
890.13	14461
890.254	14259
890.377	14267
890.501	14180
890.624	14149
890.748	14282
890.871	14149
890.995	14073
891.118	14001
891.241	14069
891.364	13978
891.488	14123
891.611	14050
891.734	14031
891.857	14161
891.98	14081
892.103	14016
892.226	14035
892.349	14005
892.471	13944
892.594	14027
892.717	14073
892.839	14100
892.962	14107
893.085	14069
893.207	14054
893.33	13887
893.452	13875
893.575	14134
893.697	14035
893.819	14218
893.941	14210
894.064	14206
894.186	14134
894.308	14039
894.43	14210
894.552	14240
894.674	14199
894.796	13982
894.918	14195
895.04	14107
895.161	14180
895.283	14214
895.405	14077
895.526	14183
895.648	14206
895.769	14309
895.891	14278
896.012	14343
896.134	14206
896.255	14183
896.376	14210
896.498	14103
896.619	14244
896.74	14278
896.861	14301
896.982	14590
897.103	14625
897.224	14511
897.345	14564
897.466	14499
897.587	14602
897.708	14571
897.828	14522
897.949	14431
898.07	14278
898.19	14419
898.311	14701
898.431	14480
898.552	14571
898.672	14731
898.792	14636
898.913	14655
899.033	14522
899.153	14377
899.273	14393
899.393	14400
899.513	14427
899.633	14465
899.753	14423
899.873	14434
899.993	14503
900.113	14442
900.232	14499
900.352	14412
900.472	14332
900.591	14286
900.711	14294
900.83	14256
900.95	14324
901.069	14408
901.189	14294
901.308	14058
901.427	13986
901.546	13951
901.665	14043
901.784	13993
901.904	13986
902.023	13837
902.141	13571
902.26	13578
902.379	13605
902.498	13514
902.617	13540
902.735	13605
902.854	13468
902.973	13457
903.091	13297
903.21	13289
903.328	13255
903.446	13179
903.565	13194
903.683	13129
903.801	13015
903.919	13069
904.038	13107
904.156	12973
904.274	12981
904.392	12958
904.51	12954
904.627	12905
904.745	12977
904.863	13012
904.981	12798
905.098	12597
905.216	12627
905.334	12696
905.451	12616
905.569	12589
905.686	12650
905.803	12589
905.921	12426
906.038	12551
906.155	12498
906.272	12395
906.389	12292
906.506	12266
906.623	12213
906.74	12239
906.857	12060
906.974	12144
907.091	12357
907.208	12308
907.324	12311
907.441	12171
907.557	11988
907.674	12007
907.79	11882
907.907	11863
908.023	12087
908.139	11946
908.256	11977
908.372	11946
908.488	11824
908.604	11680
908.72	11748
908.836	11802
908.952	11672
909.068	11790
909.184	11813
909.3	11695
909.415	11805
909.531	11767
909.647	11516
909.762	11459
909.878	11551
909.993	11589
910.108	11486
910.224	11425
910.339	11467
910.454	11452
910.57	11349
910.685	11311
910.8	11573
910.915	11501
911.03	11402
911.145	11277
911.259	11117
911.374	11235
911.489	11132
911.604	11037
911.718	11014
911.833	10968
911.947	10869
912.062	10797
912.176	10850
912.291	11006
912.405	10934
912.519	11136
912.633	11193
912.748	11071
912.862	10961
912.976	10850
913.09	10679
913.204	10778
913.318	10915
913.431	10904
913.545	10908
913.659	10980
913.772	10915
913.886	10748
914	10683
914.113	10843
914.226	10797
914.34	10790
914.453	10668
914.566	10839
914.68	10634
914.793	10687
914.906	10462
915.019	10379
915.132	10314
915.245	10481
915.358	10455
915.47	10402
915.583	10527
915.696	10512
915.809	10615
915.921	10641
916.034	10375
916.146	10462
916.259	10424
916.371	10432
916.483	10470
916.595	10398
916.708	10413
916.82	10421
916.932	10344
917.044	10344
917.156	10379
917.268	10287
917.38	10337
917.491	10272
917.603	10310
917.715	10402
917.826	10352
917.938	10314
918.049	10120
918.161	10333
918.272	10421
918.384	10428
918.495	10325
918.606	10215
918.717	10154
918.828	10246
918.939	10230
919.05	10078
919.161	10188
919.272	10025
919.383	10010
919.494	10196
919.604	10436
919.715	10196
919.826	10074
919.936	10139
920.047	10246
920.157	10173
920.267	10451
920.378	10246
920.488	10227
920.598	10337
920.708	10592
920.818	10382
920.928	10424
921.038	10523
921.148	10554
921.258	10219
921.368	10120
921.477	10074
921.587	10048
921.697	9987
921.806	10097
921.916	9937
922.025	9800
922.134	9766
922.244	9732
922.353	9698
922.462	9622
922.571	9564
922.68	9496
922.789	9443
922.898	9428
923.007	9393
923.116	9507
923.224	9401
923.333	9416
923.442	9317
923.55	9283
923.659	9359
923.767	9348
923.876	9291
923.984	9363
924.092	9237
924.201	9283
924.309	9268
924.417	9268
924.525	9207
924.633	9275
924.741	10162
924.849	9138
924.956	9283
925.064	9108
925.172	8929
925.279	9070
925.387	9154
925.494	9051
925.602	9241
925.709	9184
925.816	9123
925.924	9127
926.031	9211
926.138	9161
926.245	9089
926.352	9032
926.459	9142
926.566	9161
926.673	9013
926.779	9039
926.886	8960
926.993	8834
927.099	8826
927.206	8781
927.312	8781
927.419	8853
927.525	8781
927.631	8815
927.737	8758
927.843	8705
927.95	8610
928.056	8701
928.162	8769
928.267	8792
928.373	9443
928.479	8777
928.585	8617
928.69	8701
928.796	8720
928.901	8610
929.007	8617
929.112	8708
929.218	8617
929.323	8537
929.428	8549
929.533	8724
929.638	8457
929.743	8434
929.848	8571
929.953	8511
930.058	8385
930.163	8294
930.267	8324
930.372	8495
930.477	8286
930.581	8579
930.685	8320
930.79	8298
930.894	8275
930.998	8252
931.103	8400
931.207	8084
931.311	7982
931.415	7944
931.519	7765
931.623	7727
