Data from test_V78500241_1195.txt Node
Date: Fri Mar 25 14:42:02 CST 2022
User: usil
Spectrometer: V785-0024
Trigger mode: 0
Integration Time (sec): 4.000000E-1
Scans to average: 1
Nonlinearity correction enabled: false
Boxcar width: 0
Storing dark spectrum: false
XAxis mode: Wavelengths
Number of Pixels in Spectrum: 1024
>>>>>Begin Spectral Data<<<<<
801.071	22451
801.214	22337
801.356	22196
801.499	22120
801.641	21964
801.783	21751
801.926	21770
802.068	21797
802.211	21667
802.353	21679
802.496	21321
802.638	21325
802.78	21287
802.923	21233
803.065	21184
803.208	21199
803.35	21260
803.492	21256
803.635	21313
803.777	21249
803.919	21237
804.061	21530
804.204	21157
804.346	21100
804.488	20941
804.63	21127
804.773	21043
804.915	21142
805.057	21218
805.199	21157
805.341	21161
805.483	21051
805.626	21138
805.768	20990
805.91	21123
806.052	21157
806.194	20921
806.336	21237
806.478	21112
806.62	21123
806.762	21169
806.904	21214
807.046	21492
807.188	21378
807.33	21378
807.472	21545
807.614	21287
807.756	21291
807.898	21370
808.04	21089
808.182	21233
808.324	21218
808.465	21157
808.607	21348
808.749	21610
808.891	21747
809.033	21709
809.174	21698
809.316	21557
809.458	21622
809.6	21504
809.741	21564
809.883	21519
810.025	21827
810.166	21705
810.308	21591
810.45	21652
810.591	21485
810.733	21378
810.875	21252
811.016	21093
811.158	21237
811.299	21317
811.441	21310
811.582	21386
811.724	21203
811.865	21302
812.007	21306
812.148	21142
812.29	21351
812.431	21526
812.573	21606
812.714	21618
812.855	21694
812.997	21831
813.138	21880
813.279	21819
813.421	21633
813.562	21667
813.703	21595
813.845	21515
813.986	21135
814.127	21077
814.268	20994
814.41	20842
814.551	20906
814.692	20918
814.833	20834
814.974	20796
815.115	20834
815.256	20758
815.397	20674
815.539	20617
815.68	20575
815.821	20408
815.962	20629
816.103	20530
816.244	20343
816.385	20259
816.526	20499
816.666	20024
816.807	20062
816.948	20035
817.089	20119
817.23	20012
817.371	19902
817.512	19955
817.653	19928
817.793	19970
817.934	20069
818.075	19993
818.216	20039
818.356	19932
818.497	19822
818.638	19651
818.778	19704
818.919	19590
819.06	19696
819.2	19776
819.341	19841
819.481	19868
819.622	19993
819.762	20149
819.903	20157
820.043	19967
820.184	19967
820.324	19856
820.465	20100
820.605	20005
820.746	19940
820.886	19715
821.026	19852
821.167	19864
821.307	19925
821.447	19860
821.588	19746
821.728	19624
821.868	19502
822.008	19343
822.149	19381
822.289	19358
822.429	18962
822.569	19019
822.709	19095
822.849	18935
822.99	18947
823.13	18916
823.27	18829
823.41	18730
823.55	18635
823.69	18612
823.83	18654
823.97	18563
824.11	18418
824.25	18384
824.389	18517
824.529	18513
824.669	18403
824.809	18612
824.949	18532
825.089	18410
825.228	18445
825.368	18197
825.508	18308
825.648	18315
825.787	18266
825.927	18178
826.067	18247
826.206	18205
826.346	18308
826.485	18186
826.625	18224
826.765	18273
826.904	18182
827.044	18030
827.183	17866
827.323	17961
827.462	18034
827.601	17958
827.741	17988
827.88	17954
828.02	17802
828.159	18015
828.298	17874
828.437	17931
828.577	17859
828.716	17904
828.855	17901
828.994	17665
829.134	17741
829.273	17745
829.412	17634
829.551	17596
829.69	17687
829.829	17745
829.968	17798
830.107	17638
830.246	17657
830.385	17657
830.524	17672
830.663	17467
830.802	17364
830.941	17349
831.08	17417
831.219	17417
831.357	17311
831.496	17493
831.635	17299
831.774	17254
831.913	17227
832.051	17075
832.19	17025
832.329	17056
832.467	17037
832.606	16984
832.744	16991
832.883	16972
833.022	16949
833.16	16995
833.299	17140
833.437	17033
833.576	17094
833.714	17052
833.852	17014
833.991	17045
834.129	17170
834.267	17052
834.406	17052
834.544	17014
834.682	17071
834.821	17052
834.959	17246
835.097	17048
835.235	17048
835.373	17128
835.511	17018
835.65	16942
835.788	16976
835.926	16820
836.064	16694
836.202	16786
836.34	17018
836.478	17128
836.615	16949
836.753	16927
836.891	17025
837.029	16991
837.167	16877
837.305	16908
837.443	16820
837.58	16729
837.718	16854
837.856	16774
837.993	16767
838.131	16763
838.269	16755
838.406	16679
838.544	16736
838.681	16508
838.819	16611
838.956	16447
839.094	16386
839.231	16329
839.369	16588
839.506	16801
839.643	16649
839.781	16348
839.918	16272
840.055	16451
840.193	16413
840.33	16322
840.467	16379
840.604	16337
840.742	16668
840.879	16219
841.016	16265
841.153	16352
841.29	16489
841.427	16398
841.564	16447
841.701	16299
841.838	16341
841.975	16291
842.112	16314
842.249	16185
842.385	16090
842.522	16215
842.659	16162
842.796	16200
842.933	16238
843.069	16169
843.206	16105
843.343	16230
843.479	16093
843.616	16147
843.752	16025
843.889	15994
844.025	16082
844.162	15975
844.298	16063
844.435	15922
844.571	15930
844.708	15972
844.844	16120
844.98	16097
845.117	15941
845.253	15956
845.389	15770
845.525	15998
845.661	15907
845.798	15899
845.934	15964
846.07	15747
846.206	15964
846.342	15865
846.478	15770
846.614	15610
846.75	15515
846.886	15454
847.022	15629
847.158	15633
847.294	15526
847.429	15515
847.565	15454
847.701	15766
847.837	15310
847.972	15188
848.108	15378
848.244	15397
848.379	15226
848.515	15112
848.65	15146
848.786	15020
848.921	15150
849.057	15100
849.192	15203
849.328	15089
849.463	15127
849.598	15184
849.734	15081
849.869	15013
850.004	14891
850.14	14952
850.275	14857
850.41	14914
850.545	14849
850.68	14838
850.815	14838
850.95	14876
851.085	14937
851.22	14941
851.355	14918
851.49	14895
851.625	14815
851.76	14826
851.895	14712
852.03	14727
852.165	14868
852.299	15020
852.434	14861
852.569	14887
852.703	14868
852.838	14925
852.973	15043
853.107	14994
853.242	14857
853.376	14800
853.511	14629
853.645	14632
853.78	14823
853.914	14796
854.048	14689
854.183	14746
854.317	14754
854.451	14792
854.585	14667
854.72	14602
854.854	14944
854.988	14659
855.122	14697
855.256	14644
855.39	14644
855.524	14880
855.658	14830
855.792	14777
855.926	14739
856.06	14693
856.194	14842
856.327	14720
856.461	14651
856.595	14663
856.729	14727
856.862	14838
856.996	14655
857.13	14800
857.263	14811
857.397	14765
857.53	14750
857.664	14853
857.797	14838
857.931	14769
858.064	14781
858.197	14765
858.331	14655
858.464	14746
858.597	14648
858.731	14708
858.864	14754
858.997	14678
859.13	14777
859.263	14731
859.396	14792
859.529	14705
859.662	14731
859.795	14678
859.928	14743
860.061	14842
860.194	14883
860.327	14765
860.46	14701
860.592	14826
860.725	14830
860.858	14899
860.99	14773
861.123	14625
861.256	14640
861.388	14720
861.521	15386
861.653	14613
861.786	14610
861.918	14602
862.05	14727
862.183	14686
862.315	14659
862.447	14796
862.58	14735
862.712	14541
862.844	14362
862.976	14602
863.108	14590
863.24	14975
863.372	14389
863.504	14522
863.636	14564
863.768	14480
863.9	14488
864.032	14438
864.164	14438
864.296	14533
864.428	14629
864.559	14632
864.691	14575
864.823	14560
864.954	14533
865.086	14480
865.217	14583
865.349	14385
865.48	14545
865.612	14552
865.743	14670
865.875	14575
866.006	14404
866.137	14533
866.269	14431
866.4	14476
866.531	14438
866.662	14385
866.793	14385
866.924	14450
867.055	14499
867.186	14438
867.317	14431
867.448	14377
867.579	14412
867.71	14465
867.841	14355
867.972	14434
868.103	14431
868.233	14583
868.364	14366
868.495	14579
868.625	14765
868.756	14781
868.886	14590
869.017	14682
869.147	14823
869.278	14868
869.408	14754
869.539	14716
869.669	14914
869.799	14773
869.929	14918
870.06	14815
870.19	15062
870.32	14925
870.45	15024
870.58	15188
870.71	15157
870.84	15203
870.97	15150
871.1	15100
871.23	15222
871.36	15374
871.489	15211
871.619	15329
871.749	15279
871.879	15329
872.008	15428
872.138	15313
872.267	15310
872.397	15226
872.526	15108
872.656	15180
872.785	15199
872.915	15405
873.044	15424
873.173	15374
873.303	15310
873.432	15389
873.561	15416
873.69	15374
873.819	15412
873.948	15454
874.077	15405
874.206	15287
874.335	15340
874.464	15466
874.593	15679
874.722	15507
874.851	15720
874.979	15736
875.108	15751
875.237	15599
875.365	15591
875.494	15549
875.623	15808
875.751	15694
875.88	15739
876.008	15854
876.136	15865
876.265	16048
876.393	16230
876.521	16078
876.65	16150
876.778	16090
876.906	16051
877.034	16063
877.162	16051
877.29	16044
877.418	16112
877.546	16105
877.674	16025
877.802	16097
877.93	16166
878.058	16093
878.185	15983
878.313	16017
878.441	16166
878.568	15953
878.696	16082
878.824	16051
878.951	16196
879.079	16348
879.206	16481
879.333	16230
879.461	16249
879.588	16253
879.715	16371
879.842	16497
879.97	16181
880.097	16013
880.224	15998
880.351	16029
880.478	15819
880.605	15972
880.732	15873
880.859	16116
880.986	15960
881.112	16010
881.239	15778
881.366	15770
881.493	15751
881.619	15572
881.746	15648
881.872	15496
881.999	15591
882.125	15526
882.252	15637
882.378	15595
882.505	15701
882.631	15504
882.757	15378
882.883	15439
883.01	15450
883.136	15386
883.262	15203
883.388	15374
883.514	15408
883.64	15386
883.766	15458
883.892	15256
884.018	15279
884.143	15450
884.269	15496
884.395	15279
884.52	15070
884.646	15138
884.772	15097
884.897	15009
885.023	15214
885.148	15173
885.274	15256
885.399	15165
885.524	15176
885.65	15157
885.775	15097
885.9	15119
886.025	15252
886.15	15207
886.275	15055
886.4	15036
886.525	15100
886.65	15001
886.775	15097
886.9	15272
887.025	15363
887.149	15176
887.274	14891
887.399	14891
887.523	14891
887.648	14891
887.773	14788
887.897	14952
888.021	15085
888.146	14857
888.27	14975
888.395	15127
888.519	14918
888.643	15047
888.767	15024
888.891	14804
889.015	14746
889.139	14796
889.263	14765
889.387	14929
889.511	15043
889.635	14971
889.759	14735
889.883	14834
890.006	14834
890.13	14914
890.254	14701
890.377	14739
890.501	14594
890.624	14511
890.748	14731
890.871	14552
890.995	14461
891.118	14404
891.241	14533
891.364	14438
891.488	14610
891.611	14488
891.734	14438
891.857	14613
891.98	14492
892.103	14522
892.226	14495
892.349	14537
892.471	14301
892.594	14446
892.717	14454
892.839	14511
892.962	14438
893.085	14560
893.207	14442
893.33	14358
893.452	14400
893.575	14564
893.697	14457
893.819	14644
893.941	14746
894.064	14583
894.186	14473
894.308	14396
894.43	14621
894.552	14670
894.674	14495
894.796	14530
894.918	14507
895.04	14484
895.161	14629
895.283	14549
895.405	14583
895.526	14549
895.648	14556
895.769	14674
895.891	14674
896.012	14644
896.134	14556
896.255	14632
896.376	14594
896.498	14648
896.619	14769
896.74	14655
896.861	14678
896.982	14899
897.103	15112
897.224	14861
897.345	14853
897.466	14868
897.587	14895
897.708	14918
897.828	14941
897.949	14872
898.07	14838
898.19	14777
898.311	15024
898.431	14864
898.552	14956
898.672	15055
898.792	15062
898.913	15123
899.033	14960
899.153	14773
899.273	14697
899.393	14781
899.513	14811
899.633	14857
899.753	14899
899.873	14819
899.993	14872
900.113	14781
900.232	14811
900.352	14705
900.472	14716
900.591	14594
900.711	14750
900.83	14712
900.95	14678
901.069	14777
901.189	14533
901.308	14469
901.427	14240
901.546	14427
901.665	14317
901.784	14328
901.904	14259
902.023	14142
902.141	13989
902.26	13982
902.379	14001
902.498	13875
902.617	13818
902.735	13993
902.854	13871
902.973	13898
903.091	13670
903.21	13681
903.328	13578
903.446	13643
903.565	13525
903.683	13445
903.801	13297
903.919	13426
904.038	13434
904.156	13327
904.274	13358
904.392	13228
904.51	13225
904.627	13346
904.745	13247
904.863	13327
904.981	13133
905.098	12985
905.216	13015
905.334	12973
905.451	13012
905.569	12878
905.686	13004
905.803	12966
905.921	12825
906.038	12939
906.155	12833
906.272	12665
906.389	12654
906.506	12654
906.623	12528
906.74	12536
906.857	12513
906.974	12448
907.091	12669
907.208	12662
907.324	12639
907.441	12479
907.557	12407
907.674	12376
907.79	12296
907.907	12251
908.023	12308
908.139	12350
908.256	12258
908.372	12220
908.488	12224
908.604	12133
908.72	12026
908.836	12098
908.952	12045
909.068	12057
909.184	12117
909.3	12106
909.415	12117
909.531	12019
909.647	11809
909.762	11741
909.878	11817
909.993	11824
910.108	11767
910.224	11775
910.339	11836
910.454	11718
910.57	11634
910.685	11596
910.8	11980
910.915	11843
911.03	11672
911.145	11543
911.259	11543
911.374	11570
911.489	11463
911.604	11303
911.718	11356
911.833	11337
911.947	11208
912.062	11227
912.176	11280
912.291	11288
912.405	11288
912.519	11471
912.633	11512
912.748	11349
912.862	11216
912.976	11140
913.09	11132
913.204	11045
913.318	11132
913.431	11296
913.545	11277
913.659	11231
913.772	11132
913.886	11060
914	10961
914.113	11090
914.226	11121
914.34	11155
914.453	10892
914.566	11151
914.68	11022
914.793	11006
914.906	10850
915.019	10748
915.132	10634
915.245	10740
915.358	10771
915.47	10752
915.583	10691
915.696	10763
915.809	10923
915.921	10881
916.034	10816
916.146	10816
916.259	10759
916.371	10809
916.483	10793
916.595	10660
916.708	10752
916.82	10702
916.932	10664
917.044	10710
917.156	10634
917.268	10554
917.38	10626
917.491	10561
917.603	10554
917.715	10630
917.826	10740
917.938	10546
918.049	10485
918.161	10592
918.272	10752
918.384	10721
918.495	10550
918.606	10447
918.717	10386
918.828	10447
918.939	10451
919.05	10485
919.161	10462
919.272	10276
919.383	10325
919.494	10580
919.604	10679
919.715	10577
919.826	10367
919.936	10462
920.047	10459
920.157	10538
920.267	10668
920.378	10497
920.488	10466
920.598	10763
920.708	10805
920.818	10660
920.928	10611
921.038	10847
921.148	10850
921.258	10546
921.368	10440
921.477	10337
921.587	10287
921.697	10211
921.806	10318
921.916	10192
922.025	10025
922.134	10059
922.244	9960
922.353	10071
922.462	9956
922.571	9808
922.68	9671
922.789	9759
922.898	9781
923.007	9637
923.116	9751
923.224	9762
923.333	9667
923.442	9568
923.55	9511
923.659	9599
923.767	9728
923.876	9603
923.984	9549
924.092	9538
924.201	9553
924.309	9507
924.417	9572
924.525	9564
924.633	9561
924.741	10314
924.849	9378
924.956	9530
925.064	9351
925.172	9268
925.279	9348
925.387	9420
925.494	9272
925.602	9466
925.709	9325
925.816	9275
925.924	9340
926.031	9450
926.138	9370
926.245	9348
926.352	9294
926.459	9408
926.566	9386
926.673	9351
926.779	9218
926.886	9230
926.993	9074
927.099	9058
927.206	9043
927.312	8956
927.419	9070
927.525	9081
927.631	9131
927.737	8963
927.843	8952
927.95	8853
928.056	8933
928.162	9020
928.267	9028
928.373	9584
928.479	9005
928.585	8792
928.69	8937
928.796	8921
928.901	8838
929.007	8743
929.112	8861
929.218	8853
929.323	8777
929.428	8766
929.533	8887
929.638	8716
929.743	8754
929.848	8762
929.953	8788
930.058	8735
930.163	8499
930.267	8556
930.372	8686
930.477	8473
930.581	8743
930.685	8564
930.79	8488
930.894	8526
930.998	8499
931.103	8575
931.207	8324
931.311	8191
931.415	8168
931.519	7936
931.623	7906
