Data from test_V78500241_1666.txt Node
Date: Fri Mar 25 14:45:18 CST 2022
User: usil
Spectrometer: V785-0024
Trigger mode: 0
Integration Time (sec): 4.000000E-1
Scans to average: 1
Nonlinearity correction enabled: false
Boxcar width: 0
Storing dark spectrum: false
XAxis mode: Wavelengths
Number of Pixels in Spectrum: 1024
>>>>>Begin Spectral Data<<<<<
801.071	22310
801.214	22162
801.356	22025
801.499	21903
801.641	21759
801.783	21759
801.926	21686
802.068	21675
802.211	21561
802.353	21401
802.496	21264
802.638	21279
802.78	21207
802.923	21024
803.065	20998
803.208	21005
803.35	20990
803.492	21108
803.635	21074
803.777	21051
803.919	21127
804.061	21348
804.204	21062
804.346	20956
804.488	20971
804.63	20902
804.773	20902
804.915	20979
805.057	21062
805.199	20990
805.341	20929
805.483	21020
805.626	21104
805.768	20872
805.91	20982
806.052	21093
806.194	20857
806.336	21051
806.478	20963
806.62	20857
806.762	20998
806.904	21165
807.046	21321
807.188	21211
807.33	21275
807.472	21329
807.614	21306
807.756	21260
807.898	21055
808.04	21093
808.182	20986
808.324	21028
808.465	21154
808.607	21279
808.749	21424
808.891	21477
809.033	21545
809.174	21458
809.316	21401
809.458	21306
809.6	21291
809.741	21363
809.883	21458
810.025	21500
810.166	21504
810.308	21652
810.45	21382
810.591	21386
810.733	21260
810.875	21047
811.016	21112
811.158	20925
811.299	21142
811.441	21138
811.582	21249
811.724	21154
811.865	21009
812.007	21116
812.148	21176
812.29	21188
812.431	21355
812.573	21424
812.714	21466
812.855	21504
812.997	21739
813.138	21816
813.279	21743
813.421	21698
813.562	21492
813.703	21504
813.845	21291
813.986	21051
814.127	20834
814.268	20693
814.41	20830
814.551	20564
814.692	20735
814.833	20644
814.974	20571
815.115	20659
815.256	20552
815.397	20438
815.539	20602
815.68	20412
815.821	20320
815.962	20324
816.103	20237
816.244	20343
816.385	20096
816.526	20138
816.666	20046
816.807	19807
816.948	19970
817.089	19947
817.23	19906
817.371	19830
817.512	19719
817.653	19826
817.793	19856
817.934	19799
818.075	19814
818.216	19700
818.356	19788
818.497	19647
818.638	19525
818.778	19529
818.919	19438
819.06	19601
819.2	19521
819.341	19651
819.481	19670
819.622	19811
819.762	19982
819.903	19989
820.043	19928
820.184	19750
820.324	19849
820.465	19814
820.605	19826
820.746	19727
820.886	19715
821.026	19830
821.167	19689
821.307	19750
821.447	19715
821.588	19525
821.728	19460
821.868	19350
822.008	19255
822.149	19114
822.289	19190
822.429	18954
822.569	18909
822.709	18856
822.849	18646
822.99	18646
823.13	18658
823.27	18719
823.41	18467
823.55	18521
823.69	18486
823.83	18471
823.97	18361
824.11	18338
824.25	18209
824.389	18201
824.529	18353
824.669	18144
824.809	18304
824.949	18403
825.089	18308
825.228	18243
825.368	18087
825.508	18057
825.648	18049
825.787	18091
825.927	18133
826.067	18019
826.206	17961
826.346	18068
826.485	17977
826.625	18019
826.765	18102
826.904	18019
827.044	17775
827.183	17729
827.323	17585
827.462	17805
827.601	17684
827.741	17638
827.88	17676
828.02	17668
828.159	17676
828.298	17779
828.437	17786
828.577	17592
828.716	17767
828.855	17745
828.994	17406
829.134	17478
829.273	17478
829.412	17334
829.551	17356
829.69	17478
829.829	17543
829.968	17543
830.107	17627
830.246	17387
830.385	17414
830.524	17368
830.663	17417
830.802	17193
830.941	17197
831.08	17037
831.219	17124
831.357	17162
831.496	17193
831.635	16953
831.774	17041
831.913	17067
832.051	16797
832.19	16740
832.329	16869
832.467	16828
832.606	16717
832.744	16786
832.883	16767
833.022	16679
833.16	16672
833.299	16911
833.437	16733
833.576	16767
833.714	16873
833.852	16828
833.991	16797
834.129	16820
834.267	16812
834.406	16759
834.544	16843
834.682	16790
834.821	16831
834.959	16946
835.097	16786
835.235	16858
835.373	16854
835.511	16733
835.65	16740
835.788	16759
835.926	16561
836.064	16504
836.202	16656
836.34	16797
836.478	16793
836.615	16607
836.753	16660
836.891	16744
837.029	16733
837.167	16592
837.305	16645
837.443	16554
837.58	16603
837.718	16630
837.856	16615
837.993	16558
838.131	16584
838.269	16367
838.406	16508
838.544	16325
838.681	16238
838.819	16268
838.956	16154
839.094	16051
839.231	16124
839.369	16257
839.506	16497
839.643	16246
839.781	16154
839.918	16040
840.055	16150
840.193	16120
840.33	16116
840.467	16093
840.604	16097
840.742	16341
840.879	15953
841.016	16078
841.153	16040
841.29	16200
841.427	16051
841.564	16200
841.701	16101
841.838	16078
841.975	15956
842.112	16002
842.249	15941
842.385	15865
842.522	16120
842.659	15934
842.796	15846
842.933	15838
843.069	15831
843.206	15831
843.343	15941
843.479	15964
843.616	15964
843.752	15713
843.889	15576
844.025	15823
844.162	15679
844.298	15762
844.435	15580
844.571	15538
844.708	15701
844.844	15827
844.98	15918
845.117	15739
845.253	15580
845.389	15549
845.525	15629
845.661	15614
845.798	15435
845.934	15584
846.07	15530
846.206	15526
846.342	15633
846.478	15523
846.614	15298
846.75	15260
846.886	15222
847.022	15363
847.158	15211
847.294	15275
847.429	15233
847.565	15180
847.701	15523
847.837	14887
847.972	15047
848.108	14971
848.244	15055
848.379	14944
848.515	14883
848.65	14758
848.786	14819
848.921	14754
849.057	14891
849.192	14876
849.328	14819
849.463	14811
849.598	14811
849.734	14834
849.869	14735
850.004	14564
850.14	14682
850.275	14625
850.41	14503
850.545	14533
850.68	14648
850.815	14629
850.95	14549
851.085	14788
851.22	14735
851.355	14701
851.49	14648
851.625	14518
851.76	14537
851.895	14533
852.03	14503
852.165	14549
852.299	14594
852.434	14621
852.569	14560
852.703	14610
852.838	14556
852.973	14781
853.107	14727
853.242	14514
853.376	14423
853.511	14377
853.645	14396
853.78	14575
853.914	14514
854.048	14480
854.183	14503
854.317	14454
854.451	14594
854.585	14457
854.72	14404
854.854	14431
854.988	14499
855.122	14362
855.256	14309
855.39	14309
855.524	14602
855.658	14503
855.792	14480
855.926	14385
856.06	14499
856.194	14594
856.327	14507
856.461	14404
856.595	14385
856.729	14393
856.862	14594
856.996	14427
857.13	14552
857.263	14560
857.397	14446
857.53	14495
857.664	14442
857.797	14446
857.931	14560
858.064	14476
858.197	14522
858.331	14415
858.464	14469
858.597	14385
858.731	14419
858.864	14434
858.997	14446
859.13	14499
859.263	14560
859.396	14560
859.529	14400
859.662	14518
859.795	14465
859.928	14442
860.061	14594
860.194	14594
860.327	14545
860.46	14522
860.592	14606
860.725	14648
860.858	14610
860.99	14381
861.123	14336
861.256	14419
861.388	14465
861.521	15108
861.653	14358
861.786	14336
861.918	14324
862.05	14374
862.183	14454
862.315	14450
862.447	14560
862.58	14358
862.712	14149
862.844	14142
862.976	14301
863.108	14248
863.24	14644
863.372	14180
863.504	14328
863.636	14256
863.768	14153
863.9	14240
864.032	14153
864.164	14176
864.296	14389
864.428	14298
864.559	14324
864.691	14404
864.823	14187
864.954	14305
865.086	14240
865.217	14202
865.349	14191
865.48	14221
865.612	14123
865.743	14370
865.875	14252
866.006	14199
866.137	14229
866.269	14218
866.4	14256
866.531	14164
866.662	14149
866.793	14199
866.924	14240
867.055	14229
867.186	14191
867.317	14237
867.448	14107
867.579	14103
867.71	13997
867.841	14130
867.972	14301
868.103	14130
868.233	14191
868.364	14176
868.495	14313
868.625	14423
868.756	14621
868.886	14427
869.017	14358
869.147	14556
869.278	14602
869.408	14492
869.539	14374
869.669	14484
869.799	14465
869.929	14587
870.06	14568
870.19	14697
870.32	14682
870.45	14807
870.58	14781
870.71	14918
870.84	15001
870.97	14826
871.1	14773
871.23	14963
871.36	14998
871.489	14952
871.619	14986
871.749	14979
871.879	14990
872.008	15230
872.138	15066
872.267	15097
872.397	14918
872.526	14891
872.656	14887
872.785	14902
872.915	15081
873.044	15169
873.173	15135
873.303	15161
873.432	15135
873.561	15165
873.69	15131
873.819	15074
873.948	15218
874.077	15230
874.206	15119
874.335	15157
874.464	15260
874.593	15374
874.722	15336
874.851	15439
874.979	15504
875.108	15511
875.237	15336
875.365	15397
875.494	15363
875.623	15492
875.751	15447
875.88	15504
876.008	15530
876.136	15625
876.265	15743
876.393	15968
876.521	15865
876.65	15956
876.778	15945
876.906	15781
877.034	15808
877.162	15869
877.29	15751
877.418	15816
877.546	15743
877.674	15816
877.802	15804
877.93	15888
878.058	15717
878.185	15724
878.313	15808
878.441	16013
878.568	15694
878.696	15781
878.824	15797
878.951	15835
879.079	16006
879.206	16177
879.333	15911
879.461	15865
879.588	15972
879.715	15945
879.842	16147
879.97	15975
880.097	15724
880.224	15606
880.351	15705
880.478	15728
880.605	15610
880.732	15759
880.859	15880
880.986	15743
881.112	15728
881.239	15530
881.366	15355
881.493	15359
881.619	15374
881.746	15405
881.872	15355
881.999	15302
882.125	15313
882.252	15412
882.378	15359
882.505	15439
882.631	15321
882.757	15108
882.883	15279
883.01	15203
883.136	15173
883.262	14967
883.388	15001
883.514	15211
883.64	15222
883.766	15081
883.892	15009
884.018	14933
884.143	15157
884.269	15245
884.395	14868
884.52	14853
884.646	14826
884.772	14804
884.897	14686
885.023	14830
885.148	14975
885.274	14979
885.399	14933
885.524	14819
885.65	14853
885.775	14849
885.9	14781
886.025	14899
886.15	14883
886.275	14826
886.4	14724
886.525	14819
886.65	14754
886.775	14746
886.9	14963
887.025	15112
887.149	14914
887.274	14727
887.399	14667
887.523	14739
887.648	14648
887.773	14507
887.897	14705
888.021	14705
888.146	14636
888.27	14689
888.395	14830
888.519	14750
888.643	14769
888.767	14777
888.891	14629
889.015	14541
889.139	14545
889.263	14480
889.387	14651
889.511	14693
889.635	14670
889.759	14492
889.883	14514
890.006	14568
890.13	14716
890.254	14457
890.377	14450
890.501	14332
890.624	14278
890.748	14431
890.871	14256
890.995	14229
891.118	14210
891.241	14218
891.364	14244
891.488	14252
891.611	14237
891.734	14286
891.857	14396
891.98	14244
892.103	14286
892.226	14271
892.349	14187
892.471	14149
892.594	14206
892.717	14290
892.839	14195
892.962	14313
893.085	14309
893.207	14290
893.33	14134
893.452	14214
893.575	14233
893.697	14233
893.819	14408
893.941	14431
894.064	14461
894.186	14206
894.308	14130
894.43	14408
894.552	14412
894.674	14400
894.796	14180
894.918	14214
895.04	14206
895.161	14438
895.283	14370
895.405	14252
895.526	14317
895.648	14374
895.769	14396
895.891	14438
896.012	14381
896.134	14377
896.255	14362
896.376	14301
896.498	14366
896.619	14415
896.74	14412
896.861	14408
896.982	14697
897.103	14914
897.224	14708
897.345	14678
897.466	14682
897.587	14594
897.708	14735
897.828	14663
897.949	14682
898.07	14571
898.19	14636
898.311	14800
898.431	14750
898.552	14682
898.672	14864
898.792	14777
898.913	14804
899.033	14629
899.153	14613
899.273	14606
899.393	14537
899.513	14514
899.633	14663
899.753	14590
899.873	14632
899.993	14583
900.113	14670
900.232	14670
900.352	14602
900.472	14533
900.591	14431
900.711	14526
900.83	14454
900.95	14518
901.069	14514
901.189	14446
901.308	14210
901.427	14081
901.546	14210
901.665	14172
901.784	14240
901.904	14103
902.023	13944
902.141	13685
902.26	13715
902.379	13746
902.498	13677
902.617	13636
902.735	13769
902.854	13738
902.973	13628
903.091	13445
903.21	13396
903.328	13419
903.446	13411
903.565	13266
903.683	13324
903.801	13198
903.919	13202
904.038	13183
904.156	13141
904.274	13133
904.392	13065
904.51	13065
904.627	13008
904.745	13084
904.863	13152
904.981	12814
905.098	12722
905.216	12814
905.334	12844
905.451	12768
905.569	12753
905.686	12852
905.803	12798
905.921	12585
906.038	12726
906.155	12601
906.272	12479
906.389	12563
906.506	12369
906.623	12323
906.74	12410
906.857	12220
906.974	12330
907.091	12391
907.208	12547
907.324	12407
907.441	12251
907.557	12213
907.674	12148
907.79	12015
907.907	12117
908.023	12136
908.139	12087
908.256	12038
908.372	12057
908.488	12026
908.604	11885
908.72	11718
908.836	11851
908.952	11752
909.068	11756
909.184	11946
909.3	11805
909.415	12007
909.531	11809
909.647	11592
909.762	11646
909.878	11619
909.993	11604
910.108	11684
910.224	11604
910.339	11665
910.454	11543
910.57	11471
910.685	11414
910.8	11748
910.915	11646
911.03	11421
911.145	11353
911.259	11258
911.374	11356
911.489	11231
911.604	11147
911.718	11079
911.833	11159
911.947	10949
912.062	10854
912.176	11018
912.291	11045
912.405	11140
912.519	11299
912.633	11296
912.748	11128
912.862	11136
912.976	10934
913.09	10869
913.204	10930
913.318	11014
913.431	11067
913.545	11071
913.659	11075
913.772	10965
913.886	10847
914	10858
914.113	10957
914.226	11010
914.34	10984
914.453	10778
914.566	10816
914.68	10809
914.793	10790
914.906	10542
915.019	10542
915.132	10497
915.245	10618
915.358	10611
915.47	10622
915.583	10630
915.696	10588
915.809	10694
915.921	10714
916.034	10569
916.146	10508
916.259	10455
916.371	10691
916.483	10664
916.595	10481
916.708	10573
916.82	10516
916.932	10489
917.044	10516
917.156	10466
917.268	10421
917.38	10405
917.491	10394
917.603	10386
917.715	10554
917.826	10485
917.938	10417
918.049	10386
918.161	10371
918.272	10489
918.384	10599
918.495	10394
918.606	10375
918.717	10329
918.828	10284
918.939	10325
919.05	10265
919.161	10257
919.272	10021
919.383	10192
919.494	10405
919.604	10523
919.715	10341
919.826	10234
919.936	10230
920.047	10436
920.157	10318
920.267	10550
920.378	10322
920.488	10379
920.598	10489
920.708	10637
920.818	10531
920.928	10527
921.038	10687
921.148	10626
921.258	10333
921.368	10344
921.477	10238
921.587	10200
921.697	10055
921.806	10128
921.916	10074
922.025	9972
922.134	9846
922.244	9793
922.353	9953
922.462	9770
922.571	9694
922.68	9591
922.789	9519
922.898	9561
923.007	9485
923.116	9549
923.224	9523
923.333	9485
923.442	9477
923.55	9450
923.659	9454
923.767	9519
923.876	9374
923.984	9523
924.092	9367
924.201	9492
924.309	9397
924.417	9370
924.525	9393
924.633	9241
924.741	10162
924.849	9218
924.956	9405
925.064	9218
925.172	9180
925.279	9233
925.387	9165
925.494	9230
925.602	9298
925.709	9256
925.816	9135
925.924	9241
926.031	9264
926.138	9184
926.245	9294
926.352	9142
926.459	9313
926.566	9317
926.673	9104
926.779	9058
926.886	9112
926.993	8960
927.099	8925
927.206	8861
927.312	8872
927.419	8956
927.525	8956
927.631	9028
927.737	8918
927.843	8788
927.95	8655
928.056	8750
928.162	8838
928.267	8899
928.373	9443
928.479	8899
928.585	8689
928.69	8754
928.796	8842
928.901	8689
929.007	8568
929.112	8766
929.218	8659
929.323	8640
929.428	8648
929.533	8724
929.638	8610
929.743	8575
929.848	8598
929.953	8579
930.058	8549
930.163	8358
930.267	8457
930.372	8522
930.477	8389
930.581	8556
930.685	8465
930.79	8336
930.894	8370
930.998	8332
931.103	8583
931.207	8149
931.311	8092
931.415	8035
931.519	7883
931.623	7818
