Data from test_V78500241_204.txt Node
Date: Fri Mar 25 14:35:08 CST 2022
User: usil
Spectrometer: V785-0024
Trigger mode: 0
Integration Time (sec): 4.000000E-1
Scans to average: 1
Nonlinearity correction enabled: false
Boxcar width: 0
Storing dark spectrum: false
XAxis mode: Wavelengths
Number of Pixels in Spectrum: 1024
>>>>>Begin Spectral Data<<<<<
801.071	27991
801.214	27880
801.356	27789
801.499	27698
801.641	27545
801.783	27397
801.926	27466
802.068	27340
802.211	27332
802.353	27150
802.496	27028
802.638	27032
802.78	27013
802.923	26929
803.065	26861
803.208	26921
803.35	27009
803.492	27032
803.635	27077
803.777	26834
803.919	27157
804.061	27378
804.204	27173
804.346	26929
804.488	26872
804.63	26788
804.773	26781
804.915	26925
805.057	27077
805.199	26940
805.341	27085
805.483	27169
805.626	27013
805.768	26940
805.91	27066
806.052	27131
806.194	27024
806.336	27192
806.478	27039
806.62	26994
806.762	27119
806.904	27389
807.046	27515
807.188	27568
807.33	27538
807.472	27606
807.614	27557
807.756	27382
807.898	27401
808.04	27420
808.182	27473
808.324	27732
808.465	27682
808.607	27994
808.749	28344
808.891	28341
809.033	28440
809.174	28261
809.316	28196
809.458	28021
809.6	27914
809.741	27899
809.883	27884
810.025	27918
810.166	27937
810.308	27926
810.45	27842
810.591	27739
810.733	27526
810.875	27477
811.016	27321
811.158	27416
811.299	27439
811.441	27587
811.582	27542
811.724	27374
811.865	27321
812.007	27310
812.148	27408
812.29	27469
812.431	27713
812.573	27736
812.714	27705
812.855	27831
812.997	27994
813.138	28101
813.279	28017
813.421	27888
813.562	27720
813.703	27553
813.845	27557
813.986	27245
814.127	27157
814.268	27043
814.41	27039
814.551	26971
814.692	26933
814.833	26739
814.974	26739
815.115	27001
815.256	26819
815.397	26769
815.539	26811
815.68	26674
815.821	26621
815.962	26522
816.103	26708
816.244	26602
816.385	26419
816.526	26434
816.666	26149
816.807	26233
816.948	26195
817.089	26149
817.23	26096
817.371	26069
817.512	26088
817.653	26031
817.793	25947
817.934	26077
818.075	26020
818.216	26039
818.356	25917
818.497	25856
818.638	25750
818.778	25776
818.919	25795
819.06	25769
819.2	25803
819.341	25894
819.481	25963
819.622	26100
819.762	26191
819.903	26103
820.043	26130
820.184	26012
820.324	26073
820.465	26138
820.605	26096
820.746	25955
820.886	25997
821.026	25947
821.167	26008
821.307	26050
821.447	26008
821.588	25799
821.728	25666
821.868	25426
822.008	25419
822.149	25453
822.289	25396
822.429	25133
822.569	24973
822.709	24989
822.849	24977
822.99	24867
823.13	24730
823.27	24802
823.41	24684
823.55	24509
823.69	24585
823.83	24604
823.97	24578
824.11	24342
824.25	24330
824.389	24471
824.529	24536
824.669	24391
824.809	24574
824.949	24429
825.089	24395
825.228	24361
825.368	24205
825.508	24182
825.648	24155
825.787	24292
825.927	24304
826.067	24144
826.206	24079
826.346	24213
826.485	24243
826.625	24091
826.765	24144
826.904	24060
827.044	23843
827.183	23859
827.323	23859
827.462	23969
827.601	23912
827.741	23752
827.88	23805
828.02	23691
828.159	23798
828.298	23798
828.437	23805
828.577	23741
828.716	23901
828.855	23668
828.994	23592
829.134	23410
829.273	23646
829.412	23531
829.551	23505
829.69	23429
829.829	23509
829.968	23661
830.107	23691
830.246	23455
830.385	23387
830.524	23337
830.663	23421
830.802	23136
830.941	23025
831.08	23003
831.219	23159
831.357	23185
831.496	23311
831.635	22999
831.774	22968
831.913	23014
832.051	22942
832.19	22896
832.329	22923
832.467	22767
832.606	22664
832.744	22710
832.883	22797
833.022	22683
833.16	22675
833.299	22805
833.437	22649
833.576	22862
833.714	22877
833.852	22828
833.991	22782
834.129	22873
834.267	22759
834.406	22744
834.544	22828
834.682	22725
834.821	22607
834.959	22987
835.097	22683
835.235	22904
835.373	22759
835.511	22660
835.65	22569
835.788	22554
835.926	22462
836.064	22363
836.202	22375
836.34	22557
836.478	22588
836.615	22603
836.753	22584
836.891	22478
837.029	22683
837.167	22344
837.305	22519
837.443	22352
837.58	22394
837.718	22405
837.856	22375
837.993	22402
838.131	22329
838.269	22329
838.406	22371
838.544	22238
838.681	22074
838.819	21994
838.956	21850
839.094	21827
839.231	21941
839.369	21983
839.506	22238
839.643	22025
839.781	21762
839.918	21682
840.055	21751
840.193	21656
840.33	21686
840.467	21648
840.604	21793
840.742	22010
840.879	21618
841.016	21583
841.153	21606
841.29	21762
841.427	21789
841.564	21755
841.701	21743
841.838	21637
841.975	21580
842.112	21629
842.249	21538
842.385	21519
842.522	21671
842.659	21435
842.796	21466
842.933	21397
843.069	21332
843.206	21523
843.343	21389
843.479	21424
843.616	21454
843.752	21245
843.889	21230
844.025	21336
844.162	21123
844.298	21272
844.435	21169
844.571	21195
844.708	21135
844.844	21378
844.98	21325
845.117	21389
845.253	21336
845.389	21188
845.525	21302
845.661	21511
845.798	21633
845.934	21743
846.07	21827
846.206	21857
846.342	21838
846.478	21408
846.614	21001
846.75	20758
846.886	20743
847.022	20716
847.158	20765
847.294	20758
847.429	20705
847.565	20629
847.701	20857
847.837	20271
847.972	20225
848.108	20271
848.244	20415
848.379	20103
848.515	20069
848.65	20126
848.786	20111
848.921	20153
849.057	20298
849.192	20172
849.328	20126
849.463	20065
849.598	20039
849.734	20050
849.869	20122
850.004	20008
850.14	19883
850.275	19879
850.41	19879
850.545	19928
850.68	19902
850.815	20001
850.95	19780
851.085	20001
851.22	19955
851.355	19951
851.49	19818
851.625	19852
851.76	19860
851.895	19788
852.03	19738
852.165	19776
852.299	19887
852.434	19944
852.569	19947
852.703	19864
852.838	19856
852.973	19944
853.107	19909
853.242	19818
853.376	19727
853.511	19514
853.645	19715
853.78	19845
853.914	19655
854.048	19635
854.183	19597
854.317	19677
854.451	19845
854.585	19727
854.72	19746
854.854	19769
854.988	19719
855.122	19685
855.256	19655
855.39	19693
855.524	19731
855.658	19643
855.792	19677
855.926	19647
856.06	19696
856.194	19757
856.327	19609
856.461	19571
856.595	19552
856.729	19609
856.862	19715
856.996	19727
857.13	19693
857.263	19712
857.397	19670
857.53	19689
857.664	19651
857.797	19818
857.931	19651
858.064	19624
858.197	19955
858.331	19586
858.464	19529
858.597	19495
858.731	19525
858.864	19499
858.997	19518
859.13	19594
859.263	19624
859.396	19693
859.529	19540
859.662	19514
859.795	19704
859.928	19624
860.061	19681
860.194	19879
860.327	19559
860.46	19491
860.592	19712
860.725	19803
860.858	19727
860.99	19601
861.123	19445
861.256	19460
861.388	19575
861.521	20210
861.653	19510
861.786	19316
861.918	19506
862.05	19643
862.183	19556
862.315	19662
862.447	19696
862.58	19658
862.712	19411
862.844	19266
862.976	19403
863.108	19468
863.24	19788
863.372	19171
863.504	19221
863.636	19236
863.768	19324
863.9	19396
864.032	19236
864.164	19335
864.296	19289
864.428	19354
864.559	19434
864.691	19422
864.823	19354
864.954	19251
865.086	19293
865.217	19198
865.349	19206
865.48	19202
865.612	19164
865.743	19377
865.875	19202
866.006	19225
866.137	19099
866.269	19259
866.4	19202
866.531	19148
866.662	19103
866.793	19076
866.924	19110
867.055	19122
867.186	19217
867.317	19015
867.448	19084
867.579	19103
867.71	19088
867.841	19069
867.972	19160
868.103	19202
868.233	19072
868.364	19091
868.495	19225
868.625	19324
868.756	19434
868.886	19339
869.017	19346
869.147	19441
869.278	19419
869.408	19388
869.539	19438
869.669	19358
869.799	19331
869.929	19464
870.06	19350
870.19	19632
870.32	19708
870.45	19734
870.58	19776
870.71	19712
870.84	19822
870.97	19742
871.1	19765
871.23	19970
871.36	19951
871.489	19860
871.619	19837
871.749	20008
871.879	20016
872.008	20122
872.138	19970
872.267	20020
872.397	19830
872.526	19795
872.656	19906
872.785	19715
872.915	20027
873.044	20054
873.173	20008
873.303	20088
873.432	20088
873.561	20050
873.69	20024
873.819	19970
873.948	19993
874.077	19978
874.206	19944
874.335	19890
874.464	20138
874.593	20298
874.722	20183
874.851	20172
874.979	20358
875.108	20294
875.237	20233
875.365	20191
875.494	20221
875.623	20423
875.751	20324
875.88	20328
876.008	20431
876.136	20465
876.265	20590
876.393	20708
876.521	20910
876.65	20804
876.778	20632
876.906	20765
877.034	20575
877.162	20743
877.29	20659
877.418	20617
877.546	20644
877.674	20549
877.802	20609
877.93	20644
878.058	20743
878.185	20583
878.313	20556
878.441	20621
878.568	20724
878.696	20583
878.824	20705
878.951	20769
879.079	20941
879.206	21123
879.333	21199
879.461	21028
879.588	21203
879.715	21268
879.842	21367
879.97	21070
880.097	20899
880.224	20655
880.351	20697
880.478	20625
880.605	20495
880.732	20674
880.859	20811
880.986	20693
881.112	20514
881.239	20499
881.366	20446
881.493	20396
881.619	20157
881.746	20218
881.872	20237
881.999	20122
882.125	20130
882.252	20187
882.378	20199
882.505	20233
882.631	20157
882.757	19959
882.883	19974
883.01	19917
883.136	19913
883.262	19875
883.388	19807
883.514	19959
883.64	19967
883.766	19772
883.892	19643
884.018	19852
884.143	19963
884.269	20046
884.395	19753
884.52	19521
884.646	19647
884.772	19575
884.897	19525
885.023	19613
885.148	19761
885.274	19769
885.399	19795
885.524	19723
885.65	19464
885.775	19761
885.9	19514
886.025	19594
886.15	19662
886.275	19430
886.4	19529
886.525	19605
886.65	19453
886.775	19411
886.9	19582
887.025	19814
887.149	19563
887.274	19400
887.399	19282
887.523	19217
887.648	19297
887.773	19221
887.897	19377
888.021	19221
888.146	19312
888.27	19411
888.395	19293
888.519	19514
888.643	19327
888.767	19274
888.891	19152
889.015	19110
889.139	19076
889.263	19065
889.387	19194
889.511	19285
889.635	19129
889.759	18996
889.883	19088
890.006	19042
890.13	19145
890.254	19046
890.377	19004
890.501	18844
890.624	18833
890.748	18852
890.871	18764
890.995	18741
891.118	18669
891.241	18730
891.364	18658
891.488	18635
891.611	18608
891.734	18646
891.857	18715
891.98	18798
892.103	18692
892.226	18555
892.349	18536
892.471	18540
892.594	18631
892.717	18563
892.839	18620
892.962	18608
893.085	18582
893.207	18494
893.33	18460
893.452	18479
893.575	18623
893.697	18597
893.819	18764
893.941	18791
894.064	18661
894.186	18551
894.308	18486
894.43	18627
894.552	18787
894.674	18764
894.796	18475
894.918	18677
895.04	18479
895.161	18627
895.283	18513
895.405	18536
895.526	18467
895.648	18612
895.769	18620
895.891	18635
896.012	18696
896.134	18593
896.255	18563
896.376	18711
896.498	18540
896.619	18684
896.74	18719
896.861	18734
896.982	18977
897.103	19129
897.224	19015
897.345	18878
897.466	18890
897.587	18897
897.708	18973
897.828	18966
897.949	18829
898.07	18726
898.19	18890
898.311	18867
898.431	18711
898.552	18890
898.672	18859
898.792	18897
898.913	18757
899.033	18749
899.153	18692
899.273	18616
899.393	18578
899.513	18654
899.633	18620
899.753	18650
899.873	18536
899.993	18738
900.113	18528
900.232	18597
900.352	18544
900.472	18403
900.591	18410
900.711	18547
900.83	18376
900.95	18536
901.069	18566
901.189	18410
901.308	18273
901.427	18121
901.546	18159
901.665	18136
901.784	18007
901.904	17847
902.023	17824
902.141	17691
902.26	17699
902.379	17665
902.498	17535
902.617	17478
902.735	17425
902.854	17543
902.973	17562
903.091	17277
903.21	17250
903.328	17250
903.446	17128
903.565	17006
903.683	17109
903.801	16889
903.919	17037
904.038	17033
904.156	16843
904.274	16847
904.392	16828
904.51	16771
904.627	16774
904.745	16793
904.863	16908
904.981	16607
905.098	16538
905.216	16577
905.334	16569
905.451	16493
905.569	16432
905.686	16451
905.803	16497
905.921	16162
906.038	16325
906.155	16280
906.272	16166
906.389	16230
906.506	16017
906.623	16032
906.74	15895
906.857	15838
906.974	15774
907.091	15972
907.208	16116
907.324	16036
907.441	15831
907.557	15717
907.674	15736
907.79	15652
907.907	15701
908.023	15663
908.139	15584
908.256	15553
908.372	15599
908.488	15458
908.604	15367
908.72	15336
908.836	15382
908.952	15355
909.068	15519
909.184	15443
909.3	15359
909.415	15435
909.531	15329
909.647	15024
909.762	15058
909.878	15024
909.993	15085
910.108	15005
910.224	14960
910.339	15100
910.454	15013
910.57	14872
910.685	14720
910.8	15077
910.915	15032
911.03	14941
911.145	14701
911.259	14602
911.374	14750
911.489	14575
911.604	14492
911.718	14427
911.833	14492
911.947	14271
912.062	14290
912.176	14454
912.291	14473
912.405	14320
912.519	14522
912.633	14522
912.748	14415
912.862	14385
912.976	14229
913.09	14073
913.204	14199
913.318	14218
913.431	14328
913.545	14366
913.659	14286
913.772	14069
913.886	14100
914	14069
914.113	14187
914.226	14199
914.34	14176
914.453	14012
914.566	14134
914.68	13902
914.793	13970
914.906	13769
915.019	13715
915.132	13609
915.245	13776
915.358	13772
915.47	13753
915.583	13757
915.696	13750
915.809	13887
915.921	13852
916.034	13624
916.146	13651
916.259	13620
916.371	13677
916.483	13658
916.595	13544
916.708	13597
916.82	13578
916.932	13556
917.044	13518
917.156	13510
917.268	13392
917.38	13381
917.491	13381
917.603	13460
917.715	13483
917.826	13502
917.938	13407
918.049	13221
918.161	13388
918.272	13552
918.384	13510
918.495	13346
918.606	13232
918.717	13099
918.828	13168
918.939	13202
919.05	13088
919.161	13110
919.272	13034
919.383	13015
919.494	13213
919.604	13384
919.715	13240
919.826	13088
919.936	13114
920.047	13187
920.157	13152
920.267	13247
920.378	13126
920.488	13103
920.598	13304
920.708	13487
920.818	13217
920.928	13194
921.038	13445
921.148	13441
921.258	13179
921.368	12958
921.477	12924
921.587	12848
921.697	12817
921.806	12848
921.916	12795
922.025	12627
922.134	12646
922.244	12494
922.353	12604
922.462	12452
922.571	12437
922.68	12319
922.789	12266
922.898	12201
923.007	12220
923.116	12285
923.224	12235
923.333	12194
923.442	12091
923.55	12064
923.659	12087
923.767	12102
923.876	12003
923.984	12106
924.092	12011
924.201	11996
924.309	12079
924.417	12057
924.525	11843
924.633	11984
924.741	12837
924.849	11737
924.956	11916
925.064	11722
925.172	11623
925.279	11676
925.387	11710
925.494	11691
925.602	11813
925.709	11817
925.816	11638
925.924	11630
926.031	11726
926.138	11680
926.245	11733
926.352	11634
926.459	11676
926.566	11760
926.673	11589
926.779	11520
926.886	11436
926.993	11360
927.099	11337
927.206	11269
927.312	11216
927.419	11292
927.525	11277
927.631	11322
927.737	11216
927.843	11193
927.95	11033
928.056	11140
928.162	11178
928.267	11269
928.373	11912
928.479	11265
928.585	10972
928.69	11071
928.796	11185
928.901	11052
929.007	10927
929.112	10980
929.218	10984
929.323	10881
929.428	10892
929.533	11045
929.638	10828
929.743	10805
929.848	10927
929.953	10858
930.058	10702
930.163	10596
930.267	10649
930.372	10748
930.477	10607
930.581	10816
930.685	10626
930.79	10527
930.894	10519
930.998	10512
931.103	10588
931.207	10253
931.311	10200
931.415	10090
931.519	9949
931.623	9895
