Data from test_V78500241_3644.txt Node
Date: Fri Mar 25 14:59:05 CST 2022
User: usil
Spectrometer: V785-0024
Trigger mode: 0
Integration Time (sec): 4.000000E-1
Scans to average: 1
Nonlinearity correction enabled: false
Boxcar width: 0
Storing dark spectrum: false
XAxis mode: Wavelengths
Number of Pixels in Spectrum: 1024
>>>>>Begin Spectral Data<<<<<
801.071	21926
801.214	21724
801.356	21614
801.499	21511
801.641	21454
801.783	21283
801.926	21268
802.068	21176
802.211	21146
802.353	21001
802.496	20868
802.638	20785
802.78	20701
802.923	20640
803.065	20503
803.208	20590
803.35	20655
803.492	20556
803.635	20731
803.777	20636
803.919	20682
804.061	20918
804.204	20663
804.346	20552
804.488	20549
804.63	20530
804.773	20427
804.915	20530
805.057	20522
805.199	20434
805.341	20602
805.483	20689
805.626	20492
805.768	20434
805.91	20393
806.052	20499
806.194	20343
806.336	20625
806.478	20461
806.62	20533
806.762	20575
806.904	20625
807.046	20830
807.188	20944
807.33	20891
807.472	20826
807.614	20762
807.756	20754
807.898	20495
808.04	20473
808.182	20648
808.324	20530
808.465	20674
808.607	20743
808.749	20883
808.891	21013
809.033	21119
809.174	20994
809.316	20777
809.458	20963
809.6	20815
809.741	20967
809.883	20796
810.025	20902
810.166	21017
810.308	21036
810.45	20937
810.591	20944
810.733	20648
810.875	20636
811.016	20644
811.158	20556
811.299	20716
811.441	20663
811.582	20785
811.724	20659
811.865	20545
812.007	20594
812.148	20564
812.29	20526
812.431	20788
812.573	20937
812.714	20979
812.855	21104
812.997	21169
813.138	21405
813.279	21157
813.421	21028
813.562	21066
813.703	20838
813.845	20689
813.986	20499
814.127	20256
814.268	20248
814.41	20199
814.551	20142
814.692	20202
814.833	19997
814.974	20077
815.115	20100
815.256	19982
815.397	20065
815.539	20012
815.68	19902
815.821	19898
815.962	19940
816.103	19772
816.244	19632
816.385	19586
816.526	19597
816.666	19426
816.807	19331
816.948	19354
817.089	19430
817.23	19388
817.371	19339
817.512	19301
817.653	19285
817.793	19244
817.934	19365
818.075	19388
818.216	19354
818.356	19095
818.497	19061
818.638	18928
818.778	18977
818.919	18977
819.06	18954
819.2	19141
819.341	19107
819.481	19209
819.622	19365
819.762	19464
819.903	19304
820.043	19316
820.184	19369
820.324	19198
820.465	19301
820.605	19259
820.746	19175
820.886	19236
821.026	19137
821.167	19217
821.307	19225
821.447	19198
821.588	19053
821.728	19042
821.868	18859
822.008	18665
822.149	18730
822.289	18646
822.429	18433
822.569	18369
822.709	18258
822.849	18098
822.99	18171
823.13	18167
823.27	18121
823.41	18003
823.55	17939
823.69	18068
823.83	18068
823.97	18015
824.11	17882
824.25	17779
824.389	17764
824.529	17798
824.669	17699
824.809	17889
824.949	17843
825.089	17756
825.228	17707
825.368	17558
825.508	17623
825.648	17535
825.787	17535
825.927	17558
826.067	17448
826.206	17551
826.346	17589
826.485	17581
826.625	17425
826.765	17627
826.904	17471
827.044	17364
827.183	17360
827.323	17246
827.462	17155
827.601	17223
827.741	17155
827.88	17212
828.02	17113
828.159	17185
828.298	17216
828.437	17334
828.577	17094
828.716	17376
828.855	17124
828.994	16953
829.134	16938
829.273	17094
829.412	16965
829.551	16961
829.69	16953
829.829	17136
829.968	17136
830.107	17079
830.246	16987
830.385	16862
830.524	16801
830.663	16801
830.802	16710
830.941	16653
831.08	16630
831.219	16702
831.357	16656
831.496	16930
831.635	16584
831.774	16538
831.913	16611
832.051	16402
832.19	16394
832.329	16489
832.467	16348
832.606	16295
832.744	16261
832.883	16291
833.022	16185
833.16	16390
833.299	16440
833.437	16405
833.576	16371
833.714	16455
833.852	16390
833.991	16379
834.129	16459
834.267	16318
834.406	16295
834.544	16546
834.682	16371
834.821	16295
834.959	16550
835.097	16246
835.235	16459
835.373	16485
835.511	16459
835.65	16223
835.788	16204
835.926	16150
836.064	16074
836.202	16090
836.34	16303
836.478	16314
836.615	16272
836.753	16162
836.891	16348
837.029	16303
837.167	16299
837.305	16131
837.443	16272
837.58	16177
837.718	16207
837.856	16196
837.993	16112
838.131	16215
838.269	16006
838.406	16086
838.544	16086
838.681	15880
838.819	15812
838.956	15732
839.094	15625
839.231	15762
839.369	15838
839.506	16112
839.643	15994
839.781	15778
839.918	15686
840.055	15816
840.193	15743
840.33	15637
840.467	15751
840.604	15751
840.742	15953
840.879	15519
841.016	15515
841.153	15618
841.29	15751
841.427	15736
841.564	15660
841.701	15781
841.838	15648
841.975	15690
842.112	15694
842.249	15564
842.385	15488
842.522	15652
842.659	15542
842.796	15519
842.933	15511
843.069	15424
843.206	15545
843.343	15576
843.479	15545
843.616	15492
843.752	15260
843.889	15275
844.025	15386
844.162	15188
844.298	15397
844.435	15302
844.571	15237
844.708	15336
844.844	15340
844.98	15435
845.117	15504
845.253	15329
845.389	15218
845.525	15165
845.661	15112
845.798	15009
845.934	15097
846.07	15036
846.206	15104
846.342	15237
846.478	14956
846.614	14944
846.75	14830
846.886	14853
847.022	14868
847.158	14830
847.294	14815
847.429	14960
847.565	14910
847.701	15119
847.837	14587
847.972	14579
848.108	14689
848.244	14640
848.379	14549
848.515	14446
848.65	14461
848.786	14442
848.921	14427
849.057	14579
849.192	14678
849.328	14488
849.463	14571
849.598	14450
849.734	14362
849.869	14385
850.004	14400
850.14	14374
850.275	14233
850.41	14161
850.545	14221
850.68	14237
850.815	14210
850.95	14115
851.085	14404
851.22	14461
851.355	14123
851.49	14237
851.625	14320
851.76	14149
851.895	14168
852.03	14244
852.165	14202
852.299	14256
852.434	14290
852.569	14381
852.703	14229
852.838	14351
852.973	14404
853.107	14343
853.242	14294
853.376	14244
853.511	14031
853.645	14142
853.78	14225
853.914	14138
854.048	14164
854.183	14138
854.317	14145
854.451	14358
854.585	14161
854.72	14065
854.854	14214
854.988	14008
855.122	14161
855.256	13986
855.39	14123
855.524	14191
855.658	14176
855.792	14088
855.926	14168
856.06	14229
856.194	14233
856.327	14084
856.461	14077
856.595	14054
856.729	14088
856.862	14259
856.996	14191
857.13	14168
857.263	14252
857.397	14210
857.53	14100
857.664	14195
857.797	14237
857.931	14286
858.064	14153
858.197	14252
858.331	14100
858.464	14084
858.597	14043
858.731	14199
858.864	14111
858.997	14123
859.13	14172
859.263	14206
859.396	14225
859.529	14130
859.662	14050
859.795	14073
859.928	14142
860.061	14267
860.194	14332
860.327	14221
860.46	14157
860.592	14320
860.725	14240
860.858	14355
860.99	14161
861.123	14130
861.256	14054
861.388	14191
861.521	14963
861.653	14035
861.786	13993
861.918	13932
862.05	14077
862.183	14069
862.315	14138
862.447	14161
862.58	14081
862.712	13955
862.844	13913
862.976	13974
863.108	13913
863.24	14370
863.372	13875
863.504	13982
863.636	13978
863.768	14039
863.9	13928
864.032	13947
864.164	13852
864.296	13902
864.428	14001
864.559	14031
864.691	13944
864.823	14043
864.954	13936
865.086	14001
865.217	13967
865.349	13784
865.48	13909
865.612	13951
865.743	14084
865.875	13921
866.006	13967
866.137	13959
866.269	13978
866.4	13887
866.531	13826
866.662	13814
866.793	13879
866.924	13845
867.055	13913
867.186	13940
867.317	13883
867.448	13807
867.579	13856
867.71	13784
867.841	13871
867.972	13909
868.103	13913
868.233	13986
868.364	13807
868.495	14020
868.625	14195
868.756	14191
868.886	14164
869.017	14145
869.147	14225
869.278	14218
869.408	14134
869.539	14233
869.669	14172
869.799	14172
869.929	14267
870.06	14240
870.19	14499
870.32	14434
870.45	14492
870.58	14651
870.71	14594
870.84	14678
870.97	14556
871.1	14552
871.23	14701
871.36	14746
871.489	14670
871.619	14720
871.749	14804
871.879	14830
872.008	14876
872.138	14800
872.267	14686
872.397	14575
872.526	14602
872.656	14602
872.785	14617
872.915	14735
873.044	14899
873.173	14849
873.303	14819
873.432	14918
873.561	14853
873.69	14815
873.819	14895
873.948	14796
874.077	14804
874.206	14769
874.335	14804
874.464	14929
874.593	15100
874.722	15013
874.851	15142
874.979	15211
875.108	15211
875.237	15039
875.365	15047
875.494	15089
875.623	15131
875.751	15112
875.88	15184
876.008	15268
876.136	15332
876.265	15496
876.393	15701
876.521	15610
876.65	15557
876.778	15648
876.906	15500
877.034	15542
877.162	15545
877.29	15492
877.418	15568
877.546	15576
877.674	15492
877.802	15511
877.93	15610
878.058	15564
878.185	15496
878.313	15515
878.441	15466
878.568	15431
878.696	15466
878.824	15629
878.951	15622
879.079	15724
879.206	15899
879.333	15747
879.461	15614
879.588	15644
879.715	15705
879.842	15865
879.97	15641
880.097	15511
880.224	15344
880.351	15348
880.478	15428
880.605	15351
880.732	15329
880.859	15641
880.986	15374
881.112	15458
881.239	15389
881.366	15104
881.493	15051
881.619	15074
881.746	15093
881.872	15055
881.999	15032
882.125	15066
882.252	15112
882.378	15135
882.505	15214
882.631	15020
882.757	14792
882.883	14998
883.01	14864
883.136	14735
883.262	14743
883.388	14651
883.514	14769
883.64	14948
883.766	14800
883.892	14670
884.018	14800
884.143	14876
884.269	14986
884.395	14640
884.52	14526
884.646	14583
884.772	14541
884.897	14473
885.023	14629
885.148	14568
885.274	14762
885.399	14701
885.524	14537
885.65	14511
885.775	14617
885.9	14590
886.025	14743
886.15	14632
886.275	14480
886.4	14476
886.525	14629
886.65	14518
886.775	14583
886.9	14693
887.025	14712
887.149	14594
887.274	14446
887.399	14374
887.523	14301
887.648	14370
887.773	14336
887.897	14495
888.021	14438
888.146	14404
888.27	14575
888.395	14610
888.519	14415
888.643	14560
888.767	14583
888.891	14324
889.015	14214
889.139	14317
889.263	14214
889.387	14389
889.511	14408
889.635	14465
889.759	14191
889.883	14275
890.006	14412
890.13	14419
890.254	14256
890.377	14290
890.501	14096
890.624	14027
890.748	14149
890.871	13978
890.995	13986
891.118	13898
891.241	13997
891.364	14077
891.488	14096
891.611	13951
891.734	13936
891.857	14027
891.98	13978
892.103	14065
892.226	13997
892.349	13989
892.471	13795
892.594	13940
892.717	14058
892.839	13852
892.962	13989
893.085	14008
893.207	13955
893.33	13936
893.452	13947
893.575	14111
893.697	13974
893.819	14172
893.941	14206
894.064	14088
894.186	13928
894.308	13944
894.43	14115
894.552	14271
894.674	14164
894.796	13879
894.918	14069
895.04	14054
895.161	14142
895.283	14001
895.405	14046
895.526	14107
895.648	13940
895.769	14210
895.891	14100
896.012	14168
896.134	14187
896.255	14161
896.376	14210
896.498	14145
896.619	14244
896.74	14123
896.861	14176
896.982	14408
897.103	14708
897.224	14419
897.345	14393
897.466	14396
897.587	14381
897.708	14484
897.828	14419
897.949	14396
898.07	14275
898.19	14370
898.311	14522
898.431	14492
898.552	14457
898.672	14571
898.792	14659
898.913	14488
899.033	14313
899.153	14301
899.273	14320
899.393	14324
899.513	14351
899.633	14427
899.753	14457
899.873	14313
899.993	14427
900.113	14450
900.232	14351
900.352	14309
900.472	14218
900.591	14054
900.711	14218
900.83	14164
900.95	14153
901.069	14267
901.189	14172
901.308	13970
901.427	13887
901.546	13871
901.665	13898
901.784	13925
901.904	13738
902.023	13700
902.141	13468
902.26	13518
902.379	13559
902.498	13506
902.617	13430
902.735	13502
902.854	13544
902.973	13373
903.091	13202
903.21	13175
903.328	13141
903.446	13046
903.565	13000
903.683	13061
903.801	12928
903.919	13000
904.038	12954
904.156	12897
904.274	12954
904.392	12859
904.51	12901
904.627	12806
904.745	12905
904.863	12901
904.981	12604
905.098	12460
905.216	12521
905.334	12467
905.451	12593
905.569	12570
905.686	12589
905.803	12521
905.921	12372
906.038	12525
906.155	12338
906.272	12311
906.389	12346
906.506	12159
906.623	12178
906.74	12136
906.857	12019
906.974	11984
907.091	12224
907.208	12254
907.324	12144
907.441	12087
907.557	11965
907.674	11893
907.79	11741
907.907	11798
908.023	11836
908.139	11935
908.256	11748
908.372	11897
908.488	11786
908.604	11657
908.72	11600
908.836	11615
908.952	11699
909.068	11688
909.184	11676
909.3	11680
909.415	11668
909.531	11707
909.647	11421
909.762	11368
909.878	11356
909.993	11372
910.108	11421
910.224	11345
910.339	11421
910.454	11288
910.57	11318
910.685	11265
910.8	11547
910.915	11421
911.03	11315
911.145	11162
911.259	11121
911.374	11181
911.489	11010
911.604	11018
911.718	10881
911.833	10904
911.947	10740
912.062	10759
912.176	10953
912.291	10873
912.405	10835
912.519	11060
912.633	11113
912.748	10976
912.862	10927
912.976	10759
913.09	10691
913.204	10668
913.318	10733
913.431	10824
913.545	10824
913.659	10862
913.772	10778
913.886	10729
914	10672
914.113	10740
914.226	10786
914.34	10694
914.453	10516
914.566	10733
914.68	10626
914.793	10542
914.906	10379
915.019	10436
915.132	10356
915.245	10352
915.358	10398
915.47	10516
915.583	10375
915.696	10489
915.809	10531
915.921	10596
916.034	10322
916.146	10386
916.259	10375
916.371	10485
916.483	10447
916.595	10348
916.708	10424
916.82	10402
916.932	10348
917.044	10405
917.156	10344
917.268	10253
917.38	10234
917.491	10246
917.603	10257
917.715	10432
917.826	10394
917.938	10215
918.049	10204
918.161	10234
918.272	10386
918.384	10360
918.495	10299
918.606	10112
918.717	10048
918.828	10150
918.939	10166
919.05	10017
919.161	10105
919.272	9979
919.383	10074
919.494	10131
919.604	10356
919.715	10135
919.826	10090
919.936	10055
920.047	10284
920.157	10177
920.267	10341
920.378	10238
920.488	10116
920.598	10295
920.708	10466
920.818	10428
920.928	10375
921.038	10561
921.148	10500
921.258	10249
921.368	10074
921.477	10055
921.587	10105
921.697	9930
921.806	10048
921.916	9911
922.025	9827
922.134	9644
922.244	9644
922.353	9694
922.462	9682
922.571	9542
922.68	9458
922.789	9435
922.898	9420
923.007	9408
923.116	9458
923.224	9397
923.333	9439
923.442	9310
923.55	9340
923.659	9382
923.767	9382
923.876	9340
923.984	9363
924.092	9150
924.201	9310
924.309	9344
924.417	9192
924.525	9214
924.633	9325
924.741	10082
924.849	9074
924.956	9260
925.064	9066
925.172	9039
925.279	9093
925.387	9097
925.494	9047
925.602	9203
925.709	9169
925.816	9005
925.924	9131
926.031	9264
926.138	9142
926.245	9150
926.352	9104
926.459	9188
926.566	9199
926.673	9043
926.779	8929
926.886	8899
926.993	8830
927.099	8773
927.206	8762
927.312	8766
927.419	8811
927.525	8834
927.631	8796
927.737	8727
927.843	8667
927.95	8541
928.056	8625
928.162	8686
928.267	8769
928.373	9298
928.479	8807
928.585	8503
928.69	8754
928.796	8777
928.901	8613
929.007	8507
929.112	8655
929.218	8598
929.323	8564
929.428	8469
929.533	8667
929.638	8419
929.743	8469
929.848	8564
929.953	8507
930.058	8404
930.163	8206
930.267	8279
930.372	8461
930.477	8263
930.581	8533
930.685	8366
930.79	8229
930.894	8237
930.998	8161
931.103	8381
931.207	8001
931.311	7967
931.415	7936
931.519	7704
931.623	7677
