Data from test_V78500241_739.txt Node
Date: Fri Mar 25 14:38:51 CST 2022
User: usil
Spectrometer: V785-0024
Trigger mode: 0
Integration Time (sec): 4.000000E-1
Scans to average: 1
Nonlinearity correction enabled: false
Boxcar width: 0
Storing dark spectrum: false
XAxis mode: Wavelengths
Number of Pixels in Spectrum: 1024
>>>>>Begin Spectral Data<<<<<
801.071	27264
801.214	27150
801.356	26940
801.499	26940
801.641	26769
801.783	26792
801.926	26693
802.068	26480
802.211	26461
802.353	26389
802.496	26225
802.638	26161
802.78	26210
802.923	26161
803.065	26027
803.208	26107
803.35	26122
803.492	26149
803.635	26206
803.777	26161
803.919	26256
804.061	26583
804.204	26309
804.346	26301
804.488	26271
804.63	26332
804.773	26370
804.915	26408
805.057	26705
805.199	26648
805.341	26758
805.483	26826
805.626	26819
805.768	26895
805.91	26975
806.052	27146
806.194	27275
806.336	27606
806.478	27641
806.62	27728
806.762	28120
806.904	28432
807.046	29083
807.188	29364
807.33	29745
807.472	30536
807.614	31099
807.756	32115
807.898	33131
808.04	34786
808.182	36833
808.324	39705
808.465	42749
808.607	46059
808.749	49339
808.891	51039
809.033	51188
809.174	49643
809.316	46675
809.458	43129
809.6	39439
809.741	36540
809.883	34147
810.025	32720
810.166	31540
810.308	30532
810.45	29946
810.591	29414
810.733	28790
810.875	28493
811.016	28147
811.158	27873
811.299	27930
811.441	27728
811.582	27622
811.724	27329
811.865	27165
812.007	27081
812.148	26994
812.29	27001
812.431	27009
812.573	27119
812.714	27142
812.855	27332
812.997	27249
813.138	27344
813.279	27344
813.421	27142
813.562	26990
813.703	26750
813.845	26636
813.986	26259
814.127	26020
814.268	25841
814.41	25826
814.551	25795
814.692	25890
814.833	25670
814.974	25632
815.115	25845
815.256	25597
815.397	25540
815.539	25445
815.68	25479
815.821	25358
815.962	25354
816.103	25411
816.244	25206
816.385	25061
816.526	24970
816.666	24935
816.807	24627
816.948	24787
817.089	24722
817.23	24757
817.371	24585
817.512	24661
817.653	24623
817.793	24528
817.934	24658
818.075	24540
818.216	24540
818.356	24551
818.497	24460
818.638	24270
818.778	24224
818.919	24350
819.06	24205
819.2	24418
819.341	24445
819.481	24346
819.622	24620
819.762	24768
819.903	24726
820.043	24445
820.184	24521
820.324	24414
820.465	24467
820.605	24372
820.746	24308
820.886	24182
821.026	24285
821.167	24209
821.307	24292
821.447	24102
821.588	24045
821.728	24060
821.868	23843
822.008	23608
822.149	23615
822.289	23509
822.429	23299
822.569	23220
822.709	23273
822.849	23147
822.99	23079
823.13	23056
823.27	23067
823.41	22858
823.55	22831
823.69	23006
823.83	22881
823.97	22793
824.11	22584
824.25	22698
824.389	22542
824.529	22653
824.669	22660
824.809	22721
824.949	22801
825.089	22641
825.228	22672
825.368	22432
825.508	22402
825.648	22489
825.787	22538
825.927	22485
826.067	22344
826.206	22265
826.346	22470
826.485	22333
826.625	22371
826.765	22481
826.904	22417
827.044	22185
827.183	22192
827.323	22040
827.462	22162
827.601	22093
827.741	21884
827.88	22112
828.02	21972
828.159	21937
828.298	22048
828.437	22010
828.577	22002
828.716	22067
828.855	21991
828.994	21762
829.134	21713
829.273	21789
829.412	21698
829.551	21580
829.69	21667
829.829	21709
829.968	21823
830.107	21838
830.246	21709
830.385	21606
830.524	21698
830.663	21526
830.802	21363
830.941	21283
831.08	21332
831.219	21477
831.357	21420
831.496	21523
831.635	21241
831.774	21310
831.913	21283
832.051	21222
832.19	21214
832.329	21146
832.467	21188
832.606	21047
832.744	21100
832.883	21291
833.022	21374
833.16	21542
833.299	21610
833.437	21728
833.576	21823
833.714	22025
833.852	22169
833.991	22192
834.129	22299
834.267	22417
834.406	22322
834.544	22291
834.682	22120
834.821	21968
834.959	21998
835.097	21568
835.235	21709
835.373	21469
835.511	21450
835.65	21283
835.788	21226
835.926	20887
836.064	20918
836.202	20845
836.34	20921
836.478	21017
836.615	20823
836.753	20857
836.891	21001
837.029	20705
837.167	20720
837.305	20781
837.443	20609
837.58	20621
837.718	20735
837.856	20674
837.993	20621
838.131	20640
838.269	20488
838.406	20579
838.544	20488
838.681	20320
838.819	20240
838.956	20065
839.094	20168
839.231	20183
839.369	20305
839.506	20575
839.643	20320
839.781	20005
839.918	20073
840.055	20058
840.193	20168
840.33	20046
840.467	20012
840.604	20153
840.742	20271
840.879	19951
841.016	20046
841.153	19978
841.29	20252
841.427	20081
841.564	20122
841.701	20024
841.838	20119
841.975	19940
842.112	19963
842.249	19795
842.385	19811
842.522	20054
842.659	19875
842.796	19883
842.933	19936
843.069	19856
843.206	19936
843.343	20031
843.479	20161
843.616	20065
843.752	19890
843.889	20035
844.025	20092
844.162	19970
844.298	20240
844.435	20377
844.571	20522
844.708	20811
844.844	21332
844.98	21842
845.117	22466
845.253	23337
845.389	25460
845.525	29090
845.661	35528
845.798	42464
845.934	48015
846.07	49761
846.206	48281
846.342	43274
846.478	36038
846.614	30041
846.75	25955
846.886	23608
847.022	22128
847.158	21313
847.294	20697
847.429	20309
847.565	20008
847.701	20161
847.837	19449
847.972	19343
848.108	19301
848.244	19297
848.379	19023
848.515	19042
848.65	18878
848.786	18905
848.921	18901
849.057	18871
849.192	18954
849.328	18920
849.463	18878
849.598	18741
849.734	18650
849.869	18669
850.004	18585
850.14	18604
850.275	18471
850.41	18426
850.545	18429
850.68	18483
850.815	18467
850.95	18513
851.085	18741
851.22	18635
851.355	18433
851.49	18486
851.625	18479
851.76	18403
851.895	18540
852.03	18448
852.165	18467
852.299	18544
852.434	18570
852.569	18604
852.703	18467
852.838	18631
852.973	18787
853.107	18688
853.242	18601
853.376	18536
853.511	18551
853.645	18787
853.78	18878
853.914	18734
854.048	18673
854.183	18787
854.317	18730
854.451	18981
854.585	18764
854.72	18741
854.854	18768
854.988	18722
855.122	18665
855.256	18486
855.39	18483
855.524	18604
855.658	18551
855.792	18555
855.926	18418
856.06	18475
856.194	18445
856.327	18429
856.461	18441
856.595	18319
856.729	18311
856.862	18410
856.996	18311
857.13	18433
857.263	18414
857.397	18361
857.53	18254
857.664	18369
857.797	18429
857.931	18235
858.064	18281
858.197	18361
858.331	18270
858.464	18171
858.597	18136
858.731	18190
858.864	18114
858.997	18194
859.13	18095
859.263	18330
859.396	18159
859.529	18121
859.662	18209
859.795	18155
859.928	18121
860.061	18334
860.194	18384
860.327	18110
860.46	18045
860.592	18194
860.725	18292
860.858	18178
860.99	18060
861.123	18114
861.256	18038
861.388	18102
861.521	18848
861.653	18019
861.786	17847
861.918	17973
862.05	18110
862.183	18129
862.315	18106
862.447	18213
862.58	18129
862.712	17920
862.844	17855
862.976	17977
863.108	17885
863.24	18490
863.372	17764
863.504	17748
863.636	17897
863.768	17798
863.9	17771
864.032	17836
864.164	17832
864.296	17885
864.428	17882
864.559	17939
864.691	17874
864.823	17813
864.954	17901
865.086	17870
865.217	17687
865.349	17722
865.48	17764
865.612	17779
865.743	17904
865.875	17707
866.006	17729
866.137	17775
866.269	17756
866.4	17707
866.531	17764
866.662	17619
866.793	17752
866.924	17729
867.055	17729
867.186	17642
867.317	17615
867.448	17589
867.579	17703
867.71	17558
867.841	17562
867.972	17718
868.103	17615
868.233	17737
868.364	17756
868.495	17824
868.625	17984
868.756	17946
868.886	17969
869.017	18022
869.147	18011
869.278	18095
869.408	18034
869.539	17954
869.669	18083
869.799	18072
869.929	18030
870.06	18174
870.19	18209
870.32	18300
870.45	18350
870.58	18399
870.71	18498
870.84	18513
870.97	18475
871.1	18452
871.23	18589
871.36	18654
871.489	18578
871.619	18669
871.749	18593
871.879	18787
872.008	18814
872.138	18738
872.267	18738
872.397	18623
872.526	18578
872.656	18631
872.785	18639
872.915	18798
873.044	18856
873.173	18947
873.303	18920
873.432	18962
873.561	19053
873.69	19008
873.819	18947
873.948	19141
874.077	19072
874.206	19061
874.335	19114
874.464	19206
874.593	19346
874.722	19403
874.851	19419
874.979	19571
875.108	19609
875.237	19457
875.365	19327
875.494	19540
875.623	19677
875.751	19609
875.88	19928
876.008	19917
876.136	19963
876.265	20419
876.393	20473
876.521	20480
876.65	20442
876.778	20621
876.906	20571
877.034	20667
877.162	20648
877.29	20750
877.418	20777
877.546	21058
877.674	21001
877.802	21192
877.93	21348
878.058	21526
878.185	21622
878.313	21956
878.441	22432
878.568	22569
878.696	23345
878.824	24258
878.951	25282
879.079	27039
879.206	29307
879.333	31327
879.461	33036
879.588	34306
879.715	34245
879.842	33447
879.97	31491
880.097	29162
880.224	27420
880.351	26221
880.478	25255
880.605	24585
880.732	24289
880.859	24144
880.986	23802
881.112	23684
881.239	23535
881.366	23254
881.493	23402
881.619	23185
881.746	23235
881.872	23391
881.999	23322
882.125	23353
882.252	23452
882.378	23528
882.505	23760
882.631	23512
882.757	23368
882.883	23440
883.01	23414
883.136	23311
883.262	23341
883.388	23162
883.514	23254
883.64	23356
883.766	23299
883.892	23098
884.018	23143
884.143	23261
884.269	23250
884.395	23109
884.52	23025
884.646	23223
884.772	23033
884.897	22915
885.023	22968
885.148	23052
885.274	23143
885.399	22934
885.524	22801
885.65	22660
885.775	22542
885.9	22398
886.025	22276
886.15	22238
886.275	21876
886.4	21648
886.525	21564
886.65	21545
886.775	21378
886.9	21336
887.025	21367
887.149	21096
887.274	20838
887.399	20670
887.523	20636
887.648	20571
887.773	20396
887.897	20526
888.021	20271
888.146	20142
888.27	20210
888.395	20138
888.519	20096
888.643	19959
888.767	19982
888.891	19928
889.015	19643
889.139	19772
889.263	19609
889.387	19700
889.511	19772
889.635	19605
889.759	19438
889.883	19396
890.006	19373
890.13	19449
890.254	19171
890.377	19320
890.501	18993
890.624	19000
890.748	19027
890.871	18863
890.995	18810
891.118	18661
891.241	18787
891.364	18722
891.488	18878
891.611	18722
891.734	18616
891.857	18730
891.98	18661
892.103	18585
892.226	18506
892.349	18464
892.471	18213
892.594	18467
892.717	18342
892.839	18243
892.962	18376
893.085	18369
893.207	18216
893.33	18083
893.452	18076
893.575	18254
893.697	18079
893.819	18289
893.941	18285
894.064	18334
894.186	18053
894.308	17908
894.43	18064
894.552	18144
894.674	18068
894.796	17828
894.918	17855
895.04	17703
895.161	17794
895.283	18022
895.405	17832
895.526	17786
895.648	17851
895.769	17722
895.891	17874
896.012	17912
896.134	17859
896.255	17691
896.376	17756
896.498	17707
896.619	17939
896.74	17767
896.861	17836
896.982	18087
897.103	18194
897.224	17939
897.345	17916
897.466	17931
897.587	18026
897.708	18045
897.828	17950
897.949	17912
898.07	17729
898.19	17733
898.311	17931
898.431	17920
898.552	17904
898.672	18041
898.792	18022
898.913	17893
899.033	17813
899.153	17718
899.273	17615
899.393	17699
899.513	17668
899.633	17729
899.753	17676
899.873	17539
899.993	17718
900.113	17676
900.232	17726
900.352	17672
900.472	17634
900.591	17455
900.711	17653
900.83	17596
900.95	17585
901.069	17672
901.189	17509
901.308	17109
901.427	17185
901.546	17090
901.665	17178
901.784	17037
901.904	16934
902.023	16995
902.141	16588
902.26	16668
902.379	16713
902.498	16519
902.617	16478
902.735	16516
902.854	16481
902.973	16325
903.091	16246
903.21	16257
903.328	16226
903.446	16074
903.565	16048
903.683	15983
903.801	15895
903.919	15918
904.038	15857
904.156	15789
904.274	15732
904.392	15743
904.51	15652
904.627	15732
904.745	15755
904.863	15759
904.981	15473
905.098	15325
905.216	15306
905.334	15382
905.451	15359
905.569	15351
905.686	15530
905.803	15348
905.921	15252
906.038	15169
906.155	15226
906.272	15104
906.389	15116
906.506	14861
906.623	14895
906.74	14842
906.857	14868
906.974	14640
907.091	14906
907.208	14952
907.324	14864
907.441	14773
907.557	14632
907.674	14606
907.79	14514
907.907	14564
908.023	14602
908.139	14518
908.256	14522
908.372	14442
908.488	14526
908.604	14385
908.72	14267
908.836	14347
908.952	14263
909.068	14377
909.184	14404
909.3	14271
909.415	14290
909.531	14191
909.647	14088
909.762	14058
909.878	14153
909.993	14035
910.108	13993
910.224	14020
910.339	13997
910.454	13906
910.57	13864
910.685	13799
910.8	14027
910.915	14054
911.03	13928
911.145	13723
911.259	13628
911.374	13658
911.489	13571
911.604	13506
911.718	13476
911.833	13460
911.947	13365
912.062	13198
912.176	13339
912.291	13457
912.405	13441
912.519	13628
912.633	13662
912.748	13460
912.862	13396
912.976	13240
913.09	13285
913.204	13285
913.318	13183
913.431	13354
913.545	13407
913.659	13441
913.772	13324
913.886	13129
914	13118
914.113	13221
914.226	13247
914.34	13244
914.453	12996
914.566	13190
914.68	13031
914.793	13053
914.906	12871
915.019	12817
915.132	12700
915.245	12772
915.358	12856
915.47	12901
915.583	12852
915.696	12901
915.809	12928
915.921	13038
916.034	12814
916.146	12749
916.259	12745
916.371	12863
916.483	12791
916.595	12673
916.708	12779
916.82	12806
916.932	12768
917.044	12654
917.156	12631
917.268	12585
917.38	12574
917.491	12601
917.603	12566
917.715	12776
917.826	12692
917.938	12551
918.049	12403
918.161	12536
918.272	12703
918.384	12650
918.495	12555
918.606	12330
918.717	12281
918.828	12334
918.939	12441
919.05	12350
919.161	12311
919.272	12163
919.383	12140
919.494	12365
919.604	12563
919.715	12422
919.826	12194
919.936	12251
920.047	12369
920.157	12361
920.267	12483
920.378	12376
920.488	12353
920.598	12544
920.708	12506
920.818	12566
920.928	12521
921.038	12658
921.148	12547
921.258	12281
921.368	12205
921.477	12053
921.587	12102
921.697	11980
921.806	12148
921.916	11954
922.025	11748
922.134	11840
922.244	11722
922.353	11764
922.462	11642
922.571	11592
922.68	11467
922.789	11505
922.898	11467
923.007	11349
923.116	11433
923.224	11391
923.333	11383
923.442	11322
923.55	11242
923.659	11280
923.767	11368
923.876	11299
923.984	11330
924.092	11208
924.201	11178
924.309	11231
924.417	11204
924.525	11124
924.633	11109
924.741	11859
924.849	10930
924.956	11128
925.064	11029
925.172	10911
925.279	10987
925.387	10968
925.494	10927
925.602	11109
925.709	11052
925.816	10812
925.924	11010
926.031	11018
926.138	10961
926.245	10957
926.352	10839
926.459	11014
926.566	10949
926.673	10873
926.779	10790
926.886	10771
926.993	10645
927.099	10622
927.206	10599
927.312	10535
927.419	10611
927.525	10588
927.631	10675
927.737	10516
927.843	10493
927.95	10344
928.056	10428
928.162	10489
928.267	10493
928.373	11079
928.479	10531
928.585	10329
928.69	10485
928.796	10390
928.901	10382
929.007	10246
929.112	10356
929.218	10314
929.323	10360
929.428	10219
929.533	10360
929.638	10139
929.743	10192
929.848	10329
929.953	10215
930.058	10120
930.163	10006
930.267	9926
930.372	10131
930.477	9895
930.581	10105
930.685	10055
930.79	9816
930.894	9857
930.998	9842
931.103	9968
931.207	9652
931.311	9576
931.415	9515
931.519	9298
931.623	9260
