Data from test_V78500241_601.txt Node
Date: Fri Mar 25 14:37:54 CST 2022
User: usil
Spectrometer: V785-0024
Trigger mode: 0
Integration Time (sec): 4.000000E-1
Scans to average: 1
Nonlinearity correction enabled: false
Boxcar width: 0
Storing dark spectrum: false
XAxis mode: Wavelengths
Number of Pixels in Spectrum: 1024
>>>>>Begin Spectral Data<<<<<
801.071	28086
801.214	27854
801.356	27625
801.499	27462
801.641	27447
801.783	27359
801.926	27408
802.068	27226
802.211	27112
802.353	27009
802.496	27020
802.638	26899
802.78	26819
802.923	26918
803.065	26682
803.208	26857
803.35	26906
803.492	26937
803.635	27070
803.777	26899
803.919	27123
804.061	27283
804.204	27104
804.346	26773
804.488	27009
804.63	27138
804.773	27047
804.915	27165
805.057	27291
805.199	27241
805.341	27275
805.483	27447
805.626	27469
805.768	27351
805.91	27458
806.052	27648
806.194	27713
806.336	27842
806.478	27899
806.62	27956
806.762	28139
806.904	28767
807.046	29132
807.188	29200
807.33	29440
807.472	29973
807.614	30270
807.756	30928
807.898	31700
808.04	32739
808.182	34173
808.324	35878
808.465	38005
808.607	40234
808.749	42228
808.891	43358
809.033	43533
809.174	42315
809.316	40287
809.458	37875
809.6	35592
809.741	33736
809.883	32366
810.025	31358
810.166	30623
810.308	30125
810.45	29627
810.591	29242
810.733	28763
810.875	28626
811.016	28375
811.158	28128
811.299	28185
811.441	28021
811.582	27926
811.724	27888
811.865	27686
812.007	27652
812.148	27534
812.29	27641
812.431	27614
812.573	27854
812.714	27755
812.855	27835
812.997	28002
813.138	28059
813.279	28010
813.421	27739
813.562	27633
813.703	27595
813.845	27321
813.986	27165
814.127	26918
814.268	26750
814.41	26781
814.551	26762
814.692	26823
814.833	26648
814.974	26533
815.115	26541
815.256	26320
815.397	26415
815.539	26389
815.68	26396
815.821	26309
815.962	26362
816.103	26199
816.244	26031
816.385	26065
816.526	25974
816.666	25666
816.807	25601
816.948	25704
817.089	25723
817.23	25643
817.371	25521
817.512	25506
817.653	25571
817.793	25605
817.934	25567
818.075	25624
818.216	25601
818.356	25358
818.497	25438
818.638	25350
818.778	25179
818.919	25228
819.06	25236
819.2	25255
819.341	25537
819.481	25499
819.622	25616
819.762	25811
819.903	25727
820.043	25575
820.184	25571
820.324	25388
820.465	25681
820.605	25506
820.746	25483
820.886	25240
821.026	25468
821.167	25346
821.307	25464
821.447	25213
821.588	25072
821.728	24992
821.868	24719
822.008	24745
822.149	24650
822.289	24749
822.429	24376
822.569	24380
822.709	24277
822.849	24194
822.99	24174
823.13	24140
823.27	23988
823.41	23901
823.55	23843
823.69	23965
823.83	23935
823.97	23748
824.11	23646
824.25	23786
824.389	23687
824.529	23851
824.669	23707
824.809	23832
824.949	23722
825.089	23752
825.228	23611
825.368	23429
825.508	23543
825.648	23493
825.787	23623
825.927	23604
826.067	23493
826.206	23425
826.346	23383
826.485	23398
826.625	23326
826.765	23566
826.904	23482
827.044	23254
827.183	23083
827.323	23060
827.462	23140
827.601	23109
827.741	23136
827.88	23090
828.02	23022
828.159	23094
828.298	22968
828.437	23044
828.577	23048
828.716	23273
828.855	23140
828.994	22805
829.134	22736
829.273	22801
829.412	22828
829.551	22664
829.69	22607
829.829	22740
829.968	22877
830.107	22721
830.246	22725
830.385	22725
830.524	22611
830.663	22577
830.802	22386
830.941	22432
831.08	22291
831.219	22417
831.357	22485
831.496	22531
831.635	22390
831.774	22257
831.913	22230
832.051	22242
832.19	22211
832.329	22181
832.467	22013
832.606	22135
832.744	22025
832.883	22265
833.022	22280
833.16	22166
833.299	22390
833.437	22390
833.576	22630
833.714	22573
833.852	22801
833.991	22877
834.129	22953
834.267	22984
834.406	22820
834.544	22835
834.682	22702
834.821	22573
834.959	22752
835.097	22470
835.235	22424
835.373	22390
835.511	22303
835.65	22090
835.788	22055
835.926	21865
836.064	21869
836.202	21816
836.34	21964
836.478	21918
836.615	21827
836.753	21876
836.891	21968
837.029	21880
837.167	21755
837.305	21739
837.443	21736
837.58	21629
837.718	21850
837.856	21736
837.993	21595
838.131	21595
838.269	21530
838.406	21477
838.544	21576
838.681	21351
838.819	21195
838.956	21180
839.094	21165
839.231	21203
839.369	21199
839.506	21485
839.643	21291
839.781	21161
839.918	20975
840.055	21009
840.193	20956
840.33	21032
840.467	21150
840.604	21104
840.742	21211
840.879	20979
841.016	20929
841.153	20834
841.29	21074
841.427	21081
841.564	21077
841.701	21024
841.838	20895
841.975	21001
842.112	21009
842.249	20937
842.385	20735
842.522	21009
842.659	20998
842.796	20811
842.933	20849
843.069	20842
843.206	20826
843.343	20975
843.479	20948
843.616	20948
843.752	20796
843.889	20777
844.025	20998
844.162	20788
844.298	21028
844.435	21093
844.571	21066
844.708	21291
844.844	21629
844.98	22063
845.117	22310
845.253	22934
845.389	24015
845.525	26579
845.661	30460
845.798	34904
845.934	38628
846.07	40124
846.206	39207
846.342	36041
846.478	31430
846.614	27348
846.75	24715
846.886	22984
847.022	22002
847.158	21473
847.294	21066
847.429	20895
847.565	20621
847.701	20792
847.837	20225
847.972	20103
848.108	20168
848.244	20088
848.379	19761
848.515	19799
848.65	19693
848.786	19655
848.921	19670
849.057	19769
849.192	19822
849.328	19685
849.463	19647
849.598	19616
849.734	19548
849.869	19525
850.004	19400
850.14	19476
850.275	19331
850.41	19316
850.545	19263
850.68	19301
850.815	19426
850.95	19400
851.085	19632
851.22	19362
851.355	19270
851.49	19400
851.625	19297
851.76	19293
851.895	19240
852.03	19255
852.165	19312
852.299	19354
852.434	19426
852.569	19297
852.703	19457
852.838	19468
852.973	19514
853.107	19476
853.242	19400
853.376	19320
853.511	19339
853.645	19308
853.78	19502
853.914	19335
854.048	19266
854.183	19480
854.317	19445
854.451	19605
854.585	19483
854.72	19438
854.854	19502
854.988	19346
855.122	19384
855.256	19133
855.39	19282
855.524	19449
855.658	19369
855.792	19244
855.926	19308
856.06	19209
856.194	19403
856.327	19175
856.461	19126
856.595	19148
856.729	19263
856.862	19335
856.996	19095
857.13	19156
857.263	19263
857.397	19320
857.53	19004
857.664	19141
857.797	19209
857.931	19148
858.064	19076
858.197	19202
858.331	19061
858.464	19069
858.597	18943
858.731	19004
858.864	19053
858.997	19031
859.13	19050
859.263	19031
859.396	19160
859.529	19015
859.662	18935
859.795	18970
859.928	19015
860.061	19152
860.194	19126
860.327	19084
860.46	18977
860.592	19076
860.725	19133
860.858	19107
860.99	19034
861.123	18985
861.256	18943
861.388	19000
861.521	19643
861.653	18859
861.786	18901
861.918	19000
862.05	18935
862.183	18897
862.315	19023
862.447	19012
862.58	19000
862.712	18719
862.844	18719
862.976	18882
863.108	18875
863.24	18962
863.372	18665
863.504	18654
863.636	18681
863.768	18703
863.9	18711
864.032	18620
864.164	18604
864.296	18639
864.428	18817
864.559	18635
864.691	18696
864.823	18608
864.954	18814
865.086	18741
865.217	18726
865.349	18471
865.48	18585
865.612	18696
865.743	18810
865.875	18681
866.006	18559
866.137	18589
866.269	18646
866.4	18604
866.531	18532
866.662	18570
866.793	18452
866.924	18566
867.055	18635
867.186	18551
867.317	18551
867.448	18437
867.579	18517
867.71	18506
867.841	18460
867.972	18544
868.103	18612
868.233	18639
868.364	18490
868.495	18722
868.625	18688
868.756	18859
868.886	18707
869.017	18821
869.147	18913
869.278	18996
869.408	18848
869.539	18844
869.669	18890
869.799	18772
869.929	18939
870.06	18901
870.19	19194
870.32	19107
870.45	19221
870.58	19278
870.71	19411
870.84	19251
870.97	19209
871.1	19285
871.23	19506
871.36	19449
871.489	19354
871.619	19411
871.749	19449
871.879	19460
872.008	19628
872.138	19582
872.267	19518
872.397	19346
872.526	19438
872.656	19396
872.785	19320
872.915	19487
873.044	19601
873.173	19609
873.303	19643
873.432	19757
873.561	19875
873.69	19742
873.819	19662
873.948	19791
874.077	19814
874.206	19731
874.335	19761
874.464	19989
874.593	20077
874.722	20081
874.851	20046
874.979	20084
875.108	20180
875.237	20065
875.365	20153
875.494	20172
875.623	20358
875.751	20164
875.88	20366
876.008	20541
876.136	20499
876.265	20914
876.393	20982
876.521	20948
876.65	21013
876.778	21039
876.906	20975
877.034	20849
877.162	20982
877.29	20967
877.418	21169
877.546	21199
877.674	21268
877.802	21393
877.93	21526
878.058	21507
878.185	21622
878.313	21857
878.441	22063
878.568	22173
878.696	22713
878.824	23216
878.951	24015
879.079	25148
879.206	26552
879.333	27941
879.461	29166
879.588	29992
879.715	30011
879.842	29509
879.97	28173
880.097	26533
880.224	25266
880.351	24555
880.478	23931
880.605	23452
880.732	23349
880.859	23303
880.986	22930
881.112	23041
881.239	22641
881.366	22649
881.493	22516
881.619	22527
881.746	22634
881.872	22459
881.999	22508
882.125	22561
882.252	22675
882.378	22596
882.505	22713
882.631	22596
882.757	22485
882.883	22424
883.01	22504
883.136	22341
883.262	22443
883.388	22261
883.514	22405
883.64	22557
883.766	22341
883.892	22200
884.018	22261
884.143	22280
884.269	22489
884.395	22177
884.52	22223
884.646	22185
884.772	22063
884.897	22055
885.023	22017
885.148	22131
885.274	22223
885.399	22124
885.524	21998
885.65	21926
885.775	21778
885.9	21698
886.025	21743
886.15	21561
886.275	21378
886.4	21161
886.525	21176
886.65	21081
886.775	20948
886.9	21150
887.025	21146
887.149	20891
887.274	20568
887.399	20579
887.523	20503
887.648	20374
887.773	20256
887.897	20278
888.021	20252
888.146	20183
888.27	20229
888.395	20263
888.519	20088
888.643	20088
888.767	19989
888.891	19852
889.015	19791
889.139	19890
889.263	19753
889.387	19833
889.511	19887
889.635	19879
889.759	19556
889.883	19510
890.006	19658
890.13	19677
890.254	19605
890.377	19438
890.501	19304
890.624	19232
890.748	19381
890.871	19289
890.995	19095
891.118	19023
891.241	19110
891.364	18939
891.488	19118
891.611	19046
891.734	18981
891.857	19000
891.98	18996
892.103	18947
892.226	19015
892.349	18798
892.471	18734
892.594	18707
892.717	18817
892.839	18779
892.962	18623
893.085	18810
893.207	18601
893.33	18692
893.452	18593
893.575	18639
893.697	18566
893.819	18726
893.941	18833
894.064	18620
894.186	18464
894.308	18399
894.43	18623
894.552	18700
894.674	18616
894.796	18433
894.918	18551
895.04	18551
895.161	18547
895.283	18429
895.405	18353
895.526	18448
895.648	18365
895.769	18391
895.891	18486
896.012	18563
896.134	18513
896.255	18239
896.376	18376
896.498	18407
896.619	18422
896.74	18460
896.861	18467
896.982	18688
897.103	18856
897.224	18734
897.345	18540
897.466	18585
897.587	18642
897.708	18726
897.828	18551
897.949	18547
898.07	18604
898.19	18452
898.311	18665
898.431	18494
898.552	18452
898.672	18707
898.792	18673
898.913	18486
899.033	18513
899.153	18353
899.273	18300
899.393	18281
899.513	18353
899.633	18342
899.753	18266
899.873	18323
899.993	18315
900.113	18281
900.232	18380
900.352	18205
900.472	18232
900.591	18125
900.711	18174
900.83	18098
900.95	18296
901.069	18152
901.189	18098
901.308	17737
901.427	17779
901.546	17703
901.665	17729
901.784	17722
901.904	17516
902.023	17577
902.141	17364
902.26	17246
902.379	17307
902.498	17242
902.617	17105
902.735	17223
902.854	17239
902.973	17014
903.091	16892
903.21	16858
903.328	16850
903.446	16850
903.565	16630
903.683	16630
903.801	16561
903.919	16675
904.038	16596
904.156	16402
904.274	16474
904.392	16436
904.51	16356
904.627	16314
904.745	16443
904.863	16508
904.981	16082
905.098	16071
905.216	15994
905.334	16059
905.451	16109
905.569	16021
905.686	16032
905.803	16025
905.921	15918
906.038	15949
906.155	15850
906.272	15728
906.389	15671
906.506	15629
906.623	15561
906.74	15530
906.857	15355
906.974	15481
907.091	15622
907.208	15637
907.324	15530
907.441	15443
907.557	15348
907.674	15214
907.79	15233
907.907	15218
908.023	15252
908.139	15249
908.256	15127
908.372	15104
908.488	15123
908.604	15051
908.72	14921
908.836	15001
908.952	14781
909.068	15005
909.184	15009
909.3	14868
909.415	14914
909.531	15009
909.647	14689
909.762	14629
909.878	14594
909.993	14746
910.108	14621
910.224	14587
910.339	14617
910.454	14545
910.57	14518
910.685	14507
910.8	14693
910.915	14648
911.03	14503
911.145	14339
911.259	14374
911.374	14202
911.489	14244
911.604	14317
911.718	14065
911.833	14119
911.947	13951
912.062	13860
912.176	14058
912.291	13982
912.405	14020
912.519	14278
912.633	14233
912.748	14050
912.862	14073
912.976	13986
913.09	13788
913.204	13883
913.318	13887
913.431	13986
913.545	13940
913.659	14027
913.772	13860
913.886	13731
914	13715
914.113	13818
914.226	13818
914.34	13856
914.453	13613
914.566	13769
914.68	13628
914.793	13613
914.906	13419
915.019	13457
915.132	13331
915.245	13400
915.358	13331
915.47	13445
915.583	13407
915.696	13457
915.809	13529
915.921	13556
916.034	13407
916.146	13301
916.259	13308
916.371	13362
916.483	13377
916.595	13339
916.708	13365
916.82	13301
916.932	13244
917.044	13297
917.156	13289
917.268	13164
917.38	13160
917.491	13095
917.603	13103
917.715	13175
917.826	13244
917.938	13190
918.049	12901
918.161	13110
918.272	13232
918.384	13145
918.495	13053
918.606	12920
918.717	12844
918.828	12947
918.939	12932
919.05	12787
919.161	12817
919.272	12848
919.383	12749
919.494	12913
919.604	13095
919.715	12817
919.826	12722
919.936	12787
920.047	12863
920.157	12779
920.267	12962
920.378	12844
920.488	12837
920.598	13046
920.708	13080
920.818	12970
920.928	12901
921.038	13046
921.148	13057
921.258	12833
921.368	12711
921.477	12681
921.587	12536
921.697	12456
921.806	12597
921.916	12467
922.025	12429
922.134	12220
922.244	12232
922.353	12296
922.462	12098
922.571	12091
922.68	11885
922.789	11889
922.898	11878
923.007	11870
923.116	11927
923.224	11855
923.333	11912
923.442	11737
923.55	11764
923.659	11840
923.767	11786
923.876	11775
923.984	11824
924.092	11676
924.201	11748
924.309	11748
924.417	11756
924.525	11657
924.633	11638
924.741	12437
924.849	11459
924.956	11547
925.064	11482
925.172	11395
925.279	11448
925.387	11421
925.494	11429
925.602	11611
925.709	11554
925.816	11368
925.924	11429
926.031	11490
926.138	11322
926.245	11337
926.352	11288
926.459	11455
926.566	11532
926.673	11311
926.779	11201
926.886	11197
926.993	11109
927.099	11045
927.206	11014
927.312	10965
927.419	11086
927.525	11022
927.631	11102
927.737	10995
927.843	10904
927.95	10854
928.056	10896
928.162	10847
928.267	10934
928.373	11448
928.479	10991
928.585	10698
928.69	10786
928.796	10885
928.901	10736
929.007	10706
929.112	10767
929.218	10694
929.323	10706
929.428	10626
929.533	10759
929.638	10630
929.743	10584
929.848	10653
929.953	10603
930.058	10455
930.163	10325
930.267	10344
930.372	10516
930.477	10299
930.581	10615
930.685	10443
930.79	10219
930.894	10329
930.998	10341
931.103	10398
931.207	10078
931.311	10010
931.415	9979
931.519	9679
931.623	9682
