Data from test_V78500241_133.txt Node
Date: Fri Mar 25 14:34:39 CST 2022
User: usil
Spectrometer: V785-0024
Trigger mode: 0
Integration Time (sec): 4.000000E-1
Scans to average: 1
Nonlinearity correction enabled: false
Boxcar width: 0
Storing dark spectrum: false
XAxis mode: Wavelengths
Number of Pixels in Spectrum: 1024
>>>>>Begin Spectral Data<<<<<
801.071	30030
801.214	30003
801.356	29843
801.499	29760
801.641	29604
801.783	29463
801.926	29444
802.068	29478
802.211	29318
802.353	29242
802.496	29181
802.638	29200
802.78	29174
802.923	29071
803.065	29037
803.208	29056
803.35	28976
803.492	29349
803.635	29322
803.777	29239
803.919	29368
804.061	29630
804.204	29486
804.346	29250
804.488	29391
804.63	29379
804.773	29421
804.915	29433
805.057	29748
805.199	29520
805.341	29577
805.483	29794
805.626	29786
805.768	29790
805.91	29859
806.052	29977
806.194	29999
806.336	30422
806.478	30346
806.62	30464
806.762	30627
806.904	30825
807.046	31384
807.188	31628
807.33	31864
807.472	32347
807.614	32609
807.756	33374
807.898	34093
808.04	35132
808.182	36532
808.324	38427
808.465	40382
808.607	42673
808.749	44697
808.891	45892
809.033	45835
809.174	44511
809.316	42448
809.458	40318
809.6	38058
809.741	36095
809.883	34679
810.025	33778
810.166	33096
810.308	32587
810.45	32168
810.591	31689
810.733	31244
810.875	30989
811.016	30738
811.158	30639
811.299	30673
811.441	30559
811.582	30456
811.724	30388
811.865	30163
812.007	30262
812.148	30190
812.29	29973
812.431	30121
812.573	30216
812.714	30194
812.855	30315
812.997	30521
813.138	30684
813.279	30475
813.421	30372
813.562	30235
813.703	30098
813.845	29992
813.986	29512
814.127	29406
814.268	29204
814.41	29311
814.551	29277
814.692	29364
814.833	29006
814.974	29014
815.115	29075
815.256	28938
815.397	28953
815.539	28968
815.68	28881
815.821	28733
815.962	28668
816.103	28771
816.244	28561
816.385	28417
816.526	28398
816.666	28295
816.807	28040
816.948	28207
817.089	28238
817.23	28105
817.371	28051
817.512	28112
817.653	28044
817.793	27953
817.934	28067
818.075	28078
818.216	27895
818.356	27934
818.497	27922
818.638	27663
818.778	27694
818.919	27739
819.06	27914
819.2	27842
819.341	27934
819.481	27914
819.622	28207
819.762	28207
819.903	28249
820.043	28086
820.184	28006
820.324	27945
820.465	28048
820.605	27960
820.746	27903
820.886	27667
821.026	27751
821.167	27899
821.307	27793
821.447	27797
821.588	27622
821.728	27408
821.868	27211
822.008	27089
822.149	27218
822.289	27100
822.429	26887
822.569	26807
822.709	26762
822.849	26708
822.99	26651
823.13	26621
823.27	26484
823.41	26423
823.55	26183
823.69	26305
823.83	26332
823.97	26271
824.11	26191
824.25	26172
824.389	26050
824.529	26103
824.669	26016
824.809	26103
824.949	26149
825.089	26343
825.228	26187
825.368	25875
825.508	25928
825.648	25890
825.787	25906
825.927	25989
826.067	25845
826.206	25852
826.346	25852
826.485	25936
826.625	26001
826.765	25936
826.904	25982
827.044	25708
827.183	25670
827.323	25594
827.462	25582
827.601	25578
827.741	25571
827.88	25594
828.02	25476
828.159	25449
828.298	25525
828.437	25491
828.577	25499
828.716	25693
828.855	25422
828.994	25198
829.134	25285
829.273	25278
829.412	25240
829.551	25179
829.69	25114
829.829	25141
829.968	25228
830.107	25183
830.246	25141
830.385	25194
830.524	25031
830.663	24970
830.802	24859
830.941	24821
831.08	24711
831.219	24829
831.357	24798
831.496	24981
831.635	24829
831.774	24852
831.913	24654
832.051	24669
832.19	24471
832.329	24521
832.467	24540
832.606	24498
832.744	24509
832.883	24578
833.022	24627
833.16	24677
833.299	24954
833.437	24867
833.576	24882
833.714	24989
833.852	25141
833.991	25282
834.129	25236
834.267	25171
834.406	25183
834.544	25247
834.682	25156
834.821	25004
834.959	24996
835.097	24821
835.235	24806
835.373	24654
835.511	24661
835.65	24547
835.788	24357
835.926	24140
836.064	24034
836.202	24163
836.34	24235
836.478	24285
836.615	24209
836.753	24167
836.891	24235
837.029	24254
837.167	24022
837.305	24053
837.443	23961
837.58	24049
837.718	24186
837.856	23992
837.993	24034
838.131	23942
838.269	23920
838.406	23870
838.544	23771
838.681	23539
838.819	23695
838.956	23417
839.094	23509
839.231	23417
839.369	23512
839.506	23764
839.643	23642
839.781	23463
839.918	23315
840.055	23124
840.193	23227
840.33	23239
840.467	23292
840.604	23292
840.742	23421
840.879	23064
841.016	23189
841.153	23185
841.29	23417
841.427	23299
841.564	23296
841.701	23322
841.838	23117
841.975	23117
842.112	23056
842.249	23056
842.385	22949
842.522	23212
842.659	23014
842.796	23029
842.933	22995
843.069	23010
843.206	23025
843.343	23189
843.479	23140
843.616	23071
843.752	22839
843.889	22965
844.025	23143
844.162	23132
844.298	23166
844.435	23098
844.571	23353
844.708	23589
844.844	23916
844.98	23996
845.117	24544
845.253	25023
845.389	26313
845.525	28615
845.661	32598
845.798	37160
845.934	40828
846.07	42148
846.206	41250
846.342	38374
846.478	33755
846.614	29493
846.75	26678
846.886	25156
847.022	24258
847.158	23657
847.294	23242
847.429	23033
847.565	22672
847.701	22809
847.837	22280
847.972	22188
848.108	22249
848.244	22287
848.379	21972
848.515	21975
848.65	21895
848.786	21804
848.921	21774
849.057	21865
849.192	21918
849.328	21816
849.463	21850
849.598	21694
849.734	21614
849.869	21542
850.004	21549
850.14	21397
850.275	21443
850.41	21367
850.545	21450
850.68	21473
850.815	21488
850.95	21420
851.085	21690
851.22	21580
851.355	21523
851.49	21534
851.625	21511
851.76	21481
851.895	21359
852.03	21351
852.165	21431
852.299	21477
852.434	21538
852.569	21447
852.703	21492
852.838	21481
852.973	21648
853.107	21728
853.242	21576
853.376	21469
853.511	21336
853.645	21435
853.78	21519
853.914	21515
854.048	21595
854.183	21488
854.317	21580
854.451	21641
854.585	21671
854.72	21416
854.854	21580
854.988	21294
855.122	21507
855.256	21473
855.39	21416
855.524	21515
855.658	21393
855.792	21332
855.926	21329
856.06	21310
856.194	21351
856.327	21439
856.461	21176
856.595	21173
856.729	21116
856.862	21397
856.996	21249
857.13	21291
857.263	21382
857.397	21260
857.53	21260
857.664	21264
857.797	21211
857.931	21214
858.064	21226
858.197	21230
858.331	21199
858.464	21112
858.597	21005
858.731	21089
858.864	21256
858.997	21131
859.13	21100
859.263	21211
859.396	21218
859.529	21138
859.662	20982
859.795	21005
859.928	21119
860.061	21108
860.194	21245
860.327	21169
860.46	20986
860.592	21192
860.725	21249
860.858	21203
860.99	21032
861.123	20902
861.256	20979
861.388	21077
861.521	21823
861.653	20944
861.786	20948
861.918	20960
862.05	21009
862.183	21058
862.315	21146
862.447	21104
862.58	20990
862.712	20883
862.844	20937
862.976	20880
863.108	20834
863.24	21256
863.372	20590
863.504	20880
863.636	20750
863.768	20819
863.9	20781
864.032	20682
864.164	20697
864.296	20724
864.428	20925
864.559	20823
864.691	20785
864.823	20765
864.954	20731
865.086	20746
865.217	20701
865.349	20682
865.48	20625
865.612	20632
865.743	20735
865.875	20663
866.006	20659
866.137	20667
866.269	20541
866.4	20598
866.531	20526
866.662	20511
866.793	20629
866.924	20549
867.055	20659
867.186	20446
867.317	20526
867.448	20537
867.579	20526
867.71	20450
867.841	20473
867.972	20575
868.103	20560
868.233	20514
868.364	20514
868.495	20682
868.625	20697
868.756	20876
868.886	20773
869.017	20838
869.147	20929
869.278	20960
869.408	20929
869.539	20971
869.669	20849
869.799	20933
869.929	20998
870.06	20910
870.19	21066
870.32	21005
870.45	21192
870.58	21233
870.71	21283
870.84	21313
870.97	21241
871.1	21310
871.23	21389
871.36	21462
871.489	21336
871.619	21477
871.749	21458
871.879	21526
872.008	21576
872.138	21530
872.267	21576
872.397	21389
872.526	21416
872.656	21397
872.785	21412
872.915	21637
873.044	21656
873.173	21614
873.303	21675
873.432	21835
873.561	21679
873.69	21717
873.819	21789
873.948	21842
874.077	21652
874.206	21675
874.335	21747
874.464	21998
874.593	21945
874.722	21934
874.851	22040
874.979	22074
875.108	22120
875.237	22181
875.365	22120
875.494	22226
875.623	22242
875.751	22272
875.88	22322
876.008	22523
876.136	22569
876.265	22774
876.393	22991
876.521	22927
876.65	22889
876.778	22957
876.906	22900
877.034	23033
877.162	23083
877.29	23010
877.418	23113
877.546	23162
877.674	23216
877.802	23311
877.93	23406
878.058	23524
878.185	23562
878.313	23794
878.441	23920
878.568	24197
878.696	24688
878.824	25381
878.951	26096
879.079	27173
879.206	28531
879.333	29916
879.461	31301
879.588	31849
879.715	31909
879.842	31392
879.97	30064
880.097	28573
880.224	27291
880.351	26465
880.478	26012
880.605	25426
880.732	25240
880.859	25270
880.986	25023
881.112	24749
881.239	24726
881.366	24540
881.493	24460
881.619	24399
881.746	24593
881.872	24452
881.999	24521
882.125	24483
882.252	24642
882.378	24494
882.505	24681
882.631	24369
882.757	24357
882.883	24467
883.01	24407
883.136	24292
883.262	24148
883.388	24220
883.514	24361
883.64	24315
883.766	24144
883.892	24064
884.018	24076
884.143	24205
884.269	24372
884.395	24144
884.52	23916
884.646	24018
884.772	24060
884.897	23828
885.023	24007
885.148	24155
885.274	24106
885.399	23939
885.524	23897
885.65	23802
885.775	23638
885.9	23471
886.025	23589
886.15	23379
886.275	23143
886.4	23124
886.525	23075
886.65	22995
886.775	22999
886.9	23003
887.025	22987
887.149	22645
887.274	22447
887.399	22428
887.523	22371
887.648	22158
887.773	22158
887.897	22200
888.021	22128
888.146	21979
888.27	22082
888.395	22116
888.519	22082
888.643	22013
888.767	21934
888.891	21804
889.015	21488
889.139	21759
889.263	21610
889.387	21523
889.511	21800
889.635	21549
889.759	21420
889.883	21393
890.006	21450
890.13	21363
890.254	21237
890.377	21329
890.501	21100
890.624	20857
890.748	21142
890.871	20944
890.995	20925
891.118	20750
891.241	20952
891.364	20921
891.488	20948
891.611	20743
891.734	20693
891.857	20705
891.98	20682
892.103	20785
892.226	20609
892.349	20522
892.471	20412
892.594	20507
892.717	20438
892.839	20381
892.962	20514
893.085	20564
893.207	20423
893.33	20415
893.452	20408
893.575	20377
893.697	20259
893.819	20469
893.941	20598
894.064	20454
894.186	20218
894.308	20252
894.43	20374
894.552	20385
894.674	20320
894.796	20126
894.918	20252
895.04	20183
895.161	20294
895.283	20145
895.405	20176
895.526	20195
895.648	20100
895.769	20240
895.891	20088
896.012	20130
896.134	20206
896.255	19989
896.376	20024
896.498	20035
896.619	20092
896.74	20005
896.861	20244
896.982	20389
897.103	20465
897.224	20358
897.345	20374
897.466	20339
897.587	20282
897.708	20339
897.828	20248
897.949	20199
898.07	20062
898.19	20248
898.311	20374
898.431	20195
898.552	20248
898.672	20442
898.792	20256
898.913	20229
899.033	20050
899.153	20016
899.273	19940
899.393	19978
899.513	19986
899.633	19955
899.753	19925
899.873	19947
899.993	19932
900.113	19917
900.232	19944
900.352	19799
900.472	19791
900.591	19712
900.711	19643
900.83	19639
900.95	19887
901.069	19795
901.189	19738
901.308	19411
901.427	19350
901.546	19285
901.665	19350
901.784	19297
901.904	19217
902.023	19057
902.141	18863
902.26	18802
902.379	18798
902.498	18760
902.617	18722
902.735	18734
902.854	18703
902.973	18601
903.091	18346
903.21	18327
903.328	18350
903.446	18369
903.565	18213
903.683	18296
903.801	17973
903.919	18228
904.038	18133
904.156	17942
904.274	17958
904.392	17882
904.51	17885
904.627	17939
904.745	17783
904.863	17847
904.981	17783
905.098	17539
905.216	17493
905.334	17543
905.451	17509
905.569	17402
905.686	17505
905.803	17551
905.921	17368
906.038	17509
906.155	17250
906.272	17212
906.389	17166
906.506	17022
906.623	17060
906.74	16987
906.857	16881
906.974	16942
907.091	16957
907.208	17136
907.324	17029
907.441	16824
907.557	16759
907.674	16725
907.79	16733
907.907	16729
908.023	16645
908.139	16679
908.256	16656
908.372	16497
908.488	16603
908.604	16447
908.72	16306
908.836	16379
908.952	16352
909.068	16386
909.184	16474
909.3	16421
909.415	16371
909.531	16261
909.647	16139
909.762	16177
909.878	16002
909.993	16071
910.108	15968
910.224	16059
910.339	16013
910.454	15968
910.57	15922
910.685	15800
910.8	16128
910.915	16044
911.03	15880
911.145	15648
911.259	15701
911.374	15652
911.489	15622
911.604	15485
911.718	15351
911.833	15424
911.947	15306
912.062	15245
912.176	15428
912.291	15401
912.405	15275
912.519	15633
912.633	15447
912.748	15367
912.862	15298
912.976	15233
913.09	15081
913.204	15066
913.318	15184
913.431	15443
913.545	15310
913.659	15336
913.772	15154
913.886	15028
914	14986
914.113	15024
914.226	15089
914.34	15104
914.453	14948
914.566	15089
914.68	14967
914.793	14891
914.906	14796
915.019	14720
915.132	14705
915.245	14587
915.358	14701
915.47	14636
915.583	14720
915.696	14640
915.809	14743
915.921	14758
916.034	14625
916.146	14610
916.259	14568
916.371	14651
916.483	14640
916.595	14549
916.708	14682
916.82	14564
916.932	14545
917.044	14480
917.156	14476
917.268	14351
917.38	14370
917.491	14343
917.603	14366
917.715	14438
917.826	14427
917.938	14328
918.049	14153
918.161	14218
918.272	14389
918.384	14313
918.495	14278
918.606	14176
918.717	13986
918.828	14081
918.939	14123
919.05	14043
919.161	14043
919.272	13803
919.383	13909
919.494	14123
919.604	14237
919.715	14001
919.826	13871
919.936	13947
920.047	14008
920.157	13974
920.267	14145
920.378	13959
920.488	14020
920.598	14111
920.708	14267
920.818	14065
920.928	14069
921.038	14324
921.148	14214
921.258	13947
921.368	13799
921.477	13719
921.587	13712
921.697	13632
921.806	13658
921.916	13670
922.025	13422
922.134	13354
922.244	13297
922.353	13369
922.462	13285
922.571	13217
922.68	13046
922.789	12989
922.898	13023
923.007	12973
923.116	13015
923.224	13008
923.333	12973
923.442	12913
923.55	12833
923.659	12829
923.767	12897
923.876	12817
923.984	12875
924.092	12814
924.201	12719
924.309	12798
924.417	12817
924.525	12688
924.633	12711
924.741	13666
924.849	12490
924.956	12673
925.064	12608
925.172	12403
925.279	12540
925.387	12574
925.494	12578
925.602	12547
925.709	12536
925.816	12327
925.924	12486
926.031	12494
926.138	12464
926.245	12479
926.352	12281
926.459	12502
926.566	12467
926.673	12300
926.779	12201
926.886	12258
926.993	12125
927.099	12076
927.206	12011
927.312	11984
927.419	12045
927.525	12030
927.631	12019
927.737	11999
927.843	11893
927.95	11893
928.056	11847
928.162	11954
928.267	11901
928.373	12391
928.479	11973
928.585	11680
928.69	11836
928.796	11958
928.901	11691
929.007	11638
929.112	11847
929.218	11729
929.323	11600
929.428	11581
929.533	11710
929.638	11623
929.743	11501
929.848	11703
929.953	11520
930.058	11474
930.163	11330
930.267	11296
930.372	11493
930.477	11307
930.581	11455
930.685	11395
930.79	11143
930.894	11239
930.998	11212
931.103	11250
931.207	10934
931.311	10976
931.415	10763
931.519	10618
931.623	10512
