Data from test_V78500241_2378.txt Node
Date: Fri Mar 25 14:50:16 CST 2022
User: usil
Spectrometer: V785-0024
Trigger mode: 0
Integration Time (sec): 4.000000E-1
Scans to average: 1
Nonlinearity correction enabled: false
Boxcar width: 0
Storing dark spectrum: false
XAxis mode: Wavelengths
Number of Pixels in Spectrum: 1024
>>>>>Begin Spectral Data<<<<<
801.071	22139
801.214	22082
801.356	21800
801.499	21629
801.641	21553
801.783	21416
801.926	21572
802.068	21397
802.211	21431
802.353	21237
802.496	21127
802.638	21020
802.78	20925
802.923	20819
803.065	20739
803.208	20785
803.35	20777
803.492	21013
803.635	20868
803.777	20823
803.919	20891
804.061	21184
804.204	20914
804.346	20815
804.488	20758
804.63	20819
804.773	20670
804.915	20777
805.057	20864
805.199	20663
805.341	20838
805.483	20956
805.626	20864
805.768	20762
805.91	20804
806.052	20815
806.194	20701
806.336	20861
806.478	20716
806.62	20674
806.762	20769
806.904	20910
807.046	21116
807.188	21241
807.33	21032
807.472	21188
807.614	20998
807.756	21055
807.898	20891
808.04	20887
808.182	20838
808.324	20883
808.465	20823
808.607	21055
808.749	21108
808.891	21245
809.033	21272
809.174	21192
809.316	21108
809.458	21207
809.6	21081
809.741	21047
809.883	21268
810.025	21344
810.166	21439
810.308	21363
810.45	21207
810.591	21256
810.733	20982
810.875	20834
811.016	20842
811.158	20781
811.299	20990
811.441	21070
811.582	21077
811.724	20902
811.865	20933
812.007	20819
812.148	20883
812.29	20941
812.431	21081
812.573	21154
812.714	21298
812.855	21443
812.997	21526
813.138	21671
813.279	21492
813.421	21340
813.562	21321
813.703	21268
813.845	20925
813.986	20705
814.127	20594
814.268	20537
814.41	20427
814.551	20518
814.692	20602
814.833	20400
814.974	20552
815.115	20503
815.256	20324
815.397	20377
815.539	20320
815.68	20229
815.821	20172
815.962	20161
816.103	20202
816.244	20012
816.385	19936
816.526	19879
816.666	19662
816.807	19518
816.948	19727
817.089	19658
817.23	19605
817.371	19586
817.512	19677
817.653	19609
817.793	19563
817.934	19529
818.075	19582
818.216	19578
818.356	19491
818.497	19415
818.638	19202
818.778	19308
818.919	19301
819.06	19278
819.2	19327
819.341	19464
819.481	19502
819.622	19575
819.762	19803
819.903	19734
820.043	19639
820.184	19670
820.324	19544
820.465	19708
820.605	19563
820.746	19533
820.886	19457
821.026	19559
821.167	19548
821.307	19556
821.447	19529
821.588	19331
821.728	19316
821.868	19107
822.008	19015
822.149	19012
822.289	18985
822.429	18734
822.569	18696
822.709	18669
822.849	18410
822.99	18422
823.13	18429
823.27	18483
823.41	18350
823.55	18228
823.69	18194
823.83	18182
823.97	18178
824.11	18091
824.25	17996
824.389	18034
824.529	18110
824.669	18079
824.809	18140
824.949	18045
825.089	18178
825.228	17984
825.368	17836
825.508	17866
825.648	17874
825.787	17912
825.927	17897
826.067	17756
826.206	17813
826.346	17737
826.485	17916
826.625	17916
826.765	17939
826.904	17805
827.044	17615
827.183	17535
827.323	17493
827.462	17471
827.601	17516
827.741	17520
827.88	17406
828.02	17379
828.159	17509
828.298	17539
828.437	17524
828.577	17414
828.716	17596
828.855	17512
828.994	17345
829.134	17231
829.273	17212
829.412	17231
829.551	17216
829.69	17235
829.829	17189
829.968	17368
830.107	17303
830.246	17185
830.385	17200
830.524	17098
830.663	17102
830.802	17033
830.941	16805
831.08	16869
831.219	16934
831.357	16892
831.496	17060
831.635	16831
831.774	16854
831.913	16721
832.051	16615
832.19	16698
832.329	16664
832.467	16554
832.606	16584
832.744	16436
832.883	16462
833.022	16516
833.16	16493
833.299	16656
833.437	16538
833.576	16497
833.714	16660
833.852	16592
833.991	16580
834.129	16577
834.267	16645
834.406	16565
834.544	16637
834.682	16653
834.821	16531
834.959	16786
835.097	16542
835.235	16752
835.373	16637
835.511	16558
835.65	16561
835.788	16531
835.926	16348
836.064	16284
836.202	16268
836.34	16500
836.478	16592
836.615	16329
836.753	16554
836.891	16550
837.029	16565
837.167	16409
837.305	16424
837.443	16379
837.58	16344
837.718	16527
837.856	16314
837.993	16276
838.131	16291
838.269	16280
838.406	16284
838.544	16200
838.681	16116
838.819	16006
838.956	15880
839.094	15861
839.231	15903
839.369	16040
839.506	16242
839.643	16158
839.781	15876
839.918	15903
840.055	15960
840.193	15876
840.33	15899
840.467	15907
840.604	15922
840.742	16101
840.879	15701
841.016	15827
841.153	15797
841.29	15979
841.427	15979
841.564	15987
841.701	16010
841.838	15800
841.975	15930
842.112	15827
842.249	15724
842.385	15637
842.522	15728
842.659	15732
842.796	15553
842.933	15755
843.069	15690
843.206	15629
843.343	15618
843.479	15671
843.616	15759
843.752	15519
843.889	15389
844.025	15572
844.162	15382
844.298	15572
844.435	15416
844.571	15412
844.708	15542
844.844	15610
844.98	15667
845.117	15523
845.253	15488
845.389	15370
845.525	15401
845.661	15443
845.798	15279
845.934	15332
846.07	15230
846.206	15302
846.342	15378
846.478	15310
846.614	15138
846.75	15047
846.886	15032
847.022	15070
847.158	15036
847.294	15013
847.429	15161
847.565	14944
847.701	15165
847.837	14781
847.972	14804
848.108	14906
848.244	14906
848.379	14693
848.515	14644
848.65	14568
848.786	14674
848.921	14621
849.057	14853
849.192	14731
849.328	14640
849.463	14659
849.598	14644
849.734	14594
849.869	14461
850.004	14427
850.14	14431
850.275	14366
850.41	14252
850.545	14355
850.68	14434
850.815	14431
850.95	14522
851.085	14602
851.22	14423
851.355	14419
851.49	14400
851.625	14317
851.76	14438
851.895	14324
852.03	14309
852.165	14454
852.299	14332
852.434	14488
852.569	14514
852.703	14461
852.838	14434
852.973	14514
853.107	14590
853.242	14412
853.376	14240
853.511	14259
853.645	14164
853.78	14450
853.914	14332
854.048	14229
854.183	14199
854.317	14286
854.451	14438
854.585	14290
854.72	14237
854.854	14351
854.988	14187
855.122	14317
855.256	14084
855.39	14263
855.524	14351
855.658	14282
855.792	14275
855.926	14320
856.06	14263
856.194	14324
856.327	14267
856.461	14278
856.595	14195
856.729	14233
856.862	14438
856.996	14385
857.13	14374
857.263	14374
857.397	14377
857.53	14282
857.664	14347
857.797	14385
857.931	14423
858.064	14328
858.197	14415
858.331	14294
858.464	14218
858.597	14271
858.731	14191
858.864	14221
858.997	14256
859.13	14237
859.263	14298
859.396	14370
859.529	14309
859.662	14248
859.795	14214
859.928	14256
860.061	14499
860.194	14419
860.327	14495
860.46	14362
860.592	14301
860.725	14370
860.858	14301
860.99	14229
861.123	14157
861.256	14176
861.388	14290
861.521	14868
861.653	14096
861.786	14054
861.918	14138
862.05	14134
862.183	14187
862.315	14229
862.447	14271
862.58	14225
862.712	14073
862.844	13955
862.976	14153
863.108	14088
863.24	14423
863.372	14008
863.504	14008
863.636	14168
863.768	14092
863.9	14084
864.032	13986
864.164	13970
864.296	14077
864.428	14153
864.559	14164
864.691	14130
864.823	14111
864.954	14142
865.086	13959
865.217	13978
865.349	13936
865.48	14065
865.612	13944
865.743	14149
865.875	14039
866.006	14084
866.137	14039
866.269	14005
866.4	14062
866.531	13841
866.662	13986
866.793	13982
866.924	14012
867.055	14043
867.186	14024
867.317	13940
867.448	13997
867.579	14008
867.71	13967
867.841	13955
867.972	14126
868.103	14012
868.233	14039
868.364	13982
868.495	14126
868.625	14237
868.756	14442
868.886	14172
869.017	14221
869.147	14492
869.278	14351
869.408	14336
869.539	14351
869.669	14248
869.799	14339
869.929	14438
870.06	14248
870.19	14598
870.32	14541
870.45	14625
870.58	14610
870.71	14750
870.84	14762
870.97	14716
871.1	14625
871.23	14876
871.36	14853
871.489	14693
871.619	14902
871.749	14853
871.879	14762
872.008	14960
872.138	14918
872.267	14895
872.397	14758
872.526	14682
872.656	14594
872.785	14693
872.915	14910
873.044	14998
873.173	14902
873.303	14998
873.432	14948
873.561	14975
873.69	14979
873.819	14838
873.948	14994
874.077	14902
874.206	14956
874.335	14990
874.464	15051
874.593	15279
874.722	15112
874.851	15226
874.979	15256
875.108	15294
875.237	15169
875.365	15135
875.494	15161
875.623	15283
875.751	15260
875.88	15351
876.008	15302
876.136	15492
876.265	15698
876.393	15728
876.521	15857
876.65	15755
876.778	15682
876.906	15652
877.034	15641
877.162	15618
877.29	15694
877.418	15701
877.546	15591
877.674	15584
877.802	15625
877.93	15644
878.058	15584
878.185	15599
878.313	15641
878.441	15705
878.568	15466
878.696	15549
878.824	15774
878.951	15728
879.079	15861
879.206	15975
879.333	15842
879.461	15736
879.588	15762
879.715	15895
879.842	16025
879.97	15682
880.097	15584
880.224	15542
880.351	15473
880.478	15526
880.605	15477
880.732	15477
880.859	15682
880.986	15511
881.112	15629
881.239	15412
881.366	15237
881.493	15192
881.619	15150
881.746	15272
881.872	15184
881.999	15165
882.125	15131
882.252	15165
882.378	15036
882.505	15332
882.631	15108
882.757	14963
882.883	15047
883.01	15001
883.136	14872
883.262	14948
883.388	14731
883.514	15142
883.64	14967
883.766	14868
883.892	14765
884.018	14830
884.143	14956
884.269	15112
884.395	14773
884.52	14663
884.646	14731
884.772	14587
884.897	14621
885.023	14613
885.148	14796
885.274	14899
885.399	14830
885.524	14731
885.65	14674
885.775	14663
885.9	14655
886.025	14765
886.15	14754
886.275	14667
886.4	14670
886.525	14689
886.65	14762
886.775	14594
886.9	14758
887.025	14880
887.149	14720
887.274	14549
887.399	14465
887.523	14507
887.648	14423
887.773	14389
887.897	14560
888.021	14560
888.146	14571
888.27	14682
888.395	14629
888.519	14579
888.643	14625
888.767	14564
888.891	14412
889.015	14358
889.139	14366
889.263	14358
889.387	14537
889.511	14648
889.635	14495
889.759	14408
889.883	14328
890.006	14415
890.13	14514
890.254	14324
890.377	14324
890.501	14153
890.624	14054
890.748	14183
890.871	14157
890.995	14062
891.118	13928
891.241	14084
891.364	14050
891.488	14202
891.611	14016
891.734	13963
891.857	14107
891.98	14050
892.103	14252
892.226	14115
892.349	14081
892.471	14005
892.594	14119
892.717	14077
892.839	14043
892.962	14039
893.085	14195
893.207	14027
893.33	14031
893.452	13978
893.575	14142
893.697	14005
893.819	14275
893.941	14301
894.064	14252
894.186	14130
894.308	14134
894.43	14180
894.552	14313
894.674	14294
894.796	14001
894.918	14119
895.04	14092
895.161	14286
895.283	14225
895.405	14069
895.526	14218
895.648	14157
895.769	14313
895.891	14358
896.012	14229
896.134	14362
896.255	14244
896.376	14252
896.498	14252
896.619	14309
896.74	14347
896.861	14385
896.982	14571
897.103	14811
897.224	14640
897.345	14503
897.466	14419
897.587	14503
897.708	14678
897.828	14518
897.949	14541
898.07	14412
898.19	14533
898.311	14594
898.431	14522
898.552	14552
898.672	14678
898.792	14621
898.913	14644
899.033	14560
899.153	14549
899.273	14351
899.393	14461
899.513	14522
899.633	14457
899.753	14370
899.873	14488
899.993	14427
900.113	14495
900.232	14594
900.352	14389
900.472	14362
900.591	14256
900.711	14336
900.83	14240
900.95	14446
901.069	14446
901.189	14290
901.308	14058
901.427	14039
901.546	13963
901.665	14065
901.784	14005
901.904	13906
902.023	13852
902.141	13677
902.26	13521
902.379	13666
902.498	13571
902.617	13605
902.735	13548
902.854	13628
902.973	13533
903.091	13327
903.21	13247
903.328	13350
903.446	13190
903.565	13069
903.683	13168
903.801	13080
903.919	13145
904.038	13091
904.156	13019
904.274	12973
904.392	13015
904.51	13019
904.627	12916
904.745	12920
904.863	13031
904.981	12844
905.098	12578
905.216	12627
905.334	12642
905.451	12715
905.569	12616
905.686	12662
905.803	12608
905.921	12460
906.038	12521
906.155	12448
906.272	12311
906.389	12410
906.506	12296
906.623	12266
906.74	12213
906.857	12140
906.974	12129
907.091	12353
907.208	12350
907.324	12376
907.441	12163
907.557	11965
907.674	11950
907.79	11942
907.907	11965
908.023	12072
908.139	11965
908.256	11916
908.372	11923
908.488	11843
908.604	11718
908.72	11657
908.836	11703
908.952	11718
909.068	11680
909.184	11813
909.3	11824
909.415	11786
909.531	11722
909.647	11539
909.762	11577
909.878	11421
909.993	11577
910.108	11444
910.224	11463
910.339	11520
910.454	11387
910.57	11296
910.685	11303
910.8	11619
910.915	11562
911.03	11474
911.145	11242
911.259	11204
911.374	11178
911.489	11197
911.604	11140
911.718	10980
911.833	10984
911.947	10866
912.062	10820
912.176	10946
912.291	10976
912.405	11006
912.519	11204
912.633	11212
912.748	11098
912.862	10976
912.976	10809
913.09	10801
913.204	10725
913.318	10847
913.431	10949
913.545	10999
913.659	10991
913.772	10961
913.886	10767
914	10797
914.113	10869
914.226	10771
914.34	10759
914.453	10691
914.566	10915
914.68	10641
914.793	10687
914.906	10516
915.019	10398
915.132	10413
915.245	10466
915.358	10508
915.47	10459
915.583	10519
915.696	10516
915.809	10694
915.921	10561
916.034	10508
916.146	10371
916.259	10417
916.371	10493
916.483	10535
916.595	10440
916.708	10440
916.82	10398
916.932	10253
917.044	10436
917.156	10375
917.268	10181
917.38	10272
917.491	10375
917.603	10356
917.715	10421
917.826	10390
917.938	10227
918.049	10223
918.161	10344
918.272	10409
918.384	10432
918.495	10333
918.606	10185
918.717	10101
918.828	10166
918.939	10257
919.05	10059
919.161	10116
919.272	9983
919.383	10044
919.494	10253
919.604	10493
919.715	10181
919.826	10112
919.936	10162
920.047	10200
920.157	10276
920.267	10424
920.378	10215
920.488	10219
920.598	10390
920.708	10516
920.818	10367
920.928	10371
921.038	10546
921.148	10580
921.258	10257
921.368	10188
921.477	10074
921.587	10147
921.697	10002
921.806	10067
921.916	9972
922.025	9800
922.134	9762
922.244	9781
922.353	9774
922.462	9644
922.571	9671
922.68	9469
922.789	9416
922.898	9462
923.007	9363
923.116	9507
923.224	9523
923.333	9481
923.442	9431
923.55	9306
923.659	9359
923.767	9447
923.876	9237
923.984	9382
924.092	9169
924.201	9408
924.309	9302
924.417	9306
924.525	9272
924.633	9340
924.741	10013
924.849	9123
924.956	9291
925.064	9066
925.172	9017
925.279	9058
925.387	9112
925.494	9081
925.602	9207
925.709	9135
925.816	8998
925.924	9135
926.031	9169
926.138	9077
926.245	9150
926.352	9013
926.459	9241
926.566	9173
926.673	9051
926.779	8948
926.886	8937
926.993	8857
927.099	8864
927.206	8777
927.312	8899
927.419	8788
927.525	8826
927.631	8842
927.737	8826
927.843	8811
927.95	8651
928.056	8625
928.162	8701
928.267	8739
928.373	9447
928.479	8838
928.585	8587
928.69	8754
928.796	8758
928.901	8648
929.007	8511
929.112	8670
929.218	8632
929.323	8564
929.428	8568
929.533	8663
929.638	8499
929.743	8629
929.848	8655
929.953	8526
930.058	8469
930.163	8259
930.267	8332
930.372	8488
930.477	8301
930.581	8533
930.685	8419
930.79	8275
930.894	8248
930.998	8240
931.103	8446
931.207	8046
931.311	8016
931.415	7913
931.519	7723
931.623	7772
