Data from test_V78500241_2369.txt Node
Date: Fri Mar 25 14:50:12 CST 2022
User: usil
Spectrometer: V785-0024
Trigger mode: 0
Integration Time (sec): 4.000000E-1
Scans to average: 1
Nonlinearity correction enabled: false
Boxcar width: 0
Storing dark spectrum: false
XAxis mode: Wavelengths
Number of Pixels in Spectrum: 1024
>>>>>Begin Spectral Data<<<<<
801.071	22200
801.214	22101
801.356	21808
801.499	21698
801.641	21488
801.783	21466
801.926	21542
802.068	21374
802.211	21439
802.353	21135
802.496	21108
802.638	20982
802.78	20960
802.923	20788
803.065	20788
803.208	20838
803.35	20804
803.492	20929
803.635	21009
803.777	20857
803.919	20823
804.061	21233
804.204	20921
804.346	20735
804.488	20663
804.63	20830
804.773	20636
804.915	20746
805.057	20834
805.199	20845
805.341	20845
805.483	20807
805.626	20773
805.768	20785
805.91	20758
806.052	20826
806.194	20678
806.336	20823
806.478	20804
806.62	20804
806.762	20826
806.904	21028
807.046	21157
807.188	20994
807.33	21237
807.472	21119
807.614	21036
807.756	20982
807.898	20796
808.04	20777
808.182	20773
808.324	20826
808.465	21024
808.607	20952
808.749	21222
808.891	21348
809.033	21233
809.174	21279
809.316	21017
809.458	21138
809.6	21173
809.741	21150
809.883	21268
810.025	21355
810.166	21291
810.308	21233
810.45	21222
810.591	21066
810.733	20986
810.875	21036
811.016	20826
811.158	20773
811.299	20914
811.441	21047
811.582	21055
811.724	20853
811.865	20906
812.007	20929
812.148	20975
812.29	20933
812.431	21032
812.573	21188
812.714	21275
812.855	21454
812.997	21610
813.138	21641
813.279	21530
813.421	21466
813.562	21367
813.703	21165
813.845	21100
813.986	20925
814.127	20693
814.268	20514
814.41	20579
814.551	20473
814.692	20454
814.833	20396
814.974	20469
815.115	20408
815.256	20328
815.397	20438
815.539	20282
815.68	20088
815.821	20157
815.962	20191
816.103	20164
816.244	20027
816.385	19845
816.526	19814
816.666	19795
816.807	19556
816.948	19575
817.089	19712
817.23	19727
817.371	19613
817.512	19605
817.653	19502
817.793	19499
817.934	19594
818.075	19624
818.216	19590
818.356	19552
818.497	19476
818.638	19244
818.778	19388
818.919	19460
819.06	19297
819.2	19381
819.341	19460
819.481	19613
819.622	19704
819.762	19757
819.903	19677
820.043	19712
820.184	19556
820.324	19578
820.465	19670
820.605	19483
820.746	19533
820.886	19483
821.026	19556
821.167	19460
821.307	19548
821.447	19556
821.588	19388
821.728	19304
821.868	19095
822.008	18882
822.149	18935
822.289	18985
822.429	18783
822.569	18608
822.709	18578
822.849	18513
822.99	18441
823.13	18498
823.27	18380
823.41	18300
823.55	18254
823.69	18311
823.83	18334
823.97	18273
824.11	18076
824.25	17996
824.389	18117
824.529	18220
824.669	18045
824.809	18129
824.949	18174
825.089	18167
825.228	18083
825.368	17843
825.508	17824
825.648	17878
825.787	17958
825.927	17866
826.067	17779
826.206	17775
826.346	17817
826.485	17809
826.625	17767
826.765	17908
826.904	17779
827.044	17566
827.183	17592
827.323	17543
827.462	17634
827.601	17509
827.741	17592
827.88	17547
828.02	17395
828.159	17505
828.298	17505
828.437	17573
828.577	17417
828.716	17562
828.855	17516
828.994	17334
829.134	17280
829.273	17204
829.412	17277
829.551	17151
829.69	17250
829.829	17250
829.968	17330
830.107	17189
830.246	17284
830.385	17136
830.524	17143
830.663	17113
830.802	17014
830.941	16786
831.08	16862
831.219	16908
831.357	16877
831.496	17075
831.635	16809
831.774	16744
831.913	16736
832.051	16565
832.19	16538
832.329	16687
832.467	16603
832.606	16405
832.744	16493
832.883	16542
833.022	16478
833.16	16565
833.299	16542
833.437	16512
833.576	16660
833.714	16641
833.852	16603
833.991	16725
834.129	16691
834.267	16698
834.406	16504
834.544	16637
834.682	16664
834.821	16588
834.959	16615
835.097	16538
835.235	16622
835.373	16584
835.511	16611
835.65	16451
835.788	16573
835.926	16344
836.064	16310
836.202	16265
836.34	16573
836.478	16497
836.615	16493
836.753	16493
836.891	16634
837.029	16565
837.167	16493
837.305	16402
837.443	16390
837.58	16367
837.718	16325
837.856	16390
837.993	16284
838.131	16333
838.269	16223
838.406	16272
838.544	16169
838.681	16093
838.819	15979
838.956	15861
839.094	15903
839.231	15918
839.369	16002
839.506	16318
839.643	16162
839.781	15895
839.918	15945
840.055	15838
840.193	15861
840.33	15888
840.467	15797
840.604	15850
840.742	16173
840.879	15808
841.016	15812
841.153	15751
841.29	16051
841.427	15926
841.564	15941
841.701	15941
841.838	15861
841.975	15793
842.112	15873
842.249	15568
842.385	15709
842.522	15819
842.659	15641
842.796	15591
842.933	15705
843.069	15625
843.206	15675
843.343	15690
843.479	15629
843.616	15690
843.752	15538
843.889	15378
844.025	15572
844.162	15431
844.298	15637
844.435	15462
844.571	15374
844.708	15496
844.844	15599
844.98	15538
845.117	15515
845.253	15469
845.389	15370
845.525	15408
845.661	15412
845.798	15283
845.934	15302
846.07	15180
846.206	15237
846.342	15370
846.478	15192
846.614	15123
846.75	14925
846.886	14979
847.022	15116
847.158	15116
847.294	14998
847.429	15058
847.565	14952
847.701	15146
847.837	14895
847.972	14708
848.108	14876
848.244	14815
848.379	14727
848.515	14617
848.65	14663
848.786	14617
848.921	14598
849.057	14636
849.192	14746
849.328	14621
849.463	14602
849.598	14602
849.734	14549
849.869	14419
850.004	14408
850.14	14465
850.275	14495
850.41	14427
850.545	14351
850.68	14404
850.815	14419
850.95	14336
851.085	14625
851.22	14602
851.355	14408
851.49	14396
851.625	14389
851.76	14419
851.895	14263
852.03	14237
852.165	14328
852.299	14434
852.434	14415
852.569	14446
852.703	14484
852.838	14488
852.973	14579
853.107	14522
853.242	14328
853.376	14309
853.511	14195
853.645	14286
853.78	14412
853.914	14324
854.048	14233
854.183	14240
854.317	14282
854.451	14419
854.585	14115
854.72	14229
854.854	14336
854.988	14199
855.122	14298
855.256	14176
855.39	14259
855.524	14313
855.658	14294
855.792	14199
855.926	14275
856.06	14366
856.194	14393
856.327	14233
856.461	14172
856.595	14199
856.729	14225
856.862	14431
856.996	14336
857.13	14351
857.263	14332
857.397	14434
857.53	14271
857.664	14355
857.797	14415
857.931	14465
858.064	14214
858.197	14423
858.331	14244
858.464	14244
858.597	14206
858.731	14199
858.864	14298
858.997	14248
859.13	14336
859.263	14263
859.396	14404
859.529	14252
859.662	14324
859.795	14225
859.928	14317
860.061	14427
860.194	14541
860.327	14305
860.46	14320
860.592	14408
860.725	14488
860.858	14370
860.99	14248
861.123	14149
861.256	14259
861.388	14233
861.521	14834
861.653	14176
861.786	14111
861.918	14168
862.05	14115
862.183	14221
862.315	14233
862.447	14278
862.58	14142
862.712	14103
862.844	14016
862.976	14107
863.108	14077
863.24	14377
863.372	13902
863.504	14050
863.636	14005
863.768	14100
863.9	14050
864.032	14031
864.164	14035
864.296	14084
864.428	14244
864.559	14218
864.691	14199
864.823	14111
864.954	14145
865.086	14161
865.217	14073
865.349	13982
865.48	14046
865.612	13921
865.743	14077
865.875	14073
866.006	14115
866.137	14054
866.269	14050
866.4	14001
866.531	13913
866.662	13986
866.793	14054
866.924	13982
867.055	14024
867.186	13997
867.317	13928
867.448	13936
867.579	13993
867.71	13970
867.841	14050
867.972	14001
868.103	13986
868.233	14103
868.364	14012
868.495	14111
868.625	14244
868.756	14301
868.886	14214
869.017	14267
869.147	14438
869.278	14431
869.408	14332
869.539	14244
869.669	14377
869.799	14324
869.929	14400
870.06	14377
870.19	14648
870.32	14594
870.45	14507
870.58	14644
870.71	14689
870.84	14724
870.97	14674
871.1	14689
871.23	14861
871.36	14842
871.489	14804
871.619	14975
871.749	14880
871.879	15017
872.008	14929
872.138	14906
872.267	14845
872.397	14727
872.526	14731
872.656	14750
872.785	14781
872.915	14944
873.044	14929
873.173	14952
873.303	14990
873.432	14891
873.561	15017
873.69	14975
873.819	14815
873.948	15001
874.077	14880
874.206	14899
874.335	14933
874.464	15093
874.593	15252
874.722	15176
874.851	15298
874.979	15275
875.108	15325
875.237	15207
875.365	15142
875.494	15226
875.623	15329
875.751	15173
875.88	15233
876.008	15397
876.136	15416
876.265	15690
876.393	15854
876.521	15785
876.65	15785
876.778	15667
876.906	15690
877.034	15618
877.162	15606
877.29	15679
877.418	15690
877.546	15576
877.674	15648
877.802	15720
877.93	15603
878.058	15618
878.185	15603
878.313	15671
878.441	15663
878.568	15450
878.696	15599
878.824	15667
878.951	15739
879.079	15865
879.206	16059
879.333	15819
879.461	15766
879.588	15663
879.715	15854
879.842	15960
879.97	15652
880.097	15519
880.224	15507
880.351	15568
880.478	15564
880.605	15542
880.732	15458
880.859	15648
880.986	15610
881.112	15515
881.239	15412
881.366	15313
881.493	15272
881.619	15241
881.746	15093
881.872	15089
881.999	15173
882.125	15161
882.252	15188
882.378	15199
882.505	15272
882.631	15100
882.757	14960
882.883	15051
883.01	14914
883.136	14952
883.262	14765
883.388	14849
883.514	14979
883.64	15039
883.766	14895
883.892	14826
884.018	14872
884.143	14998
884.269	14986
884.395	14716
884.52	14598
884.646	14640
884.772	14625
884.897	14610
885.023	14632
885.148	14830
885.274	14804
885.399	14693
885.524	14667
885.65	14640
885.775	14682
885.9	14701
886.025	14743
886.15	14788
886.275	14632
886.4	14610
886.525	14632
886.65	14568
886.775	14552
886.9	14792
887.025	14952
887.149	14625
887.274	14492
887.399	14480
887.523	14537
887.648	14396
887.773	14408
887.897	14514
888.021	14473
888.146	14393
888.27	14636
888.395	14758
888.519	14545
888.643	14613
888.767	14571
888.891	14457
889.015	14252
889.139	14396
889.263	14309
889.387	14400
889.511	14526
889.635	14457
889.759	14419
889.883	14301
890.006	14393
890.13	14465
890.254	14294
890.377	14278
890.501	14164
890.624	14218
890.748	14233
890.871	14157
890.995	13997
891.118	14043
891.241	14058
891.364	14058
891.488	14248
891.611	14035
891.734	14062
891.857	14233
891.98	13974
892.103	14161
892.226	14134
892.349	14039
892.471	13974
892.594	14031
892.717	14092
892.839	14035
892.962	14077
893.085	14138
893.207	14046
893.33	14020
893.452	14024
893.575	14062
893.697	14069
893.819	14202
893.941	14221
894.064	14183
894.186	14103
894.308	14012
894.43	14225
894.552	14328
894.674	14191
894.796	14043
894.918	14084
895.04	14183
895.161	14244
895.283	14180
895.405	14024
895.526	14206
895.648	14168
895.769	14153
895.891	14271
896.012	14244
896.134	14172
896.255	14275
896.376	14240
896.498	14206
896.619	14381
896.74	14263
896.861	14332
896.982	14754
897.103	14762
897.224	14541
897.345	14526
897.466	14461
897.587	14568
897.708	14667
897.828	14522
897.949	14530
898.07	14419
898.19	14537
898.311	14686
898.431	14613
898.552	14606
898.672	14629
898.792	14587
898.913	14613
899.033	14610
899.153	14400
899.273	14434
899.393	14473
899.513	14408
899.633	14427
899.753	14465
899.873	14374
899.993	14526
900.113	14415
900.232	14518
900.352	14412
900.472	14358
900.591	14282
900.711	14294
900.83	14248
900.95	14427
901.069	14476
901.189	14309
901.308	14077
901.427	13951
901.546	14005
901.665	14119
901.784	13959
901.904	13978
902.023	13849
902.141	13624
902.26	13655
902.379	13723
902.498	13548
902.617	13658
902.735	13624
902.854	13571
902.973	13594
903.091	13335
903.21	13331
903.328	13278
903.446	13244
903.565	13225
903.683	13137
903.801	13076
903.919	13031
904.038	13118
904.156	12985
904.274	13046
904.392	12943
904.51	12981
904.627	12958
904.745	12954
904.863	12989
904.981	12745
905.098	12665
905.216	12654
905.334	12688
905.451	12669
905.569	12589
905.686	12677
905.803	12620
905.921	12494
906.038	12547
906.155	12414
906.272	12365
906.389	12433
906.506	12315
906.623	12243
906.74	12114
906.857	12114
906.974	12140
907.091	12353
907.208	12376
907.324	12209
907.441	12140
907.557	11988
907.674	12026
907.79	11942
907.907	11984
908.023	11965
908.139	11901
908.256	11927
908.372	11954
908.488	11885
908.604	11767
908.72	11767
908.836	11714
908.952	11767
909.068	11710
909.184	11843
909.3	11771
909.415	11817
909.531	11718
909.647	11600
909.762	11539
909.878	11414
909.993	11585
910.108	11532
910.224	11455
910.339	11501
910.454	11448
910.57	11368
910.685	11292
910.8	11630
910.915	11520
911.03	11414
911.145	11273
911.259	11197
911.374	11242
911.489	11246
911.604	11083
911.718	10889
911.833	11025
911.947	10904
912.062	10801
912.176	10980
912.291	10972
912.405	10881
912.519	11117
912.633	11159
912.748	11014
912.862	11048
912.976	10847
913.09	10771
913.204	10763
913.318	10824
913.431	10915
913.545	10961
913.659	11041
913.772	10778
913.886	10702
914	10698
914.113	10828
914.226	10786
914.34	10774
914.453	10694
914.566	10759
914.68	10717
914.793	10694
914.906	10447
915.019	10394
915.132	10428
915.245	10508
915.358	10455
915.47	10519
915.583	10474
915.696	10573
915.809	10675
915.921	10641
916.034	10470
916.146	10500
916.259	10413
916.371	10535
916.483	10538
916.595	10352
916.708	10447
916.82	10447
916.932	10405
917.044	10409
917.156	10379
917.268	10318
917.38	10333
917.491	10295
917.603	10367
917.715	10424
917.826	10440
917.938	10306
918.049	10204
918.161	10348
918.272	10424
918.384	10462
918.495	10257
918.606	10249
918.717	10059
918.828	10166
918.939	10181
919.05	10139
919.161	10116
919.272	9994
919.383	10059
919.494	10249
919.604	10371
919.715	10154
919.826	10147
919.936	10219
920.047	10284
920.157	10230
920.267	10421
920.378	10253
920.488	10238
920.598	10360
920.708	10558
920.818	10409
920.928	10421
921.038	10512
921.148	10538
921.258	10192
921.368	10181
921.477	10055
921.587	10078
921.697	9922
921.806	10109
921.916	9972
922.025	9720
922.134	9778
922.244	9660
922.353	9800
922.462	9713
922.571	9564
922.68	9530
922.789	9428
922.898	9469
923.007	9420
923.116	9507
923.224	9447
923.333	9435
923.442	9382
923.55	9313
923.659	9348
923.767	9469
923.876	9321
923.984	9378
924.092	9283
924.201	9325
924.309	9332
924.417	9332
924.525	9211
924.633	9256
924.741	10093
924.849	9100
924.956	9253
925.064	9176
925.172	9074
925.279	9104
925.387	9112
925.494	9074
925.602	9249
925.709	9218
925.816	9100
925.924	9157
926.031	9161
926.138	9127
926.245	9150
926.352	9058
926.459	9199
926.566	9226
926.673	9104
926.779	9005
926.886	9043
926.993	8804
927.099	8842
927.206	8902
927.312	8781
927.419	8872
927.525	8857
927.631	8868
927.737	8743
927.843	8708
927.95	8583
928.056	8750
928.162	8716
928.267	8720
928.373	9447
928.479	8777
928.585	8556
928.69	8693
928.796	8819
928.901	8552
929.007	8556
929.112	8655
929.218	8655
929.323	8495
929.428	8541
929.533	8617
929.638	8431
929.743	8511
929.848	8568
929.953	8564
930.058	8431
930.163	8309
930.267	8328
930.372	8511
930.477	8282
930.581	8503
930.685	8450
930.79	8275
930.894	8305
930.998	8279
931.103	8370
931.207	8062
931.311	8008
931.415	8016
931.519	7814
931.623	7776
