Data from test_V78500241_1181.txt Node
Date: Fri Mar 25 14:41:56 CST 2022
User: usil
Spectrometer: V785-0024
Trigger mode: 0
Integration Time (sec): 4.000000E-1
Scans to average: 1
Nonlinearity correction enabled: false
Boxcar width: 0
Storing dark spectrum: false
XAxis mode: Wavelengths
Number of Pixels in Spectrum: 1024
>>>>>Begin Spectral Data<<<<<
801.071	22493
801.214	22215
801.356	22097
801.499	21972
801.641	21842
801.783	21732
801.926	21892
802.068	21846
802.211	21599
802.353	21526
802.496	21389
802.638	21291
802.78	21249
802.923	21211
803.065	21119
803.208	21195
803.35	21039
803.492	21176
803.635	21211
803.777	21207
803.919	21207
804.061	21431
804.204	21150
804.346	21043
804.488	20979
804.63	21036
804.773	20929
804.915	21119
805.057	21150
805.199	21009
805.341	21081
805.483	21074
805.626	21199
805.768	20998
805.91	21226
806.052	21051
806.194	21055
806.336	21226
806.478	21112
806.62	21028
806.762	21085
806.904	21279
807.046	21663
807.188	21348
807.33	21450
807.472	21564
807.614	21408
807.756	21454
807.898	21268
808.04	21138
808.182	21230
808.324	21374
808.465	21249
808.607	21606
808.749	21515
808.891	21717
809.033	21648
809.174	21557
809.316	21549
809.458	21553
809.6	21542
809.741	21500
809.883	21660
810.025	21648
810.166	21580
810.308	21694
810.45	21580
810.591	21564
810.733	21382
810.875	21237
811.016	21157
811.158	21146
811.299	21325
811.441	21386
811.582	21344
811.724	21310
811.865	21287
812.007	21119
812.148	21287
812.29	21382
812.431	21363
812.573	21477
812.714	21717
812.855	21671
812.997	21956
813.138	21892
813.279	21979
813.421	21671
813.562	21789
813.703	21321
813.845	21401
813.986	21058
814.127	20906
814.268	20876
814.41	20864
814.551	20800
814.692	20944
814.833	20769
814.974	20804
815.115	20777
815.256	20609
815.397	20670
815.539	20693
815.68	20503
815.821	20499
815.962	20503
816.103	20533
816.244	20400
816.385	20248
816.526	20301
816.666	20119
816.807	19997
816.948	20027
817.089	20237
817.23	20005
817.371	20012
817.512	19970
817.653	20031
817.793	19791
817.934	19917
818.075	20008
818.216	19970
818.356	19970
818.497	19818
818.638	19647
818.778	19632
818.919	19658
819.06	19742
819.2	19776
819.341	19776
819.481	19788
819.622	19902
819.762	20210
819.903	19963
820.043	20012
820.184	19928
820.324	19860
820.465	20050
820.605	19986
820.746	19890
820.886	19864
821.026	19967
821.167	19913
821.307	19856
821.447	19917
821.588	19742
821.728	19639
821.868	19525
822.008	19411
822.149	19327
822.289	19228
822.429	19137
822.569	18966
822.709	19034
822.849	18852
822.99	18882
823.13	18821
823.27	18795
823.41	18563
823.55	18513
823.69	18688
823.83	18646
823.97	18509
824.11	18410
824.25	18448
824.389	18475
824.529	18517
824.669	18319
824.809	18479
824.949	18525
825.089	18490
825.228	18517
825.368	18266
825.508	18323
825.648	18304
825.787	18426
825.927	18232
826.067	18209
826.206	18243
826.346	18308
826.485	18194
826.625	18232
826.765	18311
826.904	18289
827.044	17912
827.183	18083
827.323	17901
827.462	18083
827.601	17946
827.741	17912
827.88	17958
828.02	17920
828.159	17965
828.298	17912
828.437	18007
828.577	17904
828.716	18049
828.855	17798
828.994	17733
829.134	17707
829.273	17809
829.412	17714
829.551	17615
829.69	17570
829.829	17783
829.968	17821
830.107	17775
830.246	17680
830.385	17558
830.524	17623
830.663	17532
830.802	17440
830.941	17372
831.08	17258
831.219	17395
831.357	17368
831.496	17482
831.635	17292
831.774	17170
831.913	17109
832.051	17121
832.19	17048
832.329	17117
832.467	17018
832.606	16991
832.744	16930
832.883	16980
833.022	16938
833.16	17018
833.299	17105
833.437	17037
833.576	17124
833.714	17006
833.852	17136
833.991	17113
834.129	17181
834.267	17075
834.406	17045
834.544	17071
834.682	17067
834.821	17041
834.959	17204
835.097	16965
835.235	17185
835.373	17086
835.511	17029
835.65	16854
835.788	16961
835.926	16862
836.064	16706
836.202	16824
836.34	17025
836.478	17003
836.615	17003
836.753	16889
836.891	17041
837.029	17045
837.167	16896
837.305	16938
837.443	16839
837.58	16816
837.718	16972
837.856	16774
837.993	16725
838.131	16793
838.269	16767
838.406	16812
838.544	16713
838.681	16561
838.819	16500
838.956	16360
839.094	16348
839.231	16371
839.369	16596
839.506	16759
839.643	16771
839.781	16428
839.918	16443
840.055	16466
840.193	16382
840.33	16322
840.467	16344
840.604	16348
840.742	16573
840.879	16234
841.016	16246
841.153	16291
841.29	16459
841.427	16402
841.564	16390
841.701	16455
841.838	16299
841.975	16329
842.112	16356
842.249	16169
842.385	16101
842.522	16367
842.659	16234
842.796	16196
842.933	16067
843.069	16013
843.206	16200
843.343	16162
843.479	16116
843.616	16086
843.752	15968
843.889	15964
844.025	16063
844.162	15922
844.298	16029
844.435	15892
844.571	15930
844.708	16006
844.844	16101
844.98	16097
845.117	16029
845.253	15941
845.389	15911
845.525	15968
845.661	16032
845.798	15823
845.934	15899
846.07	15884
846.206	15892
846.342	15918
846.478	15819
846.614	15568
846.75	15515
846.886	15504
847.022	15534
847.158	15443
847.294	15504
847.429	15561
847.565	15507
847.701	15766
847.837	15264
847.972	15195
848.108	15447
848.244	15325
848.379	15161
848.515	15089
848.65	15150
848.786	15173
848.921	15055
849.057	15157
849.192	15184
849.328	15203
849.463	15173
849.598	15100
849.734	14941
849.869	14986
850.004	14895
850.14	14967
850.275	14891
850.41	14777
850.545	14861
850.68	14910
850.815	14804
850.95	14876
851.085	14929
851.22	14944
851.355	14830
851.49	14815
851.625	14902
851.76	14781
851.895	14750
852.03	14678
852.165	14861
852.299	14906
852.434	14933
852.569	14937
852.703	14849
852.838	14963
852.973	15032
853.107	15024
853.242	14823
853.376	14720
853.511	14663
853.645	14697
853.78	14872
853.914	14648
854.048	14731
854.183	14712
854.317	14689
854.451	14998
854.585	14682
854.72	14712
854.854	14815
854.988	14568
855.122	14610
855.256	14594
855.39	14697
855.524	14845
855.658	14758
855.792	14720
855.926	14883
856.06	14773
856.194	14849
856.327	14785
856.461	14727
856.595	14659
856.729	14689
856.862	14743
856.996	14746
857.13	14735
857.263	14842
857.397	14853
857.53	14720
857.664	14830
857.797	14861
857.931	14819
858.064	14773
858.197	14887
858.331	14716
858.464	14788
858.597	14682
858.731	14648
858.864	14659
858.997	14655
859.13	14735
859.263	14788
859.396	14902
859.529	14549
859.662	14682
859.795	14758
859.928	14720
860.061	14845
860.194	14941
860.327	14743
860.46	14705
860.592	14708
860.725	14826
860.858	14899
860.99	14777
861.123	14625
861.256	14655
861.388	14765
861.521	15389
861.653	14549
861.786	14530
861.918	14575
862.05	14670
862.183	14625
862.315	14644
862.447	14640
862.58	14640
862.712	14469
862.844	14461
862.976	14632
863.108	14587
863.24	14895
863.372	14454
863.504	14514
863.636	14450
863.768	14575
863.9	14594
864.032	14488
864.164	14469
864.296	14579
864.428	14606
864.559	14587
864.691	14518
864.823	14514
864.954	14476
865.086	14587
865.217	14571
865.349	14389
865.48	14438
865.612	14537
865.743	14598
865.875	14514
866.006	14446
866.137	14507
866.269	14503
866.4	14450
866.531	14393
866.662	14336
866.793	14400
866.924	14541
867.055	14484
867.186	14473
867.317	14377
867.448	14339
867.579	14377
867.71	14457
867.841	14343
867.972	14511
868.103	14465
868.233	14560
868.364	14571
868.495	14575
868.625	14788
868.756	14838
868.886	14602
869.017	14701
869.147	14819
869.278	14815
869.408	14769
869.539	14644
869.669	14883
869.799	14739
869.929	14773
870.06	14902
870.19	15024
870.32	15055
870.45	14971
870.58	15036
870.71	15199
870.84	15199
870.97	15161
871.1	15089
871.23	15351
871.36	15233
871.489	15279
871.619	15245
871.749	15306
871.879	15287
872.008	15504
872.138	15382
872.267	15363
872.397	15306
872.526	15112
872.656	15188
872.785	15203
872.915	15310
873.044	15439
873.173	15355
873.303	15435
873.432	15393
873.561	15435
873.69	15294
873.819	15256
873.948	15469
874.077	15340
874.206	15310
874.335	15340
874.464	15671
874.593	15610
874.722	15599
874.851	15675
874.979	15701
875.108	15705
875.237	15622
875.365	15595
875.494	15622
875.623	15682
875.751	15663
875.88	15698
876.008	15816
876.136	15880
876.265	16147
876.393	16234
876.521	16059
876.65	16211
876.778	16177
876.906	16013
877.034	16017
877.162	16124
877.29	16055
877.418	16101
877.546	16021
877.674	16044
877.802	16036
877.93	16093
878.058	16188
878.185	15956
878.313	16120
878.441	16082
878.568	16010
878.696	16013
878.824	16238
878.951	16207
879.079	16234
879.206	16436
879.333	16306
879.461	16093
879.588	16310
879.715	16386
879.842	16432
879.97	16154
880.097	15918
880.224	15888
880.351	15922
880.478	16010
880.605	15838
880.732	15922
880.859	16128
880.986	16124
881.112	16036
881.239	15899
881.366	15682
881.493	15610
881.619	15682
881.746	15603
881.872	15523
881.999	15584
882.125	15564
882.252	15644
882.378	15606
882.505	15633
882.631	15462
882.757	15386
882.883	15488
883.01	15374
883.136	15473
883.262	15359
883.388	15283
883.514	15492
883.64	15458
883.766	15367
883.892	15313
884.018	15298
884.143	15431
884.269	15435
884.395	15268
884.52	15100
884.646	15188
884.772	15047
884.897	14986
885.023	15188
885.148	15180
885.274	15203
885.399	15176
885.524	15119
885.65	15020
885.775	15146
885.9	15070
886.025	15199
886.15	15233
886.275	15100
886.4	15001
886.525	15123
886.65	15081
886.775	14982
886.9	15264
887.025	15363
887.149	15104
887.274	15032
887.399	14933
887.523	14990
887.648	14804
887.773	14921
887.897	15074
888.021	15055
888.146	14868
888.27	15032
888.395	15051
888.519	14994
888.643	14956
888.767	15009
888.891	14891
889.015	14758
889.139	14872
889.263	14762
889.387	14914
889.511	15070
889.635	14868
889.759	14754
889.883	14796
890.006	14880
890.13	14876
890.254	14754
890.377	14648
890.501	14705
890.624	14514
890.748	14686
890.871	14625
890.995	14446
891.118	14465
891.241	14412
891.364	14503
891.488	14514
891.611	14518
891.734	14473
891.857	14533
891.98	14522
892.103	14446
892.226	14568
892.349	14514
892.471	14290
892.594	14571
892.717	14533
892.839	14423
892.962	14446
893.085	14526
893.207	14442
893.33	14473
893.452	14434
893.575	14537
893.697	14473
893.819	14606
893.941	14636
894.064	14632
894.186	14495
894.308	14412
894.43	14632
894.552	14613
894.674	14598
894.796	14476
894.918	14495
895.04	14533
895.161	14644
895.283	14610
895.405	14568
895.526	14625
895.648	14568
895.769	14571
895.891	14640
896.012	14640
896.134	14716
896.255	14537
896.376	14549
896.498	14659
896.619	14670
896.74	14651
896.861	14743
896.982	14933
897.103	15036
897.224	14971
897.345	14986
897.466	14918
897.587	14899
897.708	15039
897.828	14918
897.949	14785
898.07	14746
898.19	14887
898.311	15036
898.431	14895
898.552	14986
898.672	15017
898.792	15070
898.913	15024
899.033	14948
899.153	14906
899.273	14735
899.393	14788
899.513	14689
899.633	14842
899.753	14864
899.873	14689
899.993	14918
900.113	14788
900.232	14834
900.352	14857
900.472	14674
900.591	14640
900.711	14629
900.83	14492
900.95	14739
901.069	14785
901.189	14629
901.308	14412
901.427	14229
901.546	14305
901.665	14290
901.784	14362
901.904	14210
902.023	14153
902.141	13970
902.26	13967
902.379	14016
902.498	13814
902.617	13868
902.735	13997
902.854	13894
902.973	13856
903.091	13689
903.21	13594
903.328	13571
903.446	13582
903.565	13468
903.683	13426
903.801	13430
903.919	13556
904.038	13415
904.156	13301
904.274	13343
904.392	13187
904.51	13270
904.627	13289
904.745	13327
904.863	13316
904.981	13152
905.098	12977
905.216	12935
905.334	13084
905.451	12981
905.569	12966
905.686	12989
905.803	13057
905.921	12757
906.038	13019
906.155	12821
906.272	12646
906.389	12772
906.506	12654
906.623	12627
906.74	12585
906.857	12486
906.974	12555
907.091	12620
907.208	12696
907.324	12601
907.441	12540
907.557	12251
907.674	12338
907.79	12182
907.907	12289
908.023	12220
908.139	12304
908.256	12251
908.372	12327
908.488	12296
908.604	12140
908.72	12068
908.836	12019
908.952	12026
909.068	12079
909.184	12270
909.3	12083
909.415	12095
909.531	12034
909.647	11870
909.762	11859
909.878	11764
909.993	11843
910.108	11748
910.224	11821
910.339	11874
910.454	11767
910.57	11752
910.685	11604
910.8	11897
910.915	11847
911.03	11722
911.145	11566
911.259	11543
911.374	11558
911.489	11444
911.604	11349
911.718	11227
911.833	11242
911.947	11284
912.062	11147
912.176	11296
912.291	11307
912.405	11284
912.519	11551
912.633	11608
912.748	11360
912.862	11296
912.976	11231
913.09	11067
913.204	11117
913.318	11117
913.431	11322
913.545	11235
913.659	11197
913.772	11159
913.886	11045
914	11014
914.113	11128
914.226	11193
914.34	11064
914.453	10949
914.566	11018
914.68	10987
914.793	10946
914.906	10820
915.019	10748
915.132	10691
915.245	10793
915.358	10843
915.47	10786
915.583	10786
915.696	10809
915.809	10869
915.921	11003
916.034	10714
916.146	10733
916.259	10721
916.371	10850
916.483	10820
916.595	10729
916.708	10733
916.82	10790
916.932	10687
917.044	10641
917.156	10679
917.268	10588
917.38	10603
917.491	10554
917.603	10615
917.715	10603
917.826	10698
917.938	10626
918.049	10512
918.161	10523
918.272	10694
918.384	10755
918.495	10584
918.606	10516
918.717	10352
918.828	10424
918.939	10519
919.05	10375
919.161	10497
919.272	10295
919.383	10360
919.494	10531
919.604	10645
919.715	10497
919.826	10398
919.936	10436
920.047	10447
920.157	10531
920.267	10645
920.378	10527
920.488	10485
920.598	10660
920.708	10793
920.818	10675
920.928	10675
921.038	10809
921.148	10809
921.258	10577
921.368	10421
921.477	10348
921.587	10284
921.697	10181
921.806	10356
921.916	10238
922.025	10006
922.134	10010
922.244	10006
922.353	10036
922.462	9918
922.571	9884
922.68	9793
922.789	9705
922.898	9671
923.007	9679
923.116	9709
923.224	9667
923.333	9724
923.442	9644
923.55	9584
923.659	9660
923.767	9679
923.876	9603
923.984	9663
924.092	9542
924.201	9561
924.309	9618
924.417	9709
924.525	9534
924.633	9545
924.741	10303
924.849	9374
924.956	9534
925.064	9340
925.172	9306
925.279	9325
925.387	9344
925.494	9310
925.602	9507
925.709	9428
925.816	9249
925.924	9351
926.031	9545
926.138	9382
926.245	9526
926.352	9348
926.459	9420
926.566	9500
926.673	9291
926.779	9241
926.886	9112
926.993	9074
927.099	9104
927.206	8975
927.312	8944
927.419	9097
927.525	9013
927.631	9085
927.737	8986
927.843	8960
927.95	8815
928.056	8918
928.162	8960
928.267	8998
928.373	9603
928.479	9043
928.585	8914
928.69	8910
928.796	9001
928.901	8872
929.007	8727
929.112	8800
929.218	8883
929.323	8788
929.428	8826
929.533	8914
929.638	8735
929.743	8731
929.848	8792
929.953	8746
930.058	8655
930.163	8560
930.267	8446
930.372	8701
930.477	8522
930.581	8739
930.685	8606
930.79	8541
930.894	8488
930.998	8522
931.103	8613
931.207	8339
931.311	8248
931.415	8271
931.519	7993
931.623	7986
