Data from test_V78500241_296.txt Node
Date: Fri Mar 25 14:35:47 CST 2022
User: usil
Spectrometer: V785-0024
Trigger mode: 0
Integration Time (sec): 4.000000E-1
Scans to average: 1
Nonlinearity correction enabled: false
Boxcar width: 0
Storing dark spectrum: false
XAxis mode: Wavelengths
Number of Pixels in Spectrum: 1024
>>>>>Begin Spectral Data<<<<<
801.071	27188
801.214	27112
801.356	26823
801.499	26853
801.641	26644
801.783	26644
801.926	26743
802.068	26606
802.211	26461
802.353	26423
802.496	26202
802.638	26309
802.78	26172
802.923	26092
803.065	26092
803.208	25986
803.35	26267
803.492	26233
803.635	26263
803.777	26100
803.919	26305
804.061	26480
804.204	26275
804.346	26164
804.488	26081
804.63	26164
804.773	26077
804.915	26092
805.057	26339
805.199	26130
805.341	26267
805.483	26199
805.626	26214
805.768	25989
805.91	26153
806.052	26282
806.194	26187
806.336	26526
806.478	26294
806.62	26161
806.762	26271
806.904	26366
807.046	26682
807.188	26492
807.33	26648
807.472	26651
807.614	26526
807.756	26450
807.898	26423
808.04	26278
808.182	26343
808.324	26419
808.465	26499
808.607	26568
808.749	26853
808.891	26758
809.033	26967
809.174	26891
809.316	26587
809.458	26712
809.6	26861
809.741	26697
809.883	26678
810.025	26880
810.166	26960
810.308	26823
810.45	26830
810.591	26857
810.733	26644
810.875	26617
811.016	26579
811.158	26552
811.299	26697
811.441	26731
811.582	26781
811.724	26457
811.865	26533
812.007	26343
812.148	26514
812.29	26560
812.431	26712
812.573	26735
812.714	26861
812.855	27066
812.997	26979
813.138	27230
813.279	27096
813.421	27146
813.562	27055
813.703	26788
813.845	26853
813.986	26412
814.127	26244
814.268	26244
814.41	26248
814.551	26161
814.692	26290
814.833	26267
814.974	25898
815.115	26122
815.256	26005
815.397	25906
815.539	25978
815.68	25761
815.821	25811
815.962	25932
816.103	25849
816.244	25727
816.385	25514
816.526	25624
816.666	25403
816.807	25343
816.948	25232
817.089	25468
817.23	25206
817.371	25187
817.512	25312
817.653	25175
817.793	25244
817.934	25316
818.075	25209
818.216	25179
818.356	25168
818.497	25099
818.638	24943
818.778	24913
818.919	24951
819.06	25019
819.2	25114
819.341	25137
819.481	25019
819.622	25362
819.762	25453
819.903	25228
820.043	25293
820.184	25171
820.324	25122
820.465	25350
820.605	25232
820.746	25152
820.886	24996
821.026	25160
821.167	25175
821.307	25164
821.447	25012
821.588	24817
821.728	24886
821.868	24673
822.008	24669
822.149	24517
822.289	24494
822.429	24365
822.569	24315
822.709	24152
822.849	24041
822.99	23984
823.13	23973
823.27	23942
823.41	23756
823.55	23760
823.69	23828
823.83	23783
823.97	23703
824.11	23642
824.25	23570
824.389	23627
824.529	23638
824.669	23467
824.809	23726
824.949	23722
825.089	23653
825.228	23570
825.368	23379
825.508	23307
825.648	23379
825.787	23410
825.927	23414
826.067	23341
826.206	23383
826.346	23421
826.485	23391
826.625	23258
826.765	23474
826.904	23505
827.044	23121
827.183	23041
827.323	22885
827.462	23044
827.601	23067
827.741	22965
827.88	22980
828.02	22961
828.159	23052
828.298	23094
828.437	23170
828.577	23117
828.716	23086
828.855	23029
828.994	22755
829.134	22771
829.273	22733
829.412	22706
829.551	22615
829.69	22717
829.829	22664
829.968	22744
830.107	22839
830.246	22744
830.385	22649
830.524	22538
830.663	22641
830.802	22306
830.941	22219
831.08	22375
831.219	22500
831.357	22333
831.496	22455
831.635	22276
831.774	22105
831.913	22135
832.051	21983
832.19	22029
832.329	22078
832.467	21991
832.606	21903
832.744	21926
832.883	21846
833.022	21953
833.16	21930
833.299	22021
833.437	21956
833.576	21991
833.714	21918
833.852	21991
833.991	21945
834.129	22013
834.267	22044
834.406	21934
834.544	21895
834.682	21949
834.821	21827
834.959	22169
835.097	21873
835.235	21941
835.373	21884
835.511	21941
835.65	21816
835.788	21717
835.926	21614
836.064	21568
836.202	21606
836.34	21789
836.478	21865
836.615	21759
836.753	21880
836.891	21755
837.029	21827
837.167	21751
837.305	21690
837.443	21652
837.58	21614
837.718	21686
837.856	21633
837.993	21564
838.131	21606
838.269	21496
838.406	21572
838.544	21397
838.681	21241
838.819	21298
838.956	21100
839.094	21070
839.231	21131
839.369	21146
839.506	21462
839.643	21355
839.781	21112
839.918	20971
840.055	20963
840.193	20960
840.33	20880
840.467	21028
840.604	20883
840.742	21233
840.879	20796
841.016	20864
841.153	20868
841.29	21119
841.427	21024
841.564	21055
841.701	20921
841.838	20876
841.975	20853
842.112	20769
842.249	20731
842.385	20682
842.522	20777
842.659	20785
842.796	20674
842.933	20762
843.069	20632
843.206	20655
843.343	20762
843.479	20765
843.616	20705
843.752	20457
843.889	20579
844.025	20499
844.162	20480
844.298	20499
844.435	20454
844.571	20488
844.708	20499
844.844	20705
844.98	20549
845.117	20507
845.253	20339
845.389	20332
845.525	20366
845.661	20343
845.798	20267
845.934	20412
846.07	20263
846.206	20317
846.342	20434
846.478	20214
846.614	19978
846.75	19967
846.886	19909
847.022	19986
847.158	19890
847.294	19906
847.429	19894
847.565	19811
847.701	20092
847.837	19685
847.972	19578
848.108	19757
848.244	19708
848.379	19559
848.515	19430
848.65	19487
848.786	19422
848.921	19453
849.057	19529
849.192	19495
849.328	19468
849.463	19483
849.598	19381
849.734	19358
849.869	19274
850.004	19247
850.14	19293
850.275	19266
850.41	19133
850.545	19171
850.68	19133
850.815	19221
850.95	19129
851.085	19403
851.22	19225
851.355	19156
851.49	19190
851.625	19137
851.76	19080
851.895	19000
852.03	19091
852.165	19198
852.299	19221
852.434	19164
852.569	19145
852.703	19110
852.838	19301
852.973	19312
853.107	19339
853.242	19076
853.376	19031
853.511	18863
853.645	18913
853.78	19179
853.914	19057
854.048	19038
854.183	19019
854.317	18924
854.451	19148
854.585	19008
854.72	18875
854.854	19046
854.988	18871
855.122	18989
855.256	18829
855.39	19015
855.524	19107
855.658	19012
855.792	18943
855.926	18996
856.06	18973
856.194	19084
856.327	18970
856.461	18810
856.595	18814
856.729	19023
856.862	19072
856.996	19031
857.13	19110
857.263	19118
857.397	19027
857.53	18901
857.664	19046
857.797	18977
857.931	19050
858.064	18958
858.197	19095
858.331	18886
858.464	18787
858.597	18825
858.731	18947
858.864	18916
858.997	18859
859.13	18935
859.263	18989
859.396	19031
859.529	18810
859.662	18916
859.795	18848
859.928	18993
860.061	19046
860.194	19023
860.327	18989
860.46	18947
860.592	18981
860.725	18943
860.858	18920
860.99	18856
861.123	18825
861.256	18779
861.388	18867
861.521	19586
861.653	18829
861.786	18688
861.918	18817
862.05	18802
862.183	18817
862.315	19015
862.447	19023
862.58	18943
862.712	18745
862.844	18669
862.976	18802
863.108	18734
863.24	19065
863.372	18410
863.504	18722
863.636	18642
863.768	18719
863.9	18601
864.032	18597
864.164	18639
864.296	18654
864.428	18764
864.559	18722
864.691	18700
864.823	18616
864.954	18661
865.086	18570
865.217	18589
865.349	18509
865.48	18631
865.612	18601
865.743	18608
865.875	18513
866.006	18547
866.137	18578
866.269	18559
866.4	18521
866.531	18536
866.662	18486
866.793	18490
866.924	18483
867.055	18593
867.186	18479
867.317	18528
867.448	18456
867.579	18395
867.71	18403
867.841	18559
867.972	18574
868.103	18460
868.233	18506
868.364	18334
868.495	18604
868.625	18783
868.756	18776
868.886	18582
869.017	18707
869.147	18791
869.278	18787
869.408	18791
869.539	18795
869.669	18787
869.799	18692
869.929	18825
870.06	18837
870.19	19114
870.32	19000
870.45	19114
870.58	19183
870.71	19145
870.84	19175
870.97	19095
871.1	19031
871.23	19263
871.36	19396
871.489	19137
871.619	19251
871.749	19320
871.879	19369
872.008	19445
872.138	19324
872.267	19282
872.397	19202
872.526	19114
872.656	19137
872.785	19069
872.915	19240
873.044	19578
873.173	19282
873.303	19400
873.432	19396
873.561	19358
873.69	19445
873.819	19411
873.948	19350
874.077	19369
874.206	19343
874.335	19320
874.464	19556
874.593	19666
874.722	19601
874.851	19578
874.979	19613
875.108	19582
875.237	19624
875.365	19483
875.494	19567
875.623	19708
875.751	19616
875.88	19605
876.008	19742
876.136	19784
876.265	20024
876.393	20081
876.521	20134
876.65	20100
876.778	20027
876.906	19868
877.034	19959
877.162	19986
877.29	20100
877.418	20142
877.546	20024
877.674	20001
877.802	19951
877.93	19986
878.058	20005
878.185	19871
878.313	20092
878.441	19970
878.568	19868
878.696	19967
878.824	20001
878.951	20187
879.079	20111
879.206	20351
879.333	20225
879.461	20043
879.588	20149
879.715	20275
879.842	20358
879.97	20199
880.097	19921
880.224	19917
880.351	19803
880.478	19898
880.605	19818
880.732	19791
880.859	20020
880.986	19841
881.112	19887
881.239	19742
881.366	19609
881.493	19518
881.619	19491
881.746	19510
881.872	19384
881.999	19495
882.125	19514
882.252	19533
882.378	19434
882.505	19491
882.631	19339
882.757	19263
882.883	19365
883.01	19194
883.136	19247
883.262	19065
883.388	19156
883.514	19297
883.64	19331
883.766	19225
883.892	19072
884.018	19069
884.143	19126
884.269	19392
884.395	18905
884.52	18867
884.646	18913
884.772	18806
884.897	18783
885.023	18939
885.148	19027
885.274	19099
885.399	18916
885.524	18924
885.65	18890
885.775	18951
885.9	18859
886.025	18882
886.15	19008
886.275	18798
886.4	18840
886.525	18802
886.65	18821
886.775	18734
886.9	18852
887.025	19110
887.149	18863
887.274	18817
887.399	18707
887.523	18627
887.648	18669
887.773	18589
887.897	18726
888.021	18745
888.146	18612
888.27	18711
888.395	18844
888.519	18696
888.643	18692
888.767	18753
888.891	18540
889.015	18410
889.139	18521
889.263	18452
889.387	18570
889.511	18525
889.635	18627
889.759	18445
889.883	18502
890.006	18384
890.13	18460
890.254	18353
890.377	18376
890.501	18266
890.624	18095
890.748	18186
890.871	18106
890.995	18034
891.118	17961
891.241	18110
891.364	18091
891.488	18159
891.611	18057
891.734	18159
891.857	17992
891.98	18072
892.103	18194
892.226	18087
892.349	18030
892.471	17973
892.594	17965
892.717	17977
892.839	18026
892.962	17961
893.085	18064
893.207	17939
893.33	17783
893.452	17992
893.575	18041
893.697	17946
893.819	18224
893.941	18190
894.064	18129
894.186	17893
894.308	17969
894.43	18045
894.552	18087
894.674	18041
894.796	17916
894.918	17908
895.04	17935
895.161	18117
895.283	18076
895.405	18015
895.526	18015
895.648	17950
895.769	18038
895.891	18019
896.012	18098
896.134	17996
896.255	18053
896.376	18072
896.498	18011
896.619	18121
896.74	18098
896.861	18186
896.982	18357
897.103	18551
897.224	18384
897.345	18308
897.466	18258
897.587	18357
897.708	18281
897.828	18205
897.949	18228
898.07	18117
898.19	18209
898.311	18304
898.431	18361
898.552	18266
898.672	18380
898.792	18414
898.913	18300
899.033	18114
899.153	18064
899.273	17999
899.393	18068
899.513	18041
899.633	18148
899.753	18038
899.873	18057
899.993	18049
900.113	18022
900.232	18083
900.352	18015
900.472	18007
900.591	17863
900.711	17965
900.83	17756
900.95	17961
901.069	18034
901.189	17851
901.308	17653
901.427	17619
901.546	17497
901.665	17467
901.784	17512
901.904	17391
902.023	17296
902.141	17090
902.26	17037
902.379	17140
902.498	17037
902.617	16957
902.735	16953
902.854	17003
902.973	16900
903.091	16797
903.21	16698
903.328	16767
903.446	16561
903.565	16527
903.683	16596
903.801	16394
903.919	16519
904.038	16565
904.156	16280
904.274	16409
904.392	16352
904.51	16291
904.627	16325
904.745	16417
904.863	16303
904.981	16109
905.098	15964
905.216	15934
905.334	16010
905.451	15956
905.569	15850
905.686	15975
905.803	15926
905.921	15751
906.038	15930
906.155	15785
906.272	15648
906.389	15656
906.506	15473
906.623	15519
906.74	15492
906.857	15416
906.974	15530
907.091	15591
907.208	15584
907.324	15587
907.441	15382
907.557	15275
907.674	15237
907.79	15230
907.907	15180
908.023	15283
908.139	15214
908.256	15131
908.372	15112
908.488	15123
908.604	15055
908.72	14838
908.836	14979
908.952	14883
909.068	14929
909.184	15055
909.3	14899
909.415	14967
909.531	14902
909.647	14693
909.762	14678
909.878	14648
909.993	14598
910.108	14625
910.224	14575
910.339	14571
910.454	14457
910.57	14507
910.685	14427
910.8	14651
910.915	14598
911.03	14408
911.145	14328
911.259	14183
911.374	14180
911.489	14168
911.604	14073
911.718	14050
911.833	14024
911.947	13875
912.062	13837
912.176	13997
912.291	13967
912.405	13997
912.519	14149
912.633	14164
912.748	14012
912.862	13944
912.976	13830
913.09	13753
913.204	13750
913.318	13849
913.431	13860
913.545	13902
913.659	13932
913.772	13852
913.886	13765
914	13693
914.113	13689
914.226	13826
914.34	13712
914.453	13647
914.566	13651
914.68	13639
914.793	13582
914.906	13350
915.019	13316
915.132	13198
915.245	13358
915.358	13301
915.47	13320
915.583	13301
915.696	13343
915.809	13422
915.921	13563
916.034	13293
916.146	13221
916.259	13270
916.371	13285
916.483	13327
916.595	13156
916.708	13240
916.82	13145
916.932	13160
917.044	13171
917.156	13202
917.268	12981
917.38	13031
917.491	12962
917.603	12996
917.715	12989
917.826	13072
917.938	12981
918.049	12943
918.161	12985
918.272	13175
918.384	13145
918.495	13053
918.606	12867
918.717	12764
918.828	12817
918.939	12829
919.05	12692
919.161	12795
919.272	12547
919.383	12604
919.494	12852
919.604	12970
919.715	12886
919.826	12703
919.936	12734
920.047	12844
920.157	12806
920.267	12913
920.378	12772
920.488	12768
920.598	12973
920.708	13080
920.818	12913
920.928	12875
921.038	13042
921.148	13000
921.258	12779
921.368	12700
921.477	12585
921.587	12540
921.697	12384
921.806	12608
921.916	12395
922.025	12277
922.134	12205
922.244	12201
922.353	12197
922.462	12117
922.571	12034
922.68	11897
922.789	11794
922.898	11920
923.007	11824
923.116	11843
923.224	11824
923.333	11809
923.442	11707
923.55	11733
923.659	11703
923.767	11870
923.876	11691
923.984	11729
924.092	11539
924.201	11756
924.309	11657
924.417	11657
924.525	11604
924.633	11657
924.741	12601
924.849	11429
924.956	11528
925.064	11433
925.172	11402
925.279	11280
925.387	11421
925.494	11353
925.602	11516
925.709	11452
925.816	11311
925.924	11330
926.031	11414
926.138	11277
926.245	11429
926.352	11223
926.459	11406
926.566	11444
926.673	11212
926.779	11185
926.886	11098
926.993	11067
927.099	10927
927.206	10991
927.312	11029
927.419	10946
927.525	11022
927.631	11086
927.737	10976
927.843	10919
927.95	10702
928.056	10862
928.162	10885
928.267	10873
928.373	11455
928.479	10908
928.585	10725
928.69	10824
928.796	10843
928.901	10793
929.007	10527
929.112	10710
929.218	10687
929.323	10607
929.428	10588
929.533	10801
929.638	10523
929.743	10546
929.848	10615
929.953	10596
930.058	10447
930.163	10379
930.267	10322
930.372	10371
930.477	10306
930.581	10497
930.685	10363
930.79	10192
930.894	10246
930.998	10112
931.103	10341
931.207	10021
931.311	9884
931.415	9743
931.519	9637
931.623	9568
