Data from test_V78500241_2836.txt Node
Date: Fri Mar 25 14:53:27 CST 2022
User: usil
Spectrometer: V785-0024
Trigger mode: 0
Integration Time (sec): 4.000000E-1
Scans to average: 1
Nonlinearity correction enabled: false
Boxcar width: 0
Storing dark spectrum: false
XAxis mode: Wavelengths
Number of Pixels in Spectrum: 1024
>>>>>Begin Spectral Data<<<<<
801.071	22116
801.214	21880
801.356	21686
801.499	21755
801.641	21511
801.783	21473
801.926	21534
802.068	21386
802.211	21302
802.353	21226
802.496	21150
802.638	20948
802.78	20872
802.923	20777
803.065	20777
803.208	20765
803.35	20792
803.492	20815
803.635	20918
803.777	20765
803.919	20845
804.061	21131
804.204	20864
804.346	20712
804.488	20594
804.63	20773
804.773	20743
804.915	20762
805.057	20750
805.199	20640
805.341	20712
805.483	20746
805.626	20823
805.768	20678
805.91	20769
806.052	20590
806.194	20621
806.336	20716
806.478	20678
806.62	20594
806.762	20648
806.904	20941
807.046	21039
807.188	20994
807.33	21089
807.472	20948
807.614	20952
807.756	20933
807.898	20921
808.04	20727
808.182	20693
808.324	20716
808.465	20857
808.607	20796
808.749	21066
808.891	21112
809.033	21317
809.174	21116
809.316	20979
809.458	21062
809.6	21089
809.741	21096
809.883	21093
810.025	21218
810.166	21230
810.308	21180
810.45	21161
810.591	21070
810.733	21024
810.875	20758
811.016	20659
811.158	20739
811.299	20811
811.441	20975
811.582	20883
811.724	20796
811.865	20724
812.007	20765
812.148	20887
812.29	20883
812.431	21017
812.573	21104
812.714	21207
812.855	21260
812.997	21412
813.138	21618
813.279	21355
813.421	21298
813.562	21237
813.703	21043
813.845	21039
813.986	20720
814.127	20484
814.268	20328
814.41	20461
814.551	20385
814.692	20431
814.833	20336
814.974	20252
815.115	20278
815.256	20172
815.397	20168
815.539	20267
815.68	20062
815.821	19890
815.962	20107
816.103	20088
816.244	19997
816.385	19864
816.526	19822
816.666	19628
816.807	19552
816.948	19578
817.089	19578
817.23	19571
817.371	19525
817.512	19434
817.653	19540
817.793	19533
817.934	19487
818.075	19552
818.216	19480
818.356	19419
818.497	19324
818.638	19145
818.778	19274
818.919	19107
819.06	19217
819.2	19381
819.341	19430
819.481	19354
819.622	19441
819.762	19624
819.903	19563
820.043	19487
820.184	19438
820.324	19518
820.465	19480
820.605	19510
820.746	19434
820.886	19293
821.026	19411
821.167	19282
821.307	19575
821.447	19422
821.588	19263
821.728	19240
821.868	19034
822.008	18920
822.149	18916
822.289	18863
822.429	18654
822.569	18574
822.709	18585
822.849	18319
822.99	18437
823.13	18395
823.27	18334
823.41	18194
823.55	18022
823.69	18174
823.83	18247
823.97	18091
824.11	18003
824.25	17954
824.389	17916
824.529	17999
824.669	17942
824.809	17961
824.949	18011
825.089	18060
825.228	17969
825.368	17779
825.508	17684
825.648	17737
825.787	17855
825.927	17729
826.067	17676
826.206	17756
826.346	17817
826.485	17737
826.625	17661
826.765	17935
826.904	17714
827.044	17512
827.183	17501
827.323	17353
827.462	17497
827.601	17478
827.741	17379
827.88	17501
828.02	17280
828.159	17334
828.298	17379
828.437	17478
828.577	17277
828.716	17573
828.855	17284
828.994	17220
829.134	17200
829.273	17258
829.412	17071
829.551	17223
829.69	17117
829.829	17098
829.968	17273
830.107	17197
830.246	17223
830.385	17010
830.524	17083
830.663	16930
830.802	16889
830.941	16767
831.08	16778
831.219	16873
831.357	16828
831.496	17037
831.635	16725
831.774	16573
831.913	16622
832.051	16493
832.19	16599
832.329	16702
832.467	16478
832.606	16493
832.744	16565
832.883	16379
833.022	16462
833.16	16523
833.299	16500
833.437	16519
833.576	16470
833.714	16626
833.852	16550
833.991	16561
834.129	16615
834.267	16603
834.406	16516
834.544	16538
834.682	16455
834.821	16630
834.959	16592
835.097	16554
835.235	16527
835.373	16596
835.511	16474
835.65	16424
835.788	16424
835.926	16200
836.064	16230
836.202	16268
836.34	16508
836.478	16485
836.615	16382
836.753	16500
836.891	16481
837.029	16432
837.167	16432
837.305	16322
837.443	16253
837.58	16272
837.718	16417
837.856	16398
837.993	16226
838.131	16318
838.269	16177
838.406	16230
838.544	16120
838.681	15994
838.819	15960
838.956	15842
839.094	15827
839.231	15945
839.369	15888
839.506	16207
839.643	16067
839.781	15857
839.918	15759
840.055	15934
840.193	15800
840.33	15679
840.467	15865
840.604	15865
840.742	16063
840.879	15652
841.016	15728
841.153	15770
841.29	16006
841.427	15770
841.564	15922
841.701	15812
841.838	15835
841.975	15686
842.112	15785
842.249	15720
842.385	15599
842.522	15671
842.659	15709
842.796	15507
842.933	15625
843.069	15496
843.206	15618
843.343	15694
843.479	15728
843.616	15576
843.752	15492
843.889	15393
844.025	15549
844.162	15351
844.298	15538
844.435	15408
844.571	15370
844.708	15488
844.844	15587
844.98	15469
845.117	15416
845.253	15447
845.389	15188
845.525	15313
845.661	15237
845.798	15214
845.934	15279
846.07	15123
846.206	15199
846.342	15272
846.478	15222
846.614	15123
846.75	15017
846.886	14994
847.022	15104
847.158	14952
847.294	15013
847.429	15009
847.565	14986
847.701	15226
847.837	14701
847.972	14716
848.108	14830
848.244	14830
848.379	14560
848.515	14594
848.65	14583
848.786	14522
848.921	14590
849.057	14625
849.192	14769
849.328	14590
849.463	14518
849.598	14499
849.734	14488
849.869	14507
850.004	14362
850.14	14377
850.275	14355
850.41	14328
850.545	14298
850.68	14244
850.815	14313
850.95	14366
851.085	14511
851.22	14480
851.355	14358
851.49	14309
851.625	14294
851.76	14362
851.895	14176
852.03	14176
852.165	14385
852.299	14389
852.434	14438
852.569	14336
852.703	14294
852.838	14419
852.973	14514
853.107	14457
853.242	14267
853.376	14221
853.511	14164
853.645	14153
853.78	14324
853.914	14256
854.048	14191
854.183	14180
854.317	14221
854.451	14438
854.585	14221
854.72	14256
854.854	14256
854.988	14153
855.122	14164
855.256	14050
855.39	14161
855.524	14259
855.658	14282
855.792	14221
855.926	14324
856.06	14290
856.194	14370
856.327	14298
856.461	14271
856.595	14183
856.729	14259
856.862	14252
856.996	14351
857.13	14339
857.263	14294
857.397	14298
857.53	14240
857.664	14271
857.797	14191
857.931	14347
858.064	14210
858.197	14263
858.331	14271
858.464	14218
858.597	14142
858.731	14286
858.864	14126
858.997	14176
859.13	14134
859.263	14229
859.396	14275
859.529	14240
859.662	14180
859.795	14176
859.928	14183
860.061	14431
860.194	14324
860.327	14263
860.46	14142
860.592	14233
860.725	14332
860.858	14396
860.99	14240
861.123	14084
861.256	14199
861.388	14172
861.521	14883
861.653	14046
861.786	14054
861.918	14073
862.05	14100
862.183	14126
862.315	14149
862.447	14267
862.58	14202
862.712	14062
862.844	13925
862.976	14050
863.108	14096
863.24	14431
863.372	13936
863.504	14016
863.636	13982
863.768	14024
863.9	14088
864.032	13989
864.164	13947
864.296	13997
864.428	14081
864.559	14073
864.691	14027
864.823	14065
864.954	13989
865.086	13974
865.217	13883
865.349	13906
865.48	13955
865.612	13978
865.743	14142
865.875	14012
866.006	13963
866.137	14092
866.269	14016
866.4	13909
866.531	13963
866.662	13928
866.793	13887
866.924	13955
867.055	13993
867.186	13970
867.317	13928
867.448	13940
867.579	13902
867.71	13936
867.841	13890
867.972	14008
868.103	13955
868.233	13913
868.364	14024
868.495	14096
868.625	14164
868.756	14286
868.886	14119
869.017	14107
869.147	14370
869.278	14362
869.408	14229
869.539	14259
869.669	14282
869.799	14237
869.929	14358
870.06	14400
870.19	14545
870.32	14484
870.45	14583
870.58	14640
870.71	14777
870.84	14792
870.97	14583
871.1	14575
871.23	14769
871.36	14857
871.489	14731
871.619	14773
871.749	14773
871.879	14807
872.008	14872
872.138	14788
872.267	14887
872.397	14689
872.526	14655
872.656	14644
872.785	14648
872.915	14849
873.044	14914
873.173	14929
873.303	14826
873.432	14906
873.561	14960
873.69	14914
873.819	14857
873.948	14918
874.077	14941
874.206	14842
874.335	14948
874.464	15043
874.593	15256
874.722	15074
874.851	15222
874.979	15252
875.108	15135
875.237	15112
875.365	15138
875.494	15184
875.623	15195
875.751	15108
875.88	15157
876.008	15348
876.136	15477
876.265	15561
876.393	15682
876.521	15747
876.65	15663
876.778	15663
876.906	15625
877.034	15485
877.162	15633
877.29	15606
877.418	15633
877.546	15584
877.674	15595
877.802	15614
877.93	15648
878.058	15561
878.185	15538
878.313	15507
878.441	15622
878.568	15329
878.696	15549
878.824	15614
878.951	15694
879.079	15732
879.206	15861
879.333	15800
879.461	15618
879.588	15774
879.715	15800
879.842	15819
879.97	15667
880.097	15469
880.224	15393
880.351	15481
880.478	15435
880.605	15481
880.732	15481
880.859	15584
880.986	15447
881.112	15458
881.239	15363
881.366	15226
881.493	15211
881.619	15039
881.746	15119
881.872	15218
881.999	15070
882.125	15157
882.252	15093
882.378	15180
882.505	15291
882.631	15131
882.757	14956
882.883	14986
883.01	14952
883.136	14880
883.262	14807
883.388	14792
883.514	14998
883.64	14994
883.766	14952
883.892	14701
884.018	14781
884.143	14891
884.269	14982
884.395	14655
884.52	14613
884.646	14659
884.772	14560
884.897	14556
885.023	14587
885.148	14701
885.274	14861
885.399	14754
885.524	14670
885.65	14686
885.775	14674
885.9	14545
886.025	14724
886.15	14648
886.275	14590
886.4	14564
886.525	14594
886.65	14579
886.775	14568
886.9	14758
887.025	14815
887.149	14613
887.274	14442
887.399	14377
887.523	14438
887.648	14366
887.773	14320
887.897	14590
888.021	14514
888.146	14454
888.27	14598
888.395	14545
888.519	14560
888.643	14537
888.767	14579
888.891	14400
889.015	14317
889.139	14370
889.263	14320
889.387	14488
889.511	14571
889.635	14514
889.759	14305
889.883	14305
890.006	14294
890.13	14415
890.254	14214
890.377	14347
890.501	14130
890.624	14039
890.748	14286
890.871	14046
890.995	14016
891.118	14001
891.241	14081
891.364	14126
891.488	14180
891.611	14062
891.734	14073
891.857	14088
891.98	14054
892.103	14199
892.226	14043
892.349	14005
892.471	13906
892.594	14126
892.717	14050
892.839	14016
892.962	13906
893.085	14138
893.207	13989
893.33	13856
893.452	13959
893.575	14115
893.697	13997
893.819	14187
893.941	14282
894.064	14244
894.186	14050
894.308	14005
894.43	14183
894.552	14229
894.674	14157
894.796	14031
894.918	14077
895.04	14035
895.161	14210
895.283	14183
895.405	14024
895.526	13986
895.648	14107
895.769	14233
895.891	14214
896.012	14195
896.134	14267
896.255	14256
896.376	14187
896.498	14267
896.619	14195
896.74	14069
896.861	14263
896.982	14583
897.103	14739
897.224	14503
897.345	14499
897.466	14446
897.587	14492
897.708	14610
897.828	14461
897.949	14446
898.07	14366
898.19	14446
898.311	14499
898.431	14385
898.552	14632
898.672	14678
898.792	14629
898.913	14499
899.033	14541
899.153	14457
899.273	14286
899.393	14351
899.513	14358
899.633	14495
899.753	14465
899.873	14412
899.993	14446
900.113	14427
900.232	14522
900.352	14301
900.472	14355
900.591	14218
900.711	14427
900.83	14305
900.95	14431
901.069	14495
901.189	14176
901.308	13989
901.427	13940
901.546	13932
901.665	13959
901.784	13944
901.904	13868
902.023	13727
902.141	13559
902.26	13537
902.379	13552
902.498	13632
902.617	13476
902.735	13548
902.854	13460
902.973	13422
903.091	13255
903.21	13240
903.328	13285
903.446	13152
903.565	13053
903.683	13251
903.801	13004
903.919	13000
904.038	13053
904.156	12935
904.274	13023
904.392	12913
904.51	12897
904.627	12871
904.745	12859
904.863	12989
904.981	12707
905.098	12532
905.216	12650
905.334	12669
905.451	12566
905.569	12578
905.686	12650
905.803	12608
905.921	12464
906.038	12429
906.155	12418
906.272	12300
906.389	12323
906.506	12182
906.623	12281
906.74	12277
906.857	12129
906.974	12083
907.091	12182
907.208	12311
907.324	12239
907.441	12148
907.557	11912
907.674	11920
907.79	11786
907.907	11912
908.023	11939
908.139	12019
908.256	11897
908.372	11882
908.488	11885
908.604	11767
908.72	11668
908.836	11691
908.952	11722
909.068	11824
909.184	11821
909.3	11726
909.415	11843
909.531	11733
909.647	11509
909.762	11493
909.878	11474
909.993	11474
910.108	11520
910.224	11395
910.339	11505
910.454	11482
910.57	11356
910.685	11322
910.8	11554
910.915	11543
911.03	11376
911.145	11140
911.259	11174
911.374	11185
911.489	11151
911.604	11048
911.718	10946
911.833	10968
911.947	10858
912.062	10786
912.176	10873
912.291	10862
912.405	10980
912.519	11143
912.633	11105
912.748	10987
912.862	10885
912.976	10820
913.09	10721
913.204	10831
913.318	10774
913.431	10858
913.545	10908
913.659	10904
913.772	10835
913.886	10634
914	10634
914.113	10782
914.226	10809
914.34	10782
914.453	10596
914.566	10748
914.68	10649
914.793	10580
914.906	10485
915.019	10382
915.132	10344
915.245	10462
915.358	10443
915.47	10504
915.583	10554
915.696	10459
915.809	10561
915.921	10569
916.034	10451
916.146	10398
916.259	10367
916.371	10451
916.483	10390
916.595	10371
916.708	10329
916.82	10356
916.932	10390
917.044	10333
917.156	10356
917.268	10246
917.38	10333
917.491	10207
917.603	10337
917.715	10341
917.826	10363
917.938	10257
918.049	10211
918.161	10238
918.272	10428
918.384	10432
918.495	10318
918.606	10166
918.717	10078
918.828	10150
918.939	10135
919.05	10116
919.161	10128
919.272	9899
919.383	9968
919.494	10211
919.604	10341
919.715	10162
919.826	10101
919.936	10105
920.047	10230
920.157	10200
920.267	10367
920.378	10120
920.488	10181
920.598	10367
920.708	10459
920.818	10360
920.928	10455
921.038	10599
921.148	10421
921.258	10227
921.368	10067
921.477	10059
921.587	9987
921.697	9869
921.806	10048
921.916	9949
922.025	9770
922.134	9690
922.244	9701
922.353	9804
922.462	9690
922.571	9526
922.68	9401
922.789	9424
922.898	9496
923.007	9420
923.116	9481
923.224	9405
923.333	9420
923.442	9336
923.55	9294
923.659	9317
923.767	9412
923.876	9253
923.984	9389
924.092	9291
924.201	9260
924.309	9306
924.417	9317
924.525	9260
924.633	9233
924.741	10143
924.849	9127
924.956	9264
925.064	9058
925.172	8982
925.279	8979
925.387	9146
925.494	9089
925.602	9138
925.709	9207
925.816	9020
925.924	9081
926.031	9150
926.138	9085
926.245	9131
926.352	8982
926.459	9062
926.566	9173
926.673	9058
926.779	8963
926.886	9001
926.993	8819
927.099	8796
927.206	8739
927.312	8705
927.419	8876
927.525	8796
927.631	8864
927.737	8735
927.843	8693
927.95	8621
928.056	8712
928.162	8724
928.267	8739
928.373	9237
928.479	8834
928.585	8545
928.69	8701
928.796	8739
928.901	8644
929.007	8518
929.112	8659
929.218	8583
929.323	8549
929.428	8480
929.533	8613
929.638	8473
929.743	8454
929.848	8537
929.953	8571
930.058	8396
930.163	8313
930.267	8317
930.372	8434
930.477	8275
930.581	8465
930.685	8343
930.79	8202
930.894	8256
930.998	8244
931.103	8389
931.207	7989
931.311	7967
931.415	7955
931.519	7750
931.623	7693
