Data from test_V78500241_733.txt Node
Date: Fri Mar 25 14:38:49 CST 2022
User: usil
Spectrometer: V785-0024
Trigger mode: 0
Integration Time (sec): 4.000000E-1
Scans to average: 1
Nonlinearity correction enabled: false
Boxcar width: 0
Storing dark spectrum: false
XAxis mode: Wavelengths
Number of Pixels in Spectrum: 1024
>>>>>Begin Spectral Data<<<<<
801.071	27214
801.214	27363
801.356	27028
801.499	26948
801.641	26758
801.783	26678
801.926	26727
802.068	26609
802.211	26602
802.353	26518
802.496	26290
802.638	26240
802.78	26176
802.923	26077
803.065	26126
803.208	26134
803.35	26195
803.492	26317
803.635	26290
803.777	26244
803.919	26427
804.061	26724
804.204	26446
804.346	26347
804.488	26195
804.63	26400
804.773	26294
804.915	26644
805.057	26769
805.199	26724
805.341	26773
805.483	26925
805.626	26982
805.768	26834
805.91	27005
806.052	27154
806.194	27294
806.336	27652
806.478	27751
806.62	27869
806.762	28226
806.904	28698
807.046	29368
807.188	29543
807.33	29996
807.472	30540
807.614	31274
807.756	32301
807.898	33260
808.04	34816
808.182	36951
808.324	39884
808.465	43084
808.607	46363
808.749	49434
808.891	51146
809.033	51488
809.174	49784
809.316	46626
809.458	43118
809.6	39485
809.741	36650
809.883	34379
810.025	32853
810.166	31601
810.308	30859
810.45	30098
810.591	29604
810.733	28991
810.875	28687
811.016	28128
811.158	28002
811.299	27926
811.441	27759
811.582	27591
811.724	27386
811.865	27233
812.007	27104
812.148	27222
812.29	27112
812.431	27176
812.573	27222
812.714	27260
812.855	27256
812.997	27401
813.138	27496
813.279	27192
813.421	27230
813.562	27047
813.703	26960
813.845	26621
813.986	26396
814.127	26058
814.268	26065
814.41	25978
814.551	25841
814.692	25947
814.833	25791
814.974	25906
815.115	25719
815.256	25712
815.397	25632
815.539	25544
815.68	25525
815.821	25434
815.962	25609
816.103	25365
816.244	25266
816.385	25065
816.526	25080
816.666	24806
816.807	24787
816.948	24749
817.089	24814
817.23	24837
817.371	24642
817.512	24646
817.653	24582
817.793	24661
817.934	24684
818.075	24760
818.216	24608
818.356	24688
818.497	24357
818.638	24384
818.778	24251
818.919	24315
819.06	24388
819.2	24502
819.341	24566
819.481	24479
819.622	24467
819.762	24810
819.903	24673
820.043	24544
820.184	24604
820.324	24563
820.465	24650
820.605	24448
820.746	24502
820.886	24296
821.026	24342
821.167	24292
821.307	24346
821.447	24342
821.588	24224
821.728	24007
821.868	23950
822.008	23783
822.149	23661
822.289	23699
822.429	23512
822.569	23334
822.709	23315
822.849	23170
822.99	23185
823.13	23071
823.27	23010
823.41	22984
823.55	22869
823.69	22957
823.83	22942
823.97	22816
824.11	22706
824.25	22584
824.389	22725
824.529	22733
824.669	22683
824.809	22778
824.949	22782
825.089	22729
825.228	22672
825.368	22443
825.508	22470
825.648	22577
825.787	22554
825.927	22577
826.067	22527
826.206	22394
826.346	22516
826.485	22443
826.625	22470
826.765	22550
826.904	22497
827.044	22291
827.183	22344
827.323	22177
827.462	22154
827.601	22017
827.741	22101
827.88	22158
828.02	21998
828.159	22048
828.298	22116
828.437	22219
828.577	21987
828.716	22257
828.855	22048
828.994	21964
829.134	21789
829.273	21953
829.412	21804
829.551	21808
829.69	21819
829.829	21759
829.968	21937
830.107	21835
830.246	21747
830.385	21675
830.524	21622
830.663	21637
830.802	21549
830.941	21408
831.08	21408
831.219	21443
831.357	21447
831.496	21625
831.635	21344
831.774	21313
831.913	21355
832.051	21116
832.19	21226
832.329	21408
832.467	21313
832.606	21161
832.744	21256
832.883	21393
833.022	21389
833.16	21469
833.299	21671
833.437	21774
833.576	21823
833.714	22112
833.852	22204
833.991	22375
834.129	22409
834.267	22394
834.406	22280
834.544	22303
834.682	22242
834.821	22051
834.959	22029
835.097	21846
835.235	21747
835.373	21629
835.511	21549
835.65	21268
835.788	21192
835.926	21093
836.064	21047
836.202	20921
836.34	21039
836.478	21241
836.615	21020
836.753	20944
836.891	21009
837.029	21058
837.167	20925
837.305	20773
837.443	20758
837.58	20792
837.718	20769
837.856	20735
837.993	20613
838.131	20758
838.269	20640
838.406	20724
838.544	20659
838.681	20278
838.819	20309
838.956	20339
839.094	20229
839.231	20271
839.369	20370
839.506	20507
839.643	20450
839.781	20237
839.918	20107
840.055	20187
840.193	20134
840.33	20065
840.467	20111
840.604	20149
840.742	20290
840.879	20077
841.016	20122
841.153	20088
841.29	20218
841.427	20168
841.564	20256
841.701	20138
841.838	20138
841.975	20001
842.112	20050
842.249	19963
842.385	20077
842.522	20153
842.659	19967
842.796	19940
842.933	20008
843.069	19875
843.206	19993
843.343	20157
843.479	20073
843.616	20164
843.752	20008
843.889	20031
844.025	20290
844.162	20168
844.298	20336
844.435	20389
844.571	20697
844.708	20861
844.844	21287
844.98	21823
845.117	22550
845.253	23455
845.389	25510
845.525	29246
845.661	35455
845.798	42711
845.934	48064
846.07	50107
846.206	48319
846.342	43331
846.478	36304
846.614	29950
846.75	26012
846.886	23672
847.022	22196
847.158	21359
847.294	20659
847.429	20358
847.565	19997
847.701	20164
847.837	19502
847.972	19438
848.108	19476
848.244	19422
848.379	19183
848.515	19061
848.65	18993
848.786	19023
848.921	19000
849.057	19027
849.192	19099
849.328	19088
849.463	18863
849.598	18894
849.734	18859
849.869	18681
850.004	18646
850.14	18627
850.275	18684
850.41	18639
850.545	18490
850.68	18654
850.815	18566
850.95	18551
851.085	18661
851.22	18658
851.355	18608
851.49	18616
851.625	18433
851.76	18517
851.895	18483
852.03	18498
852.165	18437
852.299	18555
852.434	18738
852.569	18650
852.703	18711
852.838	18757
852.973	18806
853.107	18875
853.242	18810
853.376	18646
853.511	18490
853.645	18730
853.78	18772
853.914	18878
854.048	18821
854.183	18859
854.317	18962
854.451	19015
854.585	18894
854.72	18821
854.854	18840
854.988	18696
855.122	18726
855.256	18452
855.39	18608
855.524	18642
855.658	18593
855.792	18578
855.926	18521
856.06	18578
856.194	18547
856.327	18467
856.461	18369
856.595	18338
856.729	18388
856.862	18608
856.996	18502
857.13	18582
857.263	18410
857.397	18467
857.53	18403
857.664	18346
857.797	18471
857.931	18494
858.064	18410
858.197	18464
858.331	18407
858.464	18239
858.597	18273
858.731	18273
858.864	18277
858.997	18235
859.13	18334
859.263	18277
859.396	18391
859.529	18178
859.662	18140
859.795	18258
859.928	18239
860.061	18376
860.194	18410
860.327	18194
860.46	18232
860.592	18247
860.725	18315
860.858	18342
860.99	18289
861.123	18068
861.256	18182
861.388	18224
861.521	18886
861.653	18098
861.786	18030
861.918	18083
862.05	18095
862.183	18136
862.315	18171
862.447	18239
862.58	18152
862.712	17878
862.844	17927
862.976	17965
863.108	18045
863.24	18330
863.372	17809
863.504	17901
863.636	17809
863.768	17977
863.9	17912
864.032	17748
864.164	17722
864.296	17950
864.428	17942
864.559	17946
864.691	17901
864.823	17923
864.954	17999
865.086	17851
865.217	17847
865.349	17684
865.48	17718
865.612	17855
865.743	17920
865.875	17851
866.006	17737
866.137	17733
866.269	17836
866.4	17836
866.531	17855
866.662	17699
866.793	17775
866.924	17851
867.055	17726
867.186	17726
867.317	17771
867.448	17653
867.579	17813
867.71	17657
867.841	17756
867.972	17752
868.103	17748
868.233	17824
868.364	17710
868.495	17878
868.625	17954
868.756	18182
868.886	18034
869.017	18079
869.147	18171
869.278	18159
869.408	18015
869.539	17996
869.669	18163
869.799	18041
869.929	18247
870.06	18254
870.19	18448
870.32	18285
870.45	18467
870.58	18452
870.71	18544
870.84	18646
870.97	18475
871.1	18452
871.23	18642
871.36	18639
871.489	18612
871.619	18684
871.749	18787
871.879	18825
872.008	18749
872.138	18768
872.267	18810
872.397	18684
872.526	18669
872.656	18669
872.785	18852
872.915	18867
873.044	18909
873.173	18947
873.303	18924
873.432	19141
873.561	19107
873.69	18962
873.819	19069
873.948	19152
874.077	19091
874.206	19053
874.335	19217
874.464	19320
874.593	19392
874.722	19495
874.851	19544
874.979	19582
875.108	19681
875.237	19575
875.365	19495
875.494	19727
875.623	19868
875.751	19772
875.88	19894
876.008	20027
876.136	20206
876.265	20408
876.393	20488
876.521	20537
876.65	20632
876.778	20590
876.906	20602
877.034	20739
877.162	20781
877.29	20788
877.418	20960
877.546	21104
877.674	21176
877.802	21321
877.93	21306
878.058	21450
878.185	21819
878.313	22135
878.441	22436
878.568	22748
878.696	23299
878.824	24247
878.951	25343
879.079	27100
879.206	29311
879.333	31464
879.461	33055
879.588	34390
879.715	34299
879.842	33367
879.97	31472
880.097	29220
880.224	27412
880.351	26305
880.478	25331
880.605	24726
880.732	24270
880.859	24323
880.986	23824
881.112	23798
881.239	23596
881.366	23474
881.493	23391
881.619	23250
881.746	23395
881.872	23315
881.999	23414
882.125	23398
882.252	23577
882.378	23486
882.505	23699
882.631	23581
882.757	23482
882.883	23463
883.01	23398
883.136	23280
883.262	23143
883.388	23166
883.514	23410
883.64	23474
883.766	23258
883.892	23098
884.018	23185
884.143	23414
884.269	23364
884.395	23223
884.52	23159
884.646	23200
884.772	23132
884.897	22972
885.023	23261
885.148	23250
885.274	23064
885.399	22957
885.524	22866
885.65	22862
885.775	22729
885.9	22451
886.025	22462
886.15	22333
886.275	22070
886.4	21781
886.525	21732
886.65	21496
886.775	21492
886.9	21450
887.025	21386
887.149	21085
887.274	20777
887.399	20785
887.523	20705
887.648	20545
887.773	20389
887.897	20423
888.021	20309
888.146	20298
888.27	20343
888.395	20339
888.519	20103
888.643	20138
888.767	20122
888.891	19989
889.015	19757
889.139	19769
889.263	19571
889.387	19658
889.511	19799
889.635	19719
889.759	19510
889.883	19457
890.006	19651
890.13	19506
890.254	19358
890.377	19266
890.501	19289
890.624	19107
890.748	18996
890.871	18913
890.995	18886
891.118	18715
891.241	18738
891.364	18779
891.488	18977
891.611	18798
891.734	18711
891.857	18757
891.98	18726
892.103	18658
892.226	18601
892.349	18509
892.471	18418
892.594	18399
892.717	18456
892.839	18346
892.962	18369
893.085	18452
893.207	18315
893.33	18194
893.452	18163
893.575	18243
893.697	18148
893.819	18174
893.941	18323
894.064	18300
894.186	18060
894.308	18026
894.43	18083
894.552	18174
894.674	18095
894.796	17847
894.918	17980
895.04	18038
895.161	18064
895.283	17969
895.405	17927
895.526	17798
895.648	17817
895.769	17931
895.891	17893
896.012	18007
896.134	17920
896.255	17984
896.376	17809
896.498	17775
896.619	17885
896.74	17965
896.861	17931
896.982	18133
897.103	18289
897.224	18209
897.345	17984
897.466	17996
897.587	18095
897.708	18053
897.828	18011
897.949	17931
898.07	17741
898.19	17866
898.311	18068
898.431	17958
898.552	18026
898.672	18098
898.792	18091
898.913	17942
899.033	17809
899.153	17866
899.273	17729
899.393	17737
899.513	17817
899.633	17783
899.753	17779
899.873	17684
899.993	17824
900.113	17855
900.232	17794
900.352	17604
900.472	17653
900.591	17589
900.711	17623
900.83	17585
900.95	17661
901.069	17657
901.189	17452
901.308	17200
901.427	17136
901.546	17185
901.665	17189
901.784	17086
901.904	16949
902.023	16854
902.141	16752
902.26	16618
902.379	16710
902.498	16561
902.617	16474
902.735	16622
902.854	16428
902.973	16504
903.091	16219
903.21	16280
903.328	16192
903.446	16086
903.565	16074
903.683	15956
903.801	16010
903.919	15972
904.038	15911
904.156	15770
904.274	15823
904.392	15717
904.51	15857
904.627	15823
904.745	15762
904.863	15804
904.981	15614
905.098	15477
905.216	15412
905.334	15538
905.451	15424
905.569	15401
905.686	15542
905.803	15340
905.921	15241
906.038	15340
906.155	15119
906.272	15017
906.389	15100
906.506	14887
906.623	14910
906.74	14933
906.857	14781
906.974	14853
907.091	15005
907.208	14971
907.324	14929
907.441	14944
907.557	14632
907.674	14674
907.79	14606
907.907	14678
908.023	14712
908.139	14632
908.256	14530
908.372	14507
908.488	14530
908.604	14324
908.72	14339
908.836	14320
908.952	14336
909.068	14328
909.184	14442
909.3	14412
909.415	14377
909.531	14450
909.647	14088
909.762	14073
909.878	14100
909.993	14100
910.108	14164
910.224	14119
910.339	14183
910.454	14001
910.57	13902
910.685	13845
910.8	14161
910.915	14008
911.03	13963
911.145	13791
911.259	13746
911.374	13761
911.489	13624
911.604	13613
911.718	13506
911.833	13476
911.947	13426
912.062	13312
912.176	13438
912.291	13563
912.405	13495
912.519	13620
912.633	13620
912.748	13594
912.862	13525
912.976	13255
913.09	13175
913.204	13270
913.318	13343
913.431	13384
913.545	13346
913.659	13384
913.772	13297
913.886	13221
914	13164
914.113	13255
914.226	13289
914.34	13228
914.453	13103
914.566	13259
914.68	13194
914.793	13046
914.906	12916
915.019	12802
915.132	12802
915.245	12932
915.358	12897
915.47	12913
915.583	12924
915.696	12901
915.809	13076
915.921	13004
916.034	12878
916.146	12871
916.259	12848
916.371	12856
916.483	12958
916.595	12795
916.708	12817
916.82	12852
916.932	12825
917.044	12821
917.156	12734
917.268	12749
917.38	12711
917.491	12642
917.603	12684
917.715	12669
917.826	12700
917.938	12559
918.049	12467
918.161	12604
918.272	12749
918.384	12738
918.495	12585
918.606	12441
918.717	12300
918.828	12479
918.939	12429
919.05	12361
919.161	12414
919.272	12178
919.383	12224
919.494	12471
919.604	12578
919.715	12315
919.826	12285
919.936	12285
920.047	12452
920.157	12342
920.267	12559
920.378	12395
920.488	12330
920.598	12403
920.708	12627
920.818	12502
920.928	12475
921.038	12719
921.148	12475
921.258	12350
921.368	12296
921.477	12117
921.587	12144
921.697	11984
921.806	12129
921.916	12095
922.025	11836
922.134	11775
922.244	11714
922.353	11882
922.462	11672
922.571	11657
922.68	11497
922.789	11512
922.898	11444
923.007	11429
923.116	11463
923.224	11341
923.333	11414
923.442	11322
923.55	11284
923.659	11341
923.767	11429
923.876	11254
923.984	11326
924.092	11239
924.201	11246
924.309	11288
924.417	11318
924.525	11155
924.633	11261
924.741	12015
924.849	11003
924.956	11197
925.064	11006
925.172	10892
925.279	11025
925.387	10961
925.494	11056
925.602	11102
925.709	11102
925.816	10881
925.924	10957
926.031	11086
926.138	11090
926.245	10968
926.352	10927
926.459	10980
926.566	11052
926.673	10938
926.779	10797
926.886	10797
926.993	10774
927.099	10668
927.206	10649
927.312	10485
927.419	10733
927.525	10615
927.631	10672
927.737	10535
927.843	10512
927.95	10421
928.056	10481
928.162	10523
928.267	10573
928.373	11075
928.479	10615
928.585	10462
928.69	10504
928.796	10481
928.901	10386
929.007	10238
929.112	10386
929.218	10348
929.323	10303
929.428	10204
929.533	10417
929.638	10196
929.743	10177
929.848	10325
929.953	10272
930.058	10150
930.163	9964
930.267	10059
930.372	10067
930.477	10013
930.581	10207
930.685	10158
930.79	9918
930.894	9953
930.998	9956
931.103	10090
931.207	9709
931.311	9633
931.415	9580
931.519	9359
931.623	9253
