Data from test_V78500241_1387.txt Node
Date: Fri Mar 25 14:43:22 CST 2022
User: usil
Spectrometer: V785-0024
Trigger mode: 0
Integration Time (sec): 4.000000E-1
Scans to average: 1
Nonlinearity correction enabled: false
Boxcar width: 0
Storing dark spectrum: false
XAxis mode: Wavelengths
Number of Pixels in Spectrum: 1024
>>>>>Begin Spectral Data<<<<<
801.071	22436
801.214	22291
801.356	22002
801.499	22017
801.641	21804
801.783	21838
801.926	21842
802.068	21728
802.211	21671
802.353	21595
802.496	21397
802.638	21222
802.78	21203
802.923	21218
803.065	21138
803.208	21085
803.35	21066
803.492	21397
803.635	21291
803.777	21207
803.919	21260
804.061	21557
804.204	21176
804.346	21116
804.488	20921
804.63	21055
804.773	20880
804.915	21108
805.057	21138
805.199	21062
805.341	21104
805.483	21165
805.626	21237
805.768	21077
805.91	20963
806.052	21188
806.194	20956
806.336	21157
806.478	21207
806.62	20944
806.762	21112
806.904	21249
807.046	21496
807.188	21462
807.33	21428
807.472	21405
807.614	21287
807.756	21439
807.898	21351
808.04	21211
808.182	21241
808.324	21393
808.465	21386
808.607	21591
808.749	21652
808.891	21732
809.033	21865
809.174	21869
809.316	21686
809.458	21534
809.6	21488
809.741	21572
809.883	21644
810.025	21694
810.166	21652
810.308	21671
810.45	21622
810.591	21557
810.733	21378
810.875	21268
811.016	21024
811.158	21112
811.299	21374
811.441	21351
811.582	21374
811.724	21241
811.865	21154
812.007	21233
812.148	21184
812.29	21348
812.431	21386
812.573	21732
812.714	21618
812.855	21842
812.997	21778
813.138	21945
813.279	21861
813.421	21717
813.562	21679
813.703	21496
813.845	21374
813.986	21230
814.127	20823
814.268	20857
814.41	20788
814.551	20746
814.692	20887
814.833	20693
814.974	20773
815.115	20864
815.256	20663
815.397	20594
815.539	20602
815.68	20568
815.821	20457
815.962	20686
816.103	20484
816.244	20480
816.385	20267
816.526	20119
816.666	20081
816.807	19932
816.948	19993
817.089	20111
817.23	20073
817.371	19974
817.512	19845
817.653	19940
817.793	19879
817.934	19925
818.075	19890
818.216	19887
818.356	19883
818.497	19784
818.638	19674
818.778	19582
818.919	19586
819.06	19689
819.2	19655
819.341	19727
819.481	19932
819.622	19986
819.762	20050
819.903	20126
820.043	19974
820.184	19951
820.324	19841
820.465	19883
820.605	20005
820.746	19917
820.886	19799
821.026	19833
821.167	19974
821.307	20020
821.447	19906
821.588	19594
821.728	19655
821.868	19556
822.008	19312
822.149	19346
822.289	19221
822.429	19042
822.569	18867
822.709	19031
822.849	18886
822.99	18848
823.13	18726
823.27	18795
823.41	18593
823.55	18528
823.69	18749
823.83	18623
823.97	18528
824.11	18323
824.25	18197
824.389	18243
824.529	18357
824.669	18399
824.809	18391
824.949	18521
825.089	18380
825.228	18388
825.368	18258
825.508	18216
825.648	18232
825.787	18163
825.927	18346
826.067	18171
826.206	18003
826.346	18114
826.485	18163
826.625	17939
826.765	18262
826.904	18114
827.044	17824
827.183	18007
827.323	17859
827.462	17859
827.601	17821
827.741	17805
827.88	17859
828.02	17672
828.159	17786
828.298	17836
828.437	17961
828.577	17855
828.716	17977
828.855	17752
828.994	17554
829.134	17733
829.273	17646
829.412	17596
829.551	17532
829.69	17471
829.829	17532
829.968	17672
830.107	17668
830.246	17600
830.385	17661
830.524	17505
830.663	17452
830.802	17425
830.941	17227
831.08	17140
831.219	17318
831.357	17265
831.496	17410
831.635	17277
831.774	17159
831.913	17143
832.051	17045
832.19	16957
832.329	17132
832.467	16889
832.606	16904
832.744	16896
832.883	16942
833.022	16850
833.16	16847
833.299	16949
833.437	16984
833.576	16938
833.714	17033
833.852	17022
833.991	16919
834.129	17151
834.267	17022
834.406	16896
834.544	17094
834.682	16968
834.821	16927
834.959	17159
835.097	16881
835.235	17105
835.373	16953
835.511	17090
835.65	16881
835.788	16790
835.926	16771
836.064	16653
836.202	16672
836.34	16835
836.478	16953
836.615	16877
836.753	16957
836.891	16854
837.029	16904
837.167	16881
837.305	16854
837.443	16767
837.58	16706
837.718	16866
837.856	16736
837.993	16607
838.131	16694
838.269	16649
838.406	16713
838.544	16626
838.681	16371
838.819	16432
838.956	16280
839.094	16284
839.231	16169
839.369	16432
839.506	16660
839.643	16443
839.781	16280
839.918	16329
840.055	16215
840.193	16158
840.33	16219
840.467	16192
840.604	16325
840.742	16527
840.879	16101
841.016	16219
841.153	16234
841.29	16352
841.427	16287
841.564	16352
841.701	16280
841.838	16120
841.975	16135
842.112	16173
842.249	16055
842.385	16051
842.522	16223
842.659	16078
842.796	15975
842.933	16036
843.069	16002
843.206	16006
843.343	16109
843.479	16025
843.616	16112
843.752	15800
843.889	15888
844.025	15998
844.162	15808
844.298	15903
844.435	15899
844.571	15808
844.708	15964
844.844	16040
844.98	16025
845.117	15918
845.253	15781
845.389	15808
845.525	15789
845.661	15850
845.798	15846
845.934	16002
846.07	15869
846.206	15907
846.342	15998
846.478	15812
846.614	15629
846.75	15408
846.886	15382
847.022	15519
847.158	15310
847.294	15397
847.429	15435
847.565	15416
847.701	15698
847.837	15157
847.972	15093
848.108	15298
848.244	15260
848.379	15039
848.515	14918
848.65	14921
848.786	14963
848.921	15081
849.057	15055
849.192	15074
849.328	15051
849.463	14941
849.598	14971
849.734	14929
849.869	14960
850.004	14781
850.14	14834
850.275	14712
850.41	14773
850.545	14739
850.68	14701
850.815	14815
850.95	14857
851.085	14891
851.22	14853
851.355	14792
851.49	14815
851.625	14739
851.76	14743
851.895	14617
852.03	14568
852.165	14777
852.299	14720
852.434	14758
852.569	14830
852.703	14781
852.838	14929
852.973	14906
853.107	14960
853.242	14777
853.376	14708
853.511	14533
853.645	14613
853.78	14769
853.914	14625
854.048	14533
854.183	14610
854.317	14602
854.451	14731
854.585	14682
854.72	14568
854.854	14746
854.988	14575
855.122	14583
855.256	14530
855.39	14552
855.524	14682
855.658	14708
855.792	14625
855.926	14602
856.06	14689
856.194	14697
856.327	14629
856.461	14579
856.595	14667
856.729	14648
856.862	14739
856.996	14693
857.13	14689
857.263	14712
857.397	14648
857.53	14701
857.664	14667
857.797	14712
857.931	14743
858.064	14769
858.197	14773
858.331	14724
858.464	14454
858.597	14480
858.731	14648
858.864	14606
858.997	14571
859.13	14644
859.263	14659
859.396	14830
859.529	14606
859.662	14606
859.795	14617
859.928	14617
860.061	14739
860.194	14815
860.327	14545
860.46	14739
860.592	14720
860.725	14735
860.858	14705
860.99	14640
861.123	14625
861.256	14545
861.388	14746
861.521	15287
861.653	14465
861.786	14450
861.918	14434
862.05	14457
862.183	14579
862.315	14651
862.447	14678
862.58	14514
862.712	14377
862.844	14351
862.976	14423
863.108	14473
863.24	14796
863.372	14309
863.504	14374
863.636	14404
863.768	14431
863.9	14370
864.032	14396
864.164	14389
864.296	14442
864.428	14590
864.559	14499
864.691	14518
864.823	14457
864.954	14351
865.086	14480
865.217	14366
865.349	14278
865.48	14317
865.612	14381
865.743	14518
865.875	14423
866.006	14317
866.137	14400
866.269	14450
866.4	14438
866.531	14324
866.662	14278
866.793	14309
866.924	14317
867.055	14385
867.186	14415
867.317	14317
867.448	14240
867.579	14374
867.71	14267
867.841	14305
867.972	14396
868.103	14362
868.233	14294
868.364	14381
868.495	14446
868.625	14697
868.756	14693
868.886	14598
869.017	14545
869.147	14693
869.278	14743
869.408	14632
869.539	14640
869.669	14746
869.799	14613
869.929	14629
870.06	14769
870.19	14906
870.32	14838
870.45	14944
870.58	15081
870.71	15138
870.84	15074
870.97	15001
871.1	15043
871.23	15222
871.36	15264
871.489	15104
871.619	15180
871.749	15176
871.879	15283
872.008	15199
872.138	15306
872.267	15249
872.397	15108
872.526	15123
872.656	14986
872.785	15093
872.915	15199
873.044	15302
873.173	15268
873.303	15298
873.432	15340
873.561	15393
873.69	15275
873.819	15374
873.948	15382
874.077	15359
874.206	15268
874.335	15294
874.464	15389
874.593	15606
874.722	15519
874.851	15652
874.979	15580
875.108	15671
875.237	15622
875.365	15496
875.494	15538
875.623	15538
875.751	15572
875.88	15663
876.008	15755
876.136	15838
876.265	16006
876.393	16071
876.521	16105
876.65	16029
876.778	15987
876.906	15979
877.034	16013
877.162	16006
877.29	15937
877.418	16055
877.546	16032
877.674	16055
877.802	15968
877.93	15983
878.058	15915
878.185	15930
878.313	16048
878.441	15994
878.568	15819
878.696	15945
878.824	16128
878.951	16093
879.079	16234
879.206	16284
879.333	16325
879.461	16131
879.588	16265
879.715	16265
879.842	16497
879.97	16112
880.097	15911
880.224	15892
880.351	15850
880.478	15937
880.605	15850
880.732	15975
880.859	16017
880.986	16006
881.112	15888
881.239	15819
881.366	15698
881.493	15515
881.619	15580
881.746	15496
881.872	15572
881.999	15580
882.125	15454
882.252	15610
882.378	15504
882.505	15644
882.631	15466
882.757	15344
882.883	15344
883.01	15492
883.136	15310
883.262	15241
883.388	15302
883.514	15256
883.64	15363
883.766	15332
883.892	15127
884.018	15108
884.143	15313
884.269	15477
884.395	15058
884.52	15104
884.646	15093
884.772	15047
884.897	15024
885.023	15028
885.148	15218
885.274	15207
885.399	15097
885.524	15017
885.65	15100
885.775	15100
885.9	15020
886.025	15104
886.15	15184
886.275	15020
886.4	14891
886.525	15020
886.65	15009
886.775	14998
886.9	15214
887.025	15268
887.149	15070
887.274	14975
887.399	14777
887.523	14895
887.648	14800
887.773	14762
887.897	14910
888.021	14868
888.146	14868
888.27	14952
888.395	15047
888.519	14864
888.643	14853
888.767	14956
888.891	14777
889.015	14636
889.139	14739
889.263	14689
889.387	14807
889.511	14864
889.635	14883
889.759	14651
889.883	14545
890.006	14769
890.13	14815
890.254	14579
890.377	14602
890.501	14549
890.624	14476
890.748	14511
890.871	14522
890.995	14400
891.118	14358
891.241	14469
891.364	14492
891.488	14583
891.611	14328
891.734	14351
891.857	14473
891.98	14442
892.103	14507
892.226	14522
892.349	14385
892.471	14244
892.594	14438
892.717	14511
892.839	14400
892.962	14484
893.085	14480
893.207	14427
893.33	14237
893.452	14275
893.575	14499
893.697	14313
893.819	14511
893.941	14606
894.064	14610
894.186	14290
894.308	14396
894.43	14480
894.552	14602
894.674	14454
894.796	14374
894.918	14419
895.04	14423
895.161	14514
895.283	14503
895.405	14480
895.526	14511
895.648	14427
895.769	14484
895.891	14495
896.012	14522
896.134	14480
896.255	14575
896.376	14404
896.498	14503
896.619	14598
896.74	14560
896.861	14648
896.982	14887
897.103	15104
897.224	14941
897.345	14758
897.466	14663
897.587	14762
897.708	14941
897.828	14868
897.949	14765
898.07	14697
898.19	14781
898.311	14914
898.431	14857
898.552	14861
898.672	15013
898.792	14963
898.913	14861
899.033	14944
899.153	14743
899.273	14697
899.393	14762
899.513	14785
899.633	14750
899.753	14724
899.873	14731
899.993	14769
900.113	14765
900.232	14754
900.352	14693
900.472	14701
900.591	14571
900.711	14602
900.83	14526
900.95	14762
901.069	14686
901.189	14537
901.308	14381
901.427	14336
901.546	14351
901.665	14347
901.784	14328
901.904	14218
902.023	14001
902.141	13982
902.26	13875
902.379	13978
902.498	13791
902.617	13826
902.735	13852
902.854	13852
902.973	13776
903.091	13514
903.21	13552
903.328	13548
903.446	13510
903.565	13373
903.683	13331
903.801	13369
903.919	13282
904.038	13392
904.156	13190
904.274	13270
904.392	13247
904.51	13247
904.627	13263
904.745	13183
904.863	13263
904.981	12947
905.098	12958
905.216	12901
905.334	12932
905.451	12840
905.569	12890
905.686	12993
905.803	12905
905.921	12726
906.038	12833
906.155	12753
906.272	12593
906.389	12646
906.506	12471
906.623	12502
906.74	12486
906.857	12327
906.974	12422
907.091	12578
907.208	12589
907.324	12521
907.441	12319
907.557	12300
907.674	12205
907.79	12194
907.907	12194
908.023	12308
908.139	12254
908.256	12213
908.372	12083
908.488	12068
908.604	12045
908.72	11973
908.836	12007
908.952	11916
909.068	11980
909.184	12110
909.3	12007
909.415	12057
909.531	12015
909.647	11832
909.762	11714
909.878	11722
909.993	11741
910.108	11752
910.224	11714
910.339	11737
910.454	11615
910.57	11653
910.685	11516
910.8	11840
910.915	11691
911.03	11695
911.145	11433
911.259	11402
911.374	11414
911.489	11360
911.604	11307
911.718	11212
911.833	11254
911.947	11193
912.062	11117
912.176	11288
912.291	11277
912.405	11208
912.519	11387
912.633	11364
912.748	11284
912.862	11166
912.976	11117
913.09	10976
913.204	11006
913.318	11124
913.431	11117
913.545	11166
913.659	11181
913.772	11075
913.886	10965
914	10965
914.113	11075
914.226	11090
914.34	11064
914.453	10915
914.566	11022
914.68	10934
914.793	10896
914.906	10683
915.019	10561
915.132	10698
915.245	10618
915.358	10774
915.47	10725
915.583	10725
915.696	10805
915.809	10816
915.921	10885
916.034	10691
916.146	10672
916.259	10577
916.371	10694
916.483	10714
916.595	10531
916.708	10588
916.82	10679
916.932	10626
917.044	10596
917.156	10512
917.268	10462
917.38	10504
917.491	10497
917.603	10569
917.715	10664
917.826	10637
917.938	10398
918.049	10455
918.161	10558
918.272	10675
918.384	10668
918.495	10500
918.606	10474
918.717	10299
918.828	10432
918.939	10382
919.05	10341
919.161	10424
919.272	10177
919.383	10272
919.494	10523
919.604	10736
919.715	10405
919.826	10363
919.936	10337
920.047	10470
920.157	10417
920.267	10649
920.378	10485
920.488	10409
920.598	10641
920.708	10763
920.818	10611
920.928	10592
921.038	10736
921.148	10759
921.258	10417
921.368	10409
921.477	10356
921.587	10253
921.697	10181
921.806	10291
921.916	10105
922.025	9915
922.134	9930
922.244	9998
922.353	10063
922.462	9789
922.571	9785
922.68	9603
922.789	9622
922.898	9648
923.007	9618
923.116	9656
923.224	9686
923.333	9614
923.442	9500
923.55	9458
923.659	9576
923.767	9584
923.876	9477
923.984	9618
924.092	9450
924.201	9485
924.309	9519
924.417	9545
924.525	9397
924.633	9469
924.741	10333
924.849	9294
924.956	9401
925.064	9329
925.172	9222
925.279	9241
925.387	9348
925.494	9264
925.602	9477
925.709	9443
925.816	9226
925.924	9283
926.031	9367
926.138	9382
926.245	9340
926.352	9203
926.459	9287
926.566	9485
926.673	9279
926.779	9116
926.886	9142
926.993	9043
927.099	8979
927.206	9036
927.312	8944
927.419	8971
927.525	9020
927.631	8982
927.737	8895
927.843	8933
927.95	8796
928.056	8853
928.162	8918
928.267	9001
928.373	9553
928.479	8944
928.585	8773
928.69	8921
928.796	8994
928.901	8819
929.007	8754
929.112	8815
929.218	8800
929.323	8724
929.428	8743
929.533	8891
929.638	8705
929.743	8697
929.848	8746
929.953	8716
930.058	8701
930.163	8461
930.267	8530
930.372	8598
930.477	8408
930.581	8716
930.685	8526
930.79	8419
930.894	8469
930.998	8476
931.103	8568
931.207	8214
931.311	8202
931.415	8103
931.519	7944
931.623	7940
