Data from test_V78500241_2591.txt Node
Date: Fri Mar 25 14:51:45 CST 2022
User: usil
Spectrometer: V785-0024
Trigger mode: 0
Integration Time (sec): 4.000000E-1
Scans to average: 1
Nonlinearity correction enabled: false
Boxcar width: 0
Storing dark spectrum: false
XAxis mode: Wavelengths
Number of Pixels in Spectrum: 1024
>>>>>Begin Spectral Data<<<<<
801.071	22070
801.214	21873
801.356	21690
801.499	21606
801.641	21439
801.783	21469
801.926	21340
802.068	21355
802.211	21256
802.353	21230
802.496	20971
802.638	20960
802.78	20727
802.923	20830
803.065	20651
803.208	20560
803.35	20682
803.492	20781
803.635	20849
803.777	20674
803.919	20769
804.061	21017
804.204	20731
804.346	20674
804.488	20434
804.63	20735
804.773	20606
804.915	20708
805.057	20670
805.199	20613
805.341	20667
805.483	20701
805.626	20678
805.768	20522
805.91	20617
806.052	20632
806.194	20514
806.336	20720
806.478	20674
806.62	20556
806.762	20609
806.904	20754
807.046	21001
807.188	20838
807.33	20872
807.472	20952
807.614	20788
807.756	20773
807.898	20674
808.04	20609
808.182	20602
808.324	20705
808.465	20708
808.607	20883
808.749	20948
808.891	21009
809.033	21165
809.174	20971
809.316	20948
809.458	20963
809.6	20849
809.741	20929
809.883	20967
810.025	21268
810.166	21138
810.308	21119
810.45	21074
810.591	21089
810.733	20891
810.875	20800
811.016	20632
811.158	20754
811.299	20838
811.441	20853
811.582	20788
811.724	20899
811.865	20735
812.007	20613
812.148	20686
812.29	20929
812.431	20941
812.573	20960
812.714	21028
812.855	21252
812.997	21408
813.138	21545
813.279	21344
813.421	21249
813.562	21173
813.703	21001
813.845	20834
813.986	20667
814.127	20579
814.268	20259
814.41	20381
814.551	20195
814.692	20408
814.833	20210
814.974	20248
815.115	20176
815.256	20088
815.397	20100
815.539	20096
815.68	19997
815.821	19925
815.962	19978
816.103	19963
816.244	19814
816.385	19712
816.526	19788
816.666	19552
816.807	19403
816.948	19563
817.089	19495
817.23	19422
817.371	19335
817.512	19476
817.653	19521
817.793	19335
817.934	19422
818.075	19320
818.216	19464
818.356	19369
818.497	19358
818.638	19133
818.778	19057
818.919	19118
819.06	19091
819.2	19244
819.341	19346
819.481	19453
819.622	19384
819.762	19635
819.903	19582
820.043	19441
820.184	19472
820.324	19373
820.465	19434
820.605	19384
820.746	19457
820.886	19206
821.026	19388
821.167	19434
821.307	19308
821.447	19369
821.588	19213
821.728	19122
821.868	19069
822.008	18890
822.149	18798
822.289	18779
822.429	18677
822.569	18521
822.709	18551
822.849	18334
822.99	18350
823.13	18258
823.27	18388
823.41	18209
823.55	18072
823.69	18235
823.83	18148
823.97	18068
824.11	17840
824.25	17897
824.389	17897
824.529	18041
824.669	18011
824.809	17939
824.949	17984
825.089	18026
825.228	17935
825.368	17687
825.508	17718
825.648	17699
825.787	17794
825.927	17764
826.067	17619
826.206	17676
826.346	17733
826.485	17756
826.625	17699
826.765	17866
826.904	17821
827.044	17528
827.183	17490
827.323	17379
827.462	17490
827.601	17455
827.741	17292
827.88	17414
828.02	17212
828.159	17349
828.298	17433
828.437	17467
828.577	17356
828.716	17585
828.855	17368
828.994	17216
829.134	17117
829.273	17159
829.412	16953
829.551	17025
829.69	17147
829.829	17151
829.968	17239
830.107	17197
830.246	17185
830.385	17071
830.524	17143
830.663	17022
830.802	16877
830.941	16816
831.08	16611
831.219	16824
831.357	16877
831.496	16949
831.635	16759
831.774	16725
831.913	16759
832.051	16558
832.19	16554
832.329	16531
832.467	16428
832.606	16436
832.744	16493
832.883	16508
833.022	16440
833.16	16421
833.299	16478
833.437	16428
833.576	16512
833.714	16577
833.852	16565
833.991	16512
834.129	16611
834.267	16527
834.406	16504
834.544	16607
834.682	16558
834.821	16618
834.959	16679
835.097	16455
835.235	16592
835.373	16462
835.511	16603
835.65	16481
835.788	16432
835.926	16261
836.064	16196
836.202	16192
836.34	16379
836.478	16497
836.615	16421
836.753	16390
836.891	16512
837.029	16523
837.167	16375
837.305	16424
837.443	16352
837.58	16246
837.718	16402
837.856	16382
837.993	16303
838.131	16352
838.269	16173
838.406	16268
838.544	16131
838.681	15975
838.819	16074
838.956	15865
839.094	15880
839.231	15892
839.369	15979
839.506	16303
839.643	16109
839.781	15983
839.918	15861
840.055	15895
840.193	15911
840.33	15861
840.467	15880
840.604	15816
840.742	16200
840.879	15713
841.016	15827
841.153	15736
841.29	16013
841.427	15922
841.564	15842
841.701	15857
841.838	15823
841.975	15720
842.112	15808
842.249	15606
842.385	15667
842.522	15850
842.659	15713
842.796	15591
842.933	15622
843.069	15584
843.206	15652
843.343	15675
843.479	15675
843.616	15606
843.752	15447
843.889	15519
844.025	15542
844.162	15355
844.298	15511
844.435	15515
844.571	15412
844.708	15405
844.844	15599
844.98	15564
845.117	15507
845.253	15370
845.389	15252
845.525	15336
845.661	15313
845.798	15180
845.934	15283
846.07	15116
846.206	15249
846.342	15325
846.478	15256
846.614	15017
846.75	15024
846.886	14990
847.022	15173
847.158	15009
847.294	15036
847.429	15070
847.565	14963
847.701	15279
847.837	14648
847.972	14777
848.108	14876
848.244	14769
848.379	14587
848.515	14598
848.65	14648
848.786	14651
848.921	14598
849.057	14682
849.192	14632
849.328	14629
849.463	14480
849.598	14617
849.734	14511
849.869	14476
850.004	14404
850.14	14404
850.275	14320
850.41	14347
850.545	14320
850.68	14358
850.815	14381
850.95	14324
851.085	14613
851.22	14484
851.355	14362
851.49	14412
851.625	14347
851.76	14317
851.895	14191
852.03	14259
852.165	14336
852.299	14351
852.434	14427
852.569	14507
852.703	14332
852.838	14514
852.973	14541
853.107	14476
853.242	14374
853.376	14305
853.511	14138
853.645	14172
853.78	14275
853.914	14282
854.048	14153
854.183	14240
854.317	14301
854.451	14541
854.585	14259
854.72	14218
854.854	14309
854.988	14214
855.122	14210
855.256	14111
855.39	14168
855.524	14263
855.658	14282
855.792	14233
855.926	14286
856.06	14317
856.194	14294
856.327	14301
856.461	14248
856.595	14077
856.729	14218
856.862	14320
856.996	14256
857.13	14336
857.263	14370
857.397	14355
857.53	14332
857.664	14301
857.797	14317
857.931	14427
858.064	14351
858.197	14313
858.331	14229
858.464	14180
858.597	14187
858.731	14221
858.864	14187
858.997	14263
859.13	14282
859.263	14351
859.396	14351
859.529	14221
859.662	14164
859.795	14153
859.928	14161
860.061	14476
860.194	14374
860.327	14240
860.46	14176
860.592	14419
860.725	14358
860.858	14313
860.99	14142
861.123	14183
861.256	14172
861.388	14153
861.521	14845
861.653	14073
861.786	14035
861.918	14077
862.05	14218
862.183	14214
862.315	14237
862.447	14309
862.58	14149
862.712	14012
862.844	13894
862.976	14077
863.108	14096
863.24	14431
863.372	13944
863.504	13917
863.636	14012
863.768	14046
863.9	14084
864.032	14050
864.164	13951
864.296	14012
864.428	14035
864.559	14142
864.691	14111
864.823	14054
864.954	14073
865.086	14126
865.217	14008
865.349	13898
865.48	14005
865.612	14016
865.743	14084
865.875	14046
866.006	14012
866.137	13974
866.269	14008
866.4	14008
866.531	13951
866.662	13917
866.793	13833
866.924	13944
867.055	14172
867.186	14031
867.317	13932
867.448	13921
867.579	14001
867.71	13890
867.841	13970
867.972	14008
868.103	13993
868.233	14001
868.364	14069
868.495	14035
868.625	14149
868.756	14415
868.886	14157
869.017	14259
869.147	14256
869.278	14374
869.408	14267
869.539	14195
869.669	14305
869.799	14370
869.929	14324
870.06	14332
870.19	14560
870.32	14556
870.45	14632
870.58	14610
870.71	14701
870.84	14739
870.97	14636
871.1	14636
871.23	14800
871.36	14845
871.489	14727
871.619	14826
871.749	14891
871.879	14804
872.008	14895
872.138	14826
872.267	14777
872.397	14716
872.526	14697
872.656	14735
872.785	14777
872.915	14925
873.044	14952
873.173	14891
873.303	14960
873.432	14921
873.561	14925
873.69	14960
873.819	14963
873.948	14944
874.077	14952
874.206	14910
874.335	15001
874.464	15085
874.593	15272
874.722	15207
874.851	15279
874.979	15203
875.108	15351
875.237	15237
875.365	15195
875.494	15214
875.623	15302
875.751	15169
875.88	15222
876.008	15412
876.136	15496
876.265	15671
876.393	15705
876.521	15656
876.65	15675
876.778	15610
876.906	15603
877.034	15580
877.162	15595
877.29	15599
877.418	15618
877.546	15686
877.674	15584
877.802	15553
877.93	15625
878.058	15572
878.185	15515
878.313	15648
878.441	15694
878.568	15435
878.696	15534
878.824	15637
878.951	15679
879.079	15816
879.206	15907
879.333	15755
879.461	15804
879.588	15671
879.715	15831
879.842	16017
879.97	15629
880.097	15515
880.224	15420
880.351	15496
880.478	15469
880.605	15526
880.732	15530
880.859	15694
880.986	15500
881.112	15523
881.239	15332
881.366	15180
881.493	15157
881.619	15085
881.746	15222
881.872	15077
881.999	15036
882.125	15093
882.252	15119
882.378	15123
882.505	15237
882.631	15062
882.757	14944
882.883	15020
883.01	14929
883.136	14868
883.262	14834
883.388	14773
883.514	14952
883.64	15108
883.766	14883
883.892	14693
884.018	14849
884.143	14967
884.269	15032
884.395	14659
884.52	14667
884.646	14610
884.772	14590
884.897	14610
885.023	14716
885.148	14876
885.274	14777
885.399	14838
885.524	14663
885.65	14667
885.775	14663
885.9	14621
886.025	14853
886.15	14731
886.275	14625
886.4	14503
886.525	14602
886.65	14583
886.775	14621
886.9	14712
887.025	14792
887.149	14598
887.274	14518
887.399	14537
887.523	14533
887.648	14465
887.773	14438
887.897	14579
888.021	14556
888.146	14476
888.27	14587
888.395	14659
888.519	14530
888.643	14571
888.767	14564
888.891	14355
889.015	14351
889.139	14415
889.263	14298
889.387	14492
889.511	14495
889.635	14461
889.759	14298
889.883	14233
890.006	14362
890.13	14469
890.254	14328
890.377	14305
890.501	14111
890.624	14187
890.748	14199
890.871	14145
890.995	14050
891.118	13986
891.241	14058
891.364	14100
891.488	14111
891.611	13997
891.734	14092
891.857	14103
891.98	14077
892.103	14161
892.226	14062
892.349	13963
892.471	13883
892.594	13997
892.717	14043
892.839	14012
892.962	14103
893.085	14149
893.207	14054
893.33	14008
893.452	13967
893.575	14069
893.697	14069
893.819	14202
893.941	14244
894.064	14157
894.186	14001
894.308	14024
894.43	14164
894.552	14221
894.674	14168
894.796	14088
894.918	14119
895.04	14153
895.161	14282
895.283	14225
895.405	14103
895.526	14164
895.648	14065
895.769	14195
895.891	14199
896.012	14320
896.134	14214
896.255	14309
896.376	14221
896.498	14271
896.619	14286
896.74	14275
896.861	14271
896.982	14522
897.103	14697
897.224	14530
897.345	14518
897.466	14423
897.587	14457
897.708	14686
897.828	14587
897.949	14484
898.07	14385
898.19	14396
898.311	14678
898.431	14476
898.552	14575
898.672	14682
898.792	14629
898.913	14583
899.033	14537
899.153	14492
899.273	14336
899.393	14438
899.513	14473
899.633	14400
899.753	14465
899.873	14457
899.993	14495
900.113	14396
900.232	14396
900.352	14370
900.472	14328
900.591	14180
900.711	14301
900.83	14172
900.95	14381
901.069	14339
901.189	14271
901.308	14031
901.427	13978
901.546	13997
901.665	14016
901.784	14046
901.904	13772
902.023	13776
902.141	13559
902.26	13578
902.379	13636
902.498	13594
902.617	13499
902.735	13521
902.854	13559
902.973	13495
903.091	13213
903.21	13194
903.328	13190
903.446	13266
903.565	13145
903.683	13183
903.801	13053
903.919	13065
904.038	13080
904.156	12981
904.274	13065
904.392	12973
904.51	12924
904.627	12894
904.745	13008
904.863	12989
904.981	12631
905.098	12684
905.216	12745
905.334	12688
905.451	12612
905.569	12547
905.686	12681
905.803	12692
905.921	12403
906.038	12517
906.155	12467
906.272	12403
906.389	12334
906.506	12235
906.623	12235
906.74	12213
906.857	12068
906.974	12095
907.091	12304
907.208	12369
907.324	12311
907.441	12136
907.557	11954
907.674	11961
907.79	11908
907.907	11927
908.023	12045
908.139	12049
908.256	11874
908.372	11855
908.488	11897
908.604	11745
908.72	11714
908.836	11672
908.952	11748
909.068	11764
909.184	11737
909.3	11798
909.415	11752
909.531	11726
909.647	11596
909.762	11524
909.878	11452
909.993	11592
910.108	11490
910.224	11486
910.339	11433
910.454	11383
910.57	11360
910.685	11250
910.8	11486
910.915	11433
911.03	11303
911.145	11159
911.259	11201
911.374	11216
911.489	11143
911.604	11029
911.718	10892
911.833	10877
911.947	10828
912.062	10805
912.176	10999
912.291	10885
912.405	10953
912.519	11147
912.633	11204
912.748	11029
912.862	10980
912.976	10816
913.09	10687
913.204	10805
913.318	10866
913.431	10919
913.545	10934
913.659	10961
913.772	10862
913.886	10733
914	10645
914.113	10767
914.226	10805
914.34	10771
914.453	10687
914.566	10733
914.68	10599
914.793	10653
914.906	10379
915.019	10462
915.132	10417
915.245	10367
915.358	10504
915.47	10436
915.583	10459
915.696	10565
915.809	10596
915.921	10573
916.034	10470
916.146	10356
916.259	10402
916.371	10538
916.483	10470
916.595	10318
916.708	10382
916.82	10413
916.932	10394
917.044	10390
917.156	10284
917.268	10249
917.38	10299
917.491	10257
917.603	10375
917.715	10333
917.826	10375
917.938	10299
918.049	10112
918.161	10303
918.272	10394
918.384	10386
918.495	10303
918.606	10158
918.717	10093
918.828	10128
918.939	10230
919.05	10067
919.161	10086
919.272	9941
919.383	10010
919.494	10249
919.604	10417
919.715	10242
919.826	10124
919.936	10124
920.047	10280
920.157	10200
920.267	10367
920.378	10219
920.488	10169
920.598	10390
920.708	10527
920.818	10421
920.928	10333
921.038	10497
921.148	10451
921.258	10249
921.368	10143
921.477	10090
921.587	10002
921.697	9876
921.806	10006
921.916	10002
922.025	9785
922.134	9762
922.244	9606
922.353	9774
922.462	9564
922.571	9534
922.68	9473
922.789	9386
922.898	9515
923.007	9351
923.116	9504
923.224	9431
923.333	9488
923.442	9363
923.55	9313
923.659	9389
923.767	9408
923.876	9268
923.984	9393
924.092	9249
924.201	9291
924.309	9321
924.417	9321
924.525	9253
924.633	9279
924.741	9968
924.849	9043
924.956	9195
925.064	9077
925.172	9020
925.279	9116
925.387	9097
925.494	9108
925.602	9199
925.709	9150
925.816	9028
925.924	9077
926.031	9195
926.138	9085
926.245	9180
926.352	9066
926.459	9142
926.566	9226
926.673	9020
926.779	9024
926.886	8971
926.993	8826
927.099	8769
927.206	8781
927.312	8777
927.419	8902
927.525	8743
927.631	8891
927.737	8735
927.843	8727
927.95	8621
928.056	8655
928.162	8750
928.267	8689
928.373	9378
928.479	8830
928.585	8632
928.69	8689
928.796	8705
928.901	8590
929.007	8480
929.112	8621
929.218	8530
929.323	8602
929.428	8587
929.533	8720
929.638	8419
929.743	8450
929.848	8469
929.953	8533
930.058	8431
930.163	8298
930.267	8358
930.372	8446
930.477	8351
930.581	8488
930.685	8362
930.79	8233
930.894	8271
930.998	8271
931.103	8343
931.207	8039
931.311	7982
931.415	7913
931.519	7700
931.623	7696
