Data from test_V78500241_2793.txt Node
Date: Fri Mar 25 14:53:09 CST 2022
User: usil
Spectrometer: V785-0024
Trigger mode: 0
Integration Time (sec): 4.000000E-1
Scans to average: 1
Nonlinearity correction enabled: false
Boxcar width: 0
Storing dark spectrum: false
XAxis mode: Wavelengths
Number of Pixels in Spectrum: 1024
>>>>>Begin Spectral Data<<<<<
801.071	21911
801.214	21911
801.356	21671
801.499	21538
801.641	21435
801.783	21291
801.926	21458
802.068	21298
802.211	21310
802.353	21218
802.496	21055
802.638	20853
802.78	20899
802.923	20823
803.065	20765
803.208	20674
803.35	20914
803.492	20944
803.635	20876
803.777	20621
803.919	20952
804.061	21096
804.204	20804
804.346	20674
804.488	20606
804.63	20785
804.773	20598
804.915	20712
805.057	20788
805.199	20571
805.341	20674
805.483	20663
805.626	20659
805.768	20545
805.91	20689
806.052	20743
806.194	20571
806.336	20773
806.478	20701
806.62	20663
806.762	20640
806.904	20872
807.046	21036
807.188	20921
807.33	21028
807.472	21116
807.614	21009
807.756	20948
807.898	20743
808.04	20625
808.182	20629
808.324	20773
808.465	20781
808.607	20975
808.749	20944
808.891	21013
809.033	21157
809.174	21104
809.316	21051
809.458	21127
809.6	20902
809.741	21176
809.883	21085
810.025	21249
810.166	21123
810.308	21195
810.45	21024
810.591	20971
810.733	20910
810.875	20941
811.016	20834
811.158	20617
811.299	20731
811.441	20842
811.582	20902
811.724	20762
811.865	20712
812.007	20712
812.148	20769
812.29	20834
812.431	20967
812.573	21036
812.714	21176
812.855	21298
812.997	21450
813.138	21534
813.279	21359
813.421	21218
813.562	21173
813.703	21157
813.845	20963
813.986	20632
814.127	20484
814.268	20461
814.41	20339
814.551	20248
814.692	20457
814.833	20286
814.974	20309
815.115	20305
815.256	20153
815.397	20172
815.539	20176
815.68	20180
815.821	19913
815.962	20096
816.103	20024
816.244	20054
816.385	19845
816.526	19708
816.666	19480
816.807	19518
816.948	19563
817.089	19499
817.23	19472
817.371	19480
817.512	19491
817.653	19396
817.793	19373
817.934	19472
818.075	19502
818.216	19422
818.356	19434
818.497	19221
818.638	19126
818.778	19099
818.919	19190
819.06	19209
819.2	19362
819.341	19274
819.481	19422
819.622	19392
819.762	19624
819.903	19662
820.043	19548
820.184	19377
820.324	19480
820.465	19510
820.605	19460
820.746	19430
820.886	19236
821.026	19377
821.167	19419
821.307	19434
821.447	19365
821.588	19285
821.728	19179
821.868	18989
822.008	18901
822.149	18875
822.289	18878
822.429	18608
822.569	18441
822.709	18654
822.849	18384
822.99	18418
823.13	18479
823.27	18334
823.41	18182
823.55	18125
823.69	18121
823.83	18190
823.97	18114
824.11	18049
824.25	17935
824.389	17916
824.529	18022
824.669	17977
824.809	18015
824.949	17961
825.089	17999
825.228	17897
825.368	17695
825.508	17843
825.648	17832
825.787	17779
825.927	17695
826.067	17703
826.206	17695
826.346	17745
826.485	17737
826.625	17726
826.765	17775
826.904	17783
827.044	17547
827.183	17490
827.323	17383
827.462	17433
827.601	17398
827.741	17421
827.88	17410
828.02	17284
828.159	17337
828.298	17478
828.437	17551
828.577	17296
828.716	17592
828.855	17303
828.994	17159
829.134	17200
829.273	17200
829.412	17189
829.551	17178
829.69	17124
829.829	17181
829.968	17204
830.107	17185
830.246	17273
830.385	17090
830.524	17075
830.663	16919
830.802	17037
830.941	16877
831.08	16820
831.219	16831
831.357	16778
831.496	17079
831.635	16797
831.774	16717
831.913	16664
832.051	16508
832.19	16603
832.329	16607
832.467	16550
832.606	16478
832.744	16485
832.883	16500
833.022	16394
833.16	16485
833.299	16504
833.437	16531
833.576	16611
833.714	16603
833.852	16569
833.991	16558
834.129	16481
834.267	16588
834.406	16481
834.544	16607
834.682	16584
834.821	16455
834.959	16691
835.097	16527
835.235	16698
835.373	16554
835.511	16535
835.65	16409
835.788	16459
835.926	16402
836.064	16188
836.202	16287
836.34	16519
836.478	16538
836.615	16386
836.753	16440
836.891	16447
837.029	16424
837.167	16440
837.305	16402
837.443	16371
837.58	16268
837.718	16356
837.856	16322
837.993	16310
838.131	16352
838.269	16318
838.406	16219
838.544	16147
838.681	16135
838.819	15987
838.956	15873
839.094	15861
839.231	16010
839.369	15968
839.506	16268
839.643	16112
839.781	15846
839.918	15724
840.055	15838
840.193	15766
840.33	15850
840.467	15892
840.604	15949
840.742	16105
840.879	15736
841.016	15770
841.153	15812
841.29	15964
841.427	15819
841.564	15911
841.701	15903
841.838	15816
841.975	15739
842.112	15762
842.249	15671
842.385	15587
842.522	15876
842.659	15717
842.796	15614
842.933	15667
843.069	15663
843.206	15618
843.343	15663
843.479	15705
843.616	15804
843.752	15488
843.889	15496
844.025	15641
844.162	15462
844.298	15622
844.435	15393
844.571	15416
844.708	15511
844.844	15633
844.98	15591
845.117	15561
845.253	15359
845.389	15272
845.525	15329
845.661	15351
845.798	15279
845.934	15249
846.07	15180
846.206	15298
846.342	15302
846.478	15203
846.614	15062
846.75	15043
846.886	14967
847.022	15123
847.158	15024
847.294	14986
847.429	15093
847.565	14861
847.701	15233
847.837	14842
847.972	14648
848.108	14861
848.244	14800
848.379	14602
848.515	14613
848.65	14469
848.786	14613
848.921	14613
849.057	14758
849.192	14674
849.328	14606
849.463	14545
849.598	14587
849.734	14537
849.869	14476
850.004	14328
850.14	14423
850.275	14423
850.41	14377
850.545	14320
850.68	14317
850.815	14465
850.95	14358
851.085	14473
851.22	14541
851.355	14324
851.49	14358
851.625	14393
851.76	14393
851.895	14278
852.03	14324
852.165	14362
852.299	14480
852.434	14351
852.569	14366
852.703	14358
852.838	14419
852.973	14545
853.107	14442
853.242	14339
853.376	14244
853.511	14043
853.645	14187
853.78	14351
853.914	14221
854.048	14294
854.183	14233
854.317	14248
854.451	14469
854.585	14259
854.72	14145
854.854	14339
854.988	14107
855.122	14195
855.256	14149
855.39	14233
855.524	14305
855.658	14256
855.792	14229
855.926	14271
856.06	14218
856.194	14370
856.327	14336
856.461	14153
856.595	14172
856.729	14195
856.862	14377
856.996	14275
857.13	14366
857.263	14294
857.397	14381
857.53	14271
857.664	14366
857.797	14290
857.931	14328
858.064	14256
858.197	14278
858.331	14248
858.464	14176
858.597	14126
858.731	14225
858.864	14218
858.997	14237
859.13	14195
859.263	14263
859.396	14320
859.529	14237
859.662	14164
859.795	14225
859.928	14244
860.061	14419
860.194	14385
860.327	14248
860.46	14096
860.592	14271
860.725	14355
860.858	14381
860.99	14240
861.123	14256
861.256	14191
861.388	14248
861.521	14967
861.653	14119
861.786	14126
861.918	14077
862.05	14176
862.183	14130
862.315	14271
862.447	14221
862.58	14153
862.712	13963
862.844	14031
862.976	14126
863.108	13974
863.24	14492
863.372	13947
863.504	14008
863.636	14024
863.768	14024
863.9	14008
864.032	13944
864.164	13974
864.296	14027
864.428	14168
864.559	14092
864.691	14115
864.823	14107
864.954	14073
865.086	14050
865.217	14008
865.349	14065
865.48	14065
865.612	13955
865.743	14187
865.875	14107
866.006	13936
866.137	13974
866.269	13944
866.4	13940
866.531	13959
866.662	13947
866.793	14012
866.924	13932
867.055	13947
867.186	14008
867.317	13986
867.448	13921
867.579	13970
867.71	13883
867.841	13928
867.972	14088
868.103	13997
868.233	14027
868.364	14012
868.495	14145
868.625	14263
868.756	14332
868.886	14092
869.017	14271
869.147	14389
869.278	14412
869.408	14286
869.539	14233
869.669	14309
869.799	14320
869.929	14480
870.06	14381
870.19	14621
870.32	14442
870.45	14606
870.58	14708
870.71	14826
870.84	14712
870.97	14670
871.1	14625
871.23	14792
871.36	14902
871.489	14720
871.619	14735
871.749	14887
871.879	14857
872.008	14952
872.138	14941
872.267	14811
872.397	14670
872.526	14735
872.656	14659
872.785	14838
872.915	14701
873.044	15024
873.173	14921
873.303	14975
873.432	14910
873.561	14929
873.69	14941
873.819	14830
873.948	15024
874.077	14849
874.206	14826
874.335	14918
874.464	14963
874.593	15211
874.722	15142
874.851	15230
874.979	15146
875.108	15150
875.237	15203
875.365	15005
875.494	15226
875.623	15252
875.751	15230
875.88	15268
876.008	15275
876.136	15443
876.265	15633
876.393	15644
876.521	15637
876.65	15785
876.778	15660
876.906	15606
877.034	15553
877.162	15686
877.29	15603
877.418	15698
877.546	15690
877.674	15667
877.802	15614
877.93	15610
878.058	15644
878.185	15606
878.313	15519
878.441	15584
878.568	15454
878.696	15564
878.824	15618
878.951	15728
879.079	15804
879.206	15979
879.333	15804
879.461	15800
879.588	15800
879.715	15781
879.842	15895
879.97	15675
880.097	15416
880.224	15439
880.351	15538
880.478	15374
880.605	15538
880.732	15511
880.859	15713
880.986	15519
881.112	15412
881.239	15370
881.366	15252
881.493	15161
881.619	15032
881.746	15173
881.872	15150
881.999	15131
882.125	15047
882.252	15222
882.378	15142
882.505	15199
882.631	15074
882.757	14960
882.883	15055
883.01	14929
883.136	14933
883.262	14899
883.388	14754
883.514	15020
883.64	14952
883.766	14880
883.892	14693
884.018	14826
884.143	14967
884.269	15032
884.395	14731
884.52	14686
884.646	14602
884.772	14587
884.897	14526
885.023	14682
885.148	14720
885.274	14765
885.399	14636
885.524	14701
885.65	14617
885.775	14708
885.9	14632
886.025	14781
886.15	14773
886.275	14583
886.4	14480
886.525	14571
886.65	14606
886.775	14587
886.9	14857
887.025	14918
887.149	14629
887.274	14579
887.399	14454
887.523	14450
887.648	14419
887.773	14389
887.897	14507
888.021	14621
888.146	14480
888.27	14587
888.395	14610
888.519	14594
888.643	14556
888.767	14537
888.891	14423
889.015	14290
889.139	14461
889.263	14282
889.387	14469
889.511	14480
889.635	14526
889.759	14278
889.883	14309
890.006	14328
890.13	14488
890.254	14328
890.377	14389
890.501	14233
890.624	14126
890.748	14168
890.871	14244
890.995	14008
891.118	13970
891.241	13955
891.364	14043
891.488	14183
891.611	13986
891.734	14069
891.857	14092
891.98	14103
892.103	14134
892.226	14039
892.349	14058
892.471	13936
892.594	14043
892.717	14043
892.839	14092
892.962	14096
893.085	14172
893.207	14123
893.33	13894
893.452	14001
893.575	14088
893.697	14024
893.819	14309
893.941	14195
894.064	14126
894.186	14008
894.308	14062
894.43	14092
894.552	14244
894.674	14221
894.796	14046
894.918	14062
895.04	14020
895.161	14134
895.283	14130
895.405	14092
895.526	14134
895.648	14103
895.769	14252
895.891	14240
896.012	14355
896.134	14206
896.255	14248
896.376	14221
896.498	14183
896.619	14282
896.74	14210
896.861	14259
896.982	14530
897.103	14785
897.224	14526
897.345	14488
897.466	14400
897.587	14488
897.708	14674
897.828	14434
897.949	14427
898.07	14294
898.19	14400
898.311	14621
898.431	14526
898.552	14511
898.672	14686
898.792	14590
898.913	14632
899.033	14556
899.153	14473
899.273	14336
899.393	14339
899.513	14522
899.633	14434
899.753	14434
899.873	14374
899.993	14484
900.113	14412
900.232	14385
900.352	14396
900.472	14309
900.591	14267
900.711	14362
900.83	14294
900.95	14412
901.069	14400
901.189	14256
901.308	13951
901.427	13902
901.546	13989
901.665	13989
901.784	14005
901.904	13830
902.023	13765
902.141	13537
902.26	13514
902.379	13586
902.498	13594
902.617	13495
902.735	13575
902.854	13559
902.973	13491
903.091	13263
903.21	13251
903.328	13312
903.446	13213
903.565	13133
903.683	13065
903.801	13031
903.919	13152
904.038	13084
904.156	12901
904.274	12954
904.392	12932
904.51	12882
904.627	12875
904.745	13046
904.863	12954
904.981	12654
905.098	12612
905.216	12616
905.334	12779
905.451	12631
905.569	12597
905.686	12646
905.803	12658
905.921	12448
906.038	12532
906.155	12426
906.272	12296
906.389	12494
906.506	12197
906.623	12232
906.74	12159
906.857	12072
906.974	12038
907.091	12224
907.208	12308
907.324	12247
907.441	12152
907.557	12007
907.674	12015
907.79	11828
907.907	11961
908.023	11977
908.139	11992
908.256	12026
908.372	11870
908.488	11878
908.604	11767
908.72	11775
908.836	11752
908.952	11726
909.068	11783
909.184	11802
909.3	11798
909.415	11798
909.531	11665
909.647	11478
909.762	11558
909.878	11429
909.993	11524
910.108	11524
910.224	11471
910.339	11509
910.454	11326
910.57	11368
910.685	11269
910.8	11516
910.915	11478
911.03	11383
911.145	11174
911.259	11261
911.374	11178
911.489	11147
911.604	11083
911.718	10984
911.833	11003
911.947	10767
912.062	10812
912.176	10957
912.291	10923
912.405	10930
912.519	11083
912.633	11212
912.748	11006
912.862	10911
912.976	10858
913.09	10774
913.204	10755
913.318	10793
913.431	10911
913.545	10995
913.659	10961
913.772	10828
913.886	10694
914	10694
914.113	10767
914.226	10835
914.34	10805
914.453	10645
914.566	10793
914.68	10672
914.793	10660
914.906	10478
915.019	10474
915.132	10409
915.245	10405
915.358	10481
915.47	10493
915.583	10417
915.696	10561
915.809	10577
915.921	10512
916.034	10474
916.146	10440
916.259	10398
916.371	10569
916.483	10508
916.595	10318
916.708	10443
916.82	10459
916.932	10363
917.044	10367
917.156	10398
917.268	10249
917.38	10341
917.491	10238
917.603	10352
917.715	10310
917.826	10459
917.938	10291
918.049	10169
918.161	10207
918.272	10413
918.384	10379
918.495	10306
918.606	10196
918.717	10097
918.828	10268
918.939	10207
919.05	10036
919.161	10131
919.272	9953
919.383	9972
919.494	10230
919.604	10424
919.715	10230
919.826	10150
919.936	10162
920.047	10200
920.157	10238
920.267	10417
920.378	10249
920.488	10128
920.598	10333
920.708	10550
920.818	10341
920.928	10341
921.038	10542
921.148	10500
921.258	10242
921.368	10150
921.477	10044
921.587	10086
921.697	9880
921.806	10128
921.916	9895
922.025	9812
922.134	9755
922.244	9694
922.353	9781
922.462	9610
922.571	9587
922.68	9431
922.789	9397
922.898	9447
923.007	9443
923.116	9511
923.224	9408
923.333	9412
923.442	9348
923.55	9260
923.659	9386
923.767	9329
923.876	9336
923.984	9382
924.092	9211
924.201	9359
924.309	9336
924.417	9317
924.525	9336
924.633	9279
924.741	9953
924.849	9089
924.956	9214
925.064	9119
925.172	8975
925.279	9093
925.387	9131
925.494	9123
925.602	9268
925.709	9192
925.816	9028
925.924	9070
926.031	9150
926.138	9176
926.245	9135
926.352	8990
926.459	9165
926.566	9108
926.673	8990
926.779	8933
926.886	8960
926.993	8823
927.099	8781
927.206	8750
927.312	8785
927.419	8883
927.525	8804
927.631	8880
927.737	8777
927.843	8724
927.95	8636
928.056	8689
928.162	8682
928.267	8842
928.373	9374
928.479	8834
928.585	8545
928.69	8773
928.796	8800
928.901	8655
929.007	8442
929.112	8648
929.218	8613
929.323	8583
929.428	8492
929.533	8625
929.638	8492
929.743	8499
929.848	8537
929.953	8469
930.058	8457
930.163	8252
930.267	8298
930.372	8431
930.477	8328
930.581	8522
930.685	8355
930.79	8259
930.894	8298
930.998	8244
931.103	8396
931.207	8081
931.311	7982
931.415	7951
931.519	7731
931.623	7792
