Data from test_V78500241_1505.txt Node
Date: Fri Mar 25 14:44:11 CST 2022
User: usil
Spectrometer: V785-0024
Trigger mode: 0
Integration Time (sec): 4.000000E-1
Scans to average: 1
Nonlinearity correction enabled: false
Boxcar width: 0
Storing dark spectrum: false
XAxis mode: Wavelengths
Number of Pixels in Spectrum: 1024
>>>>>Begin Spectral Data<<<<<
801.071	22363
801.214	22257
801.356	22082
801.499	21865
801.641	21793
801.783	21759
801.926	21690
802.068	21759
802.211	21675
802.353	21519
802.496	21382
802.638	21252
802.78	21218
802.923	21119
803.065	21085
803.208	21081
803.35	21058
803.492	21298
803.635	21241
803.777	21138
803.919	21211
804.061	21340
804.204	21275
804.346	21043
804.488	20941
804.63	21051
804.773	21051
804.915	21100
805.057	21085
805.199	21020
805.341	21131
805.483	21180
805.626	21150
805.768	20880
805.91	21119
806.052	21055
806.194	21096
806.336	21222
806.478	21001
806.62	20925
806.762	21020
806.904	21195
807.046	21481
807.188	21291
807.33	21428
807.472	21477
807.614	21332
807.756	21389
807.898	21279
808.04	21184
808.182	21226
808.324	21283
808.465	21195
808.607	21443
808.749	21542
808.891	21762
809.033	21755
809.174	21641
809.316	21515
809.458	21496
809.6	21450
809.741	21629
809.883	21549
810.025	21648
810.166	21572
810.308	21656
810.45	21625
810.591	21545
810.733	21287
810.875	21222
811.016	21112
811.158	21036
811.299	21222
811.441	21431
811.582	21340
811.724	21237
811.865	21188
812.007	21024
812.148	21260
812.29	21230
812.431	21393
812.573	21583
812.714	21553
812.855	21789
812.997	21816
813.138	21804
813.279	21831
813.421	21736
813.562	21576
813.703	21454
813.845	21561
813.986	21001
814.127	20941
814.268	20838
814.41	20815
814.551	20876
814.692	20834
814.833	20705
814.974	20762
815.115	20651
815.256	20689
815.397	20632
815.539	20499
815.68	20518
815.821	20328
815.962	20621
816.103	20423
816.244	20290
816.385	20233
816.526	20142
816.666	20119
816.807	19913
816.948	19913
817.089	20046
817.23	19906
817.371	19841
817.512	19940
817.653	19936
817.793	19784
817.934	19925
818.075	19826
818.216	19913
818.356	19917
818.497	19658
818.638	19586
818.778	19708
818.919	19575
819.06	19537
819.2	19696
819.341	19670
819.481	19761
819.622	19909
819.762	19993
819.903	20008
820.043	19845
820.184	19818
820.324	19936
820.465	19734
820.605	19864
820.746	19925
820.886	19814
821.026	19841
821.167	19833
821.307	19917
821.447	19875
821.588	19731
821.728	19624
821.868	19506
822.008	19301
822.149	19244
822.289	19270
822.429	19046
822.569	18905
822.709	18932
822.849	18871
822.99	18726
823.13	18654
823.27	18631
823.41	18578
823.55	18490
823.69	18551
823.83	18525
823.97	18513
824.11	18418
824.25	18292
824.389	18494
824.529	18460
824.669	18338
824.809	18616
824.949	18384
825.089	18380
825.228	18342
825.368	18171
825.508	18125
825.648	18262
825.787	18220
825.927	18281
826.067	18140
826.206	18129
826.346	18057
826.485	18182
826.625	18182
826.765	18213
826.904	18091
827.044	17996
827.183	17988
827.323	17756
827.462	17901
827.601	17893
827.741	17745
827.88	17897
828.02	17745
828.159	17695
828.298	17851
828.437	17832
828.577	17828
828.716	17851
828.855	17863
828.994	17516
829.134	17501
829.273	17562
829.412	17551
829.551	17501
829.69	17570
829.829	17551
829.968	17649
830.107	17615
830.246	17497
830.385	17589
830.524	17448
830.663	17387
830.802	17284
830.941	17155
831.08	17181
831.219	17128
831.357	17303
831.496	17421
831.635	17220
831.774	17052
831.913	17045
832.051	16965
832.19	16949
832.329	17056
832.467	16889
832.606	16847
832.744	16820
832.883	16843
833.022	16991
833.16	16812
833.299	16877
833.437	16923
833.576	16938
833.714	16930
833.852	16896
833.991	16930
834.129	16965
834.267	16934
834.406	16919
834.544	17006
834.682	16953
834.821	16847
834.959	16976
835.097	16858
835.235	16980
835.373	16877
835.511	16915
835.65	16805
835.788	16809
835.926	16675
836.064	16531
836.202	16596
836.34	16858
836.478	16980
836.615	16793
836.753	16938
836.891	16869
837.029	16820
837.167	16706
837.305	16786
837.443	16584
837.58	16603
837.718	16782
837.856	16752
837.993	16599
838.131	16713
838.269	16611
838.406	16485
838.544	16459
838.681	16443
838.819	16409
838.956	16169
839.094	16306
839.231	16299
839.369	16386
839.506	16573
839.643	16615
839.781	16246
839.918	16109
840.055	16287
840.193	16154
840.33	16135
840.467	16196
840.604	16352
840.742	16474
840.879	16090
841.016	16135
841.153	16124
841.29	16272
841.427	16230
841.564	16268
841.701	16105
841.838	16124
841.975	16135
842.112	16162
842.249	16063
842.385	15918
842.522	16143
842.659	16078
842.796	16002
842.933	15968
843.069	15934
843.206	16025
843.343	15975
843.479	16025
843.616	16063
843.752	15759
843.889	15819
844.025	16002
844.162	15759
844.298	15823
844.435	15762
844.571	15682
844.708	15785
844.844	15964
844.98	16002
845.117	15903
845.253	15816
845.389	15720
845.525	15926
845.661	15755
845.798	15713
845.934	15808
846.07	15789
846.206	15823
846.342	15835
846.478	15641
846.614	15511
846.75	15317
846.886	15412
847.022	15428
847.158	15420
847.294	15386
847.429	15359
847.565	15260
847.701	15576
847.837	15077
847.972	14963
848.108	15097
848.244	15093
848.379	14948
848.515	14902
848.65	14952
848.786	14887
848.921	14952
849.057	15051
849.192	14982
849.328	14975
849.463	14925
849.598	14857
849.734	14868
849.869	14815
850.004	14701
850.14	14697
850.275	14781
850.41	14594
850.545	14670
850.68	14663
850.815	14655
850.95	14636
851.085	14910
851.22	14804
851.355	14708
851.49	14731
851.625	14754
851.76	14678
851.895	14659
852.03	14583
852.165	14712
852.299	14762
852.434	14727
852.569	14667
852.703	14716
852.838	14819
852.973	14842
853.107	14804
853.242	14686
853.376	14530
853.511	14484
853.645	14629
853.78	14625
853.914	14526
854.048	14636
854.183	14537
854.317	14640
854.451	14731
854.585	14583
854.72	14587
854.854	14697
854.988	14465
855.122	14518
855.256	14461
855.39	14526
855.524	14617
855.658	14522
855.792	14625
855.926	14613
856.06	14571
856.194	14648
856.327	14507
856.461	14480
856.595	14499
856.729	14583
856.862	14781
856.996	14575
857.13	14705
857.263	14712
857.397	14686
857.53	14545
857.664	14731
857.797	14659
857.931	14659
858.064	14648
858.197	14682
858.331	14640
858.464	14533
858.597	14465
858.731	14575
858.864	14522
858.997	14427
859.13	14625
859.263	14594
859.396	14765
859.529	14583
859.662	14545
859.795	14571
859.928	14575
860.061	14762
860.194	14712
860.327	14625
860.46	14602
860.592	14731
860.725	14743
860.858	14701
860.99	14454
861.123	14412
861.256	14438
861.388	14526
861.521	15173
861.653	14549
861.786	14408
861.918	14518
862.05	14400
862.183	14507
862.315	14621
862.447	14579
862.58	14560
862.712	14195
862.844	14267
862.976	14400
863.108	14343
863.24	14701
863.372	14244
863.504	14438
863.636	14305
863.768	14336
863.9	14290
864.032	14282
864.164	14336
864.296	14400
864.428	14412
864.559	14522
864.691	14446
864.823	14339
864.954	14419
865.086	14366
865.217	14374
865.349	14252
865.48	14309
865.612	14347
865.743	14450
865.875	14347
866.006	14355
866.137	14358
866.269	14442
866.4	14389
866.531	14199
866.662	14317
866.793	14229
866.924	14214
867.055	14343
867.186	14301
867.317	14301
867.448	14278
867.579	14282
867.71	14218
867.841	14240
867.972	14225
868.103	14271
868.233	14343
868.364	14229
868.495	14393
868.625	14533
868.756	14655
868.886	14457
869.017	14579
869.147	14655
869.278	14788
869.408	14571
869.539	14575
869.669	14648
869.799	14583
869.929	14625
870.06	14712
870.19	14925
870.32	14815
870.45	14891
870.58	14925
870.71	15051
870.84	15043
870.97	15066
871.1	14979
871.23	15062
871.36	15245
871.489	15032
871.619	15100
871.749	15112
871.879	15157
872.008	15275
872.138	15211
872.267	15218
872.397	15032
872.526	15020
872.656	14944
872.785	14990
872.915	15081
873.044	15279
873.173	15108
873.303	15249
873.432	15272
873.561	15412
873.69	15222
873.819	15154
873.948	15313
874.077	15260
874.206	15287
874.335	15127
874.464	15431
874.593	15511
874.722	15466
874.851	15557
874.979	15526
875.108	15523
875.237	15504
875.365	15515
875.494	15496
875.623	15576
875.751	15492
875.88	15507
876.008	15584
876.136	15682
876.265	15884
876.393	16090
876.521	15915
876.65	15945
876.778	15983
876.906	15838
877.034	15911
877.162	15979
877.29	15850
877.418	15922
877.546	15956
877.674	15979
877.802	15956
877.93	15911
878.058	15972
878.185	15827
878.313	15987
878.441	15972
878.568	15770
878.696	15869
878.824	15960
878.951	15968
879.079	16131
879.206	16215
879.333	16181
879.461	15972
879.588	16120
879.715	16234
879.842	16363
879.97	16097
880.097	15915
880.224	15728
880.351	15831
880.478	15808
880.605	15865
880.732	15876
880.859	15994
880.986	15880
881.112	15850
881.239	15701
881.366	15580
881.493	15515
881.619	15428
881.746	15488
881.872	15428
881.999	15408
882.125	15469
882.252	15454
882.378	15477
882.505	15557
882.631	15336
882.757	15233
882.883	15313
883.01	15363
883.136	15146
883.262	15195
883.388	15116
883.514	15260
883.64	15302
883.766	15184
883.892	15058
884.018	15127
884.143	15275
884.269	15412
884.395	15055
884.52	14971
884.646	14986
884.772	14944
884.897	14880
885.023	14929
885.148	15100
885.274	15165
885.399	15070
885.524	15047
885.65	14979
885.775	15020
885.9	14899
886.025	14998
886.15	15013
886.275	14921
886.4	14880
886.525	15119
886.65	14743
886.775	15013
886.9	15028
887.025	15097
887.149	15066
887.274	14811
887.399	14815
887.523	14758
887.648	14739
887.773	14613
887.897	14895
888.021	14842
888.146	14777
888.27	14880
888.395	14986
888.519	14925
888.643	14792
888.767	14823
888.891	14575
889.015	14564
889.139	14708
889.263	14621
889.387	14811
889.511	14788
889.635	14743
889.759	14629
889.883	14617
890.006	14731
890.13	14746
890.254	14537
890.377	14587
890.501	14469
890.624	14415
890.748	14537
890.871	14282
890.995	14362
891.118	14240
891.241	14278
891.364	14358
891.488	14450
891.611	14313
891.734	14305
891.857	14396
891.98	14381
892.103	14427
892.226	14412
892.349	14393
892.471	14111
892.594	14301
892.717	14358
892.839	14256
892.962	14309
893.085	14377
893.207	14252
893.33	14252
893.452	14275
893.575	14358
893.697	14309
893.819	14511
893.941	14503
894.064	14400
894.186	14252
894.308	14358
894.43	14511
894.552	14522
894.674	14438
894.796	14244
894.918	14332
895.04	14252
895.161	14446
895.283	14438
895.405	14377
895.526	14370
895.648	14351
895.769	14507
895.891	14507
896.012	14575
896.134	14507
896.255	14442
896.376	14492
896.498	14476
896.619	14587
896.74	14556
896.861	14507
896.982	14819
897.103	14956
897.224	14800
897.345	14743
897.466	14708
897.587	14769
897.708	14796
897.828	14891
897.949	14697
898.07	14621
898.19	14758
898.311	14883
898.431	14762
898.552	14819
898.672	14941
898.792	14857
898.913	14823
899.033	14712
899.153	14701
899.273	14648
899.393	14743
899.513	14735
899.633	14777
899.753	14777
899.873	14621
899.993	14777
900.113	14754
900.232	14811
900.352	14697
900.472	14602
900.591	14545
900.711	14617
900.83	14469
900.95	14727
901.069	14716
901.189	14537
901.308	14282
901.427	14164
901.546	14290
901.665	14282
901.784	14259
901.904	14100
902.023	14054
902.141	13875
902.26	13803
902.379	13887
902.498	13746
902.617	13738
902.735	13894
902.854	13856
902.973	13715
903.091	13597
903.21	13468
903.328	13480
903.446	13476
903.565	13324
903.683	13308
903.801	13198
903.919	13403
904.038	13339
904.156	13285
904.274	13274
904.392	13099
904.51	13194
904.627	13194
904.745	13149
904.863	13285
904.981	13000
905.098	12901
905.216	12852
905.334	12825
905.451	12821
905.569	12856
905.686	12916
905.803	12878
905.921	12616
906.038	12840
906.155	12787
906.272	12604
906.389	12635
906.506	12437
906.623	12475
906.74	12464
906.857	12327
906.974	12311
907.091	12521
907.208	12555
907.324	12407
907.441	12315
907.557	12262
907.674	12205
907.79	12136
907.907	12171
908.023	12281
908.139	12213
908.256	12205
908.372	12152
908.488	12041
908.604	12003
908.72	11912
908.836	11988
908.952	11984
909.068	11889
909.184	12045
909.3	11946
909.415	12049
909.531	11988
909.647	11828
909.762	11699
909.878	11714
909.993	11695
910.108	11699
910.224	11718
910.339	11653
910.454	11608
910.57	11524
910.685	11543
910.8	11798
910.915	11760
911.03	11573
911.145	11524
911.259	11406
911.374	11368
911.489	11261
911.604	11280
911.718	11189
911.833	11193
911.947	11105
912.062	10995
912.176	11124
912.291	11155
912.405	11128
912.519	11315
912.633	11330
912.748	11250
912.862	11151
912.976	11071
913.09	10953
913.204	10991
913.318	10999
913.431	11155
913.545	11147
913.659	11170
913.772	11067
913.886	10927
914	10850
914.113	11037
914.226	11094
914.34	10980
914.453	10805
914.566	10995
914.68	10904
914.793	10782
914.906	10668
915.019	10645
915.132	10630
915.245	10687
915.358	10694
915.47	10573
915.583	10672
915.696	10683
915.809	10759
915.921	10850
916.034	10649
916.146	10649
916.259	10634
916.371	10797
916.483	10691
916.595	10561
916.708	10649
916.82	10675
916.932	10573
917.044	10596
917.156	10497
917.268	10470
917.38	10390
917.491	10466
917.603	10470
917.715	10580
917.826	10580
917.938	10493
918.049	10386
918.161	10478
918.272	10573
918.384	10710
918.495	10577
918.606	10333
918.717	10344
918.828	10386
918.939	10409
919.05	10276
919.161	10348
919.272	10166
919.383	10242
919.494	10440
919.604	10565
919.715	10405
919.826	10367
919.936	10299
920.047	10409
920.157	10390
920.267	10618
920.378	10428
920.488	10390
920.598	10611
920.708	10748
920.818	10569
920.928	10569
921.038	10694
921.148	10694
921.258	10386
921.368	10276
921.477	10223
921.587	10173
921.697	10105
921.806	10257
921.916	10128
922.025	9972
922.134	9926
922.244	9918
922.353	9899
922.462	9854
922.571	9743
922.68	9606
922.789	9652
922.898	9610
923.007	9504
923.116	9667
923.224	9568
923.333	9568
923.442	9439
923.55	9549
923.659	9561
923.767	9504
923.876	9507
923.984	9584
924.092	9485
924.201	9473
924.309	9523
924.417	9572
924.525	9420
924.633	9454
924.741	10318
924.849	9241
924.956	9450
925.064	9233
925.172	9146
925.279	9253
925.387	9283
925.494	9199
925.602	9378
925.709	9386
925.816	9211
925.924	9302
926.031	9378
926.138	9317
926.245	9249
926.352	9184
926.459	9405
926.566	9378
926.673	9245
926.779	9104
926.886	9089
926.993	8986
927.099	8963
927.206	8918
927.312	8906
927.419	8971
927.525	8952
927.631	9020
927.737	8921
927.843	8842
927.95	8777
928.056	8853
928.162	8872
928.267	8944
928.373	9454
928.479	8998
928.585	8766
928.69	8868
928.796	8906
928.901	8724
929.007	8590
929.112	8811
929.218	8804
929.323	8674
929.428	8644
929.533	8842
929.638	8655
929.743	8644
929.848	8739
929.953	8686
930.058	8564
930.163	8480
930.267	8454
930.372	8655
930.477	8438
930.581	8716
930.685	8575
930.79	8408
930.894	8530
930.998	8290
931.103	8552
931.207	8157
931.311	8123
931.415	8046
931.519	7883
931.623	7860
