Data from test_V78500241_890.txt Node
Date: Fri Mar 25 14:39:54 CST 2022
User: usil
Spectrometer: V785-0024
Trigger mode: 0
Integration Time (sec): 4.000000E-1
Scans to average: 1
Nonlinearity correction enabled: false
Boxcar width: 0
Storing dark spectrum: false
XAxis mode: Wavelengths
Number of Pixels in Spectrum: 1024
>>>>>Begin Spectral Data<<<<<
801.071	25259
801.214	25050
801.356	24909
801.499	24951
801.641	24787
801.783	24593
801.926	24707
802.068	24517
802.211	24521
802.353	24437
802.496	24159
802.638	24083
802.78	24110
802.923	24091
803.065	23973
803.208	23965
803.35	23996
803.492	24095
803.635	24060
803.777	24038
803.919	24064
804.061	24334
804.204	24045
804.346	24087
804.488	23897
804.63	24045
804.773	23870
804.915	24049
805.057	24232
805.199	24003
805.341	24174
805.483	24216
805.626	24155
805.768	24114
805.91	24186
806.052	24194
806.194	24140
806.336	24544
806.478	24384
806.62	24220
806.762	24525
806.904	24730
807.046	25084
807.188	25042
807.33	25080
807.472	25381
807.614	25430
807.756	25639
807.898	26103
808.04	26309
808.182	26807
808.324	27591
808.465	28386
808.607	29341
808.749	30174
808.891	30848
809.033	30726
809.174	30148
809.316	29197
809.458	28523
809.6	27717
809.741	26914
809.883	26412
810.025	26058
810.166	25898
810.308	25563
810.45	25422
810.591	25171
810.733	24890
810.875	24719
811.016	24715
811.158	24551
811.299	24734
811.441	24669
811.582	24726
811.724	24525
811.865	24437
812.007	24471
812.148	24391
812.29	24388
812.431	24471
812.573	24856
812.714	24829
812.855	24852
812.997	24924
813.138	24996
813.279	24897
813.421	24890
813.562	24726
813.703	24532
813.845	24528
813.986	24030
814.127	23992
814.268	23893
814.41	23882
814.551	23920
814.692	24011
814.833	23630
814.974	23767
815.115	23680
815.256	23592
815.397	23687
815.539	23604
815.68	23592
815.821	23478
815.962	23585
816.103	23467
816.244	23360
816.385	23185
816.526	23159
816.666	22965
816.807	22946
816.948	22976
817.089	22965
817.23	22957
817.371	22892
817.512	22774
817.653	22850
817.793	22759
817.934	22672
818.075	22885
818.216	22729
818.356	22778
818.497	22725
818.638	22519
818.778	22508
818.919	22531
819.06	22694
819.2	22596
819.341	22630
819.481	22733
819.622	22736
819.762	22995
819.903	22885
820.043	22790
820.184	22786
820.324	22767
820.465	22850
820.605	22786
820.746	22710
820.886	22577
821.026	22637
821.167	22664
821.307	22721
821.447	22599
821.588	22455
821.728	22447
821.868	22070
822.008	22154
822.149	22044
822.289	22109
822.429	21759
822.569	21880
822.709	21823
822.849	21724
822.99	21458
823.13	21389
823.27	21336
823.41	21222
823.55	21260
823.69	21245
823.83	21351
823.97	21283
824.11	21241
824.25	21116
824.389	21043
824.529	21218
824.669	21028
824.809	21207
824.949	21184
825.089	21142
825.228	21074
825.368	20998
825.508	20880
825.648	20994
825.787	20982
825.927	20960
826.067	20826
826.206	20861
826.346	20883
826.485	20960
826.625	20807
826.765	21020
826.904	20842
827.044	20613
827.183	20587
827.323	20541
827.462	20583
827.601	20473
827.741	20461
827.88	20541
828.02	20431
828.159	20602
828.298	20393
828.437	20571
828.577	20461
828.716	20575
828.855	20404
828.994	20298
829.134	20233
829.273	20400
829.412	20157
829.551	20195
829.69	20187
829.829	20206
829.968	20339
830.107	20221
830.246	20122
830.385	20221
830.524	20054
830.663	20039
830.802	19940
830.941	19826
831.08	19715
831.219	19917
831.357	19936
831.496	20130
831.635	19845
831.774	19723
831.913	19693
832.051	19647
832.19	19693
832.329	19677
832.467	19594
832.606	19434
832.744	19578
832.883	19426
833.022	19605
833.16	19639
833.299	19685
833.437	19719
833.576	19700
833.714	19712
833.852	19841
833.991	19841
834.129	19898
834.267	19826
834.406	19845
834.544	19902
834.682	19807
834.821	19746
834.959	19791
835.097	19597
835.235	19704
835.373	19537
835.511	19635
835.65	19521
835.788	19392
835.926	19183
836.064	19179
836.202	19160
836.34	19426
836.478	19487
836.615	19327
836.753	19381
836.891	19445
837.029	19396
837.167	19266
837.305	19213
837.443	19160
837.58	19110
837.718	19282
837.856	19209
837.993	19061
838.131	19213
838.269	19103
838.406	19190
838.544	18954
838.681	18852
838.819	18844
838.956	18673
839.094	18654
839.231	18719
839.369	18722
839.506	18981
839.643	18962
839.781	18692
839.918	18566
840.055	18582
840.193	18730
840.33	18745
840.467	18544
840.604	18673
840.742	18810
840.879	18528
841.016	18513
841.153	18494
841.29	18745
841.427	18597
841.564	18578
841.701	18437
841.838	18532
841.975	18585
842.112	18559
842.249	18414
842.385	18277
842.522	18528
842.659	18372
842.796	18285
842.933	18353
843.069	18319
843.206	18251
843.343	18486
843.479	18475
843.616	18395
843.752	18209
843.889	18152
844.025	18357
844.162	18266
844.298	18479
844.435	18258
844.571	18281
844.708	18426
844.844	18669
844.98	18696
845.117	18829
845.253	19015
845.389	19362
845.525	20229
845.661	21656
845.798	23501
845.934	24817
846.07	25506
846.206	25358
846.342	24140
846.478	22196
846.614	20659
846.75	19483
846.886	18753
847.022	18639
847.158	18224
847.294	17992
847.429	17977
847.565	17912
847.701	18007
847.837	17608
847.972	17535
848.108	17627
848.244	17463
848.379	17318
848.515	17254
848.65	17284
848.786	17197
848.921	17322
849.057	17356
849.192	17391
849.328	17261
849.463	17269
849.598	17109
849.734	17273
849.869	17079
850.004	16995
850.14	17014
850.275	16976
850.41	16850
850.545	16949
850.68	16953
850.815	16889
850.95	17003
851.085	17128
851.22	17075
851.355	16961
851.49	16934
851.625	16965
851.76	16923
851.895	16881
852.03	16885
852.165	16828
852.299	17094
852.434	17003
852.569	17033
852.703	17060
852.838	17086
852.973	17128
853.107	17155
853.242	16968
853.376	16805
853.511	16771
853.645	16820
853.78	16919
853.914	16896
854.048	16934
854.183	16896
854.317	16987
854.451	17041
854.585	16885
854.72	16850
854.854	16972
854.988	16721
855.122	16869
855.256	16729
855.39	16793
855.524	16938
855.658	16847
855.792	16927
855.926	16896
856.06	16828
856.194	16862
856.327	16748
856.461	16778
856.595	16786
856.729	16843
856.862	16976
856.996	16850
857.13	16850
857.263	16850
857.397	16896
857.53	16812
857.664	16866
857.797	16831
857.931	16923
858.064	16809
858.197	16885
858.331	16763
858.464	16710
858.597	16656
858.731	16721
858.864	16755
858.997	16755
859.13	16721
859.263	16736
859.396	16786
859.529	16843
859.662	16679
859.795	16634
859.928	16801
860.061	16862
860.194	16862
860.327	16752
860.46	16729
860.592	16839
860.725	16805
860.858	16850
860.99	16725
861.123	16702
861.256	16653
861.388	16660
861.521	17429
861.653	16656
861.786	16565
861.918	16554
862.05	16649
862.183	16675
862.315	16748
862.447	16831
862.58	16668
862.712	16417
862.844	16394
862.976	16421
863.108	16546
863.24	16930
863.372	16432
863.504	16500
863.636	16386
863.768	16485
863.9	16470
864.032	16421
864.164	16428
864.296	16523
864.428	16550
864.559	16592
864.691	16436
864.823	16519
864.954	16443
865.086	16466
865.217	16470
865.349	16363
865.48	16554
865.612	16337
865.743	16478
865.875	16390
866.006	16352
866.137	16474
866.269	16344
866.4	16459
866.531	16447
866.662	16367
866.793	16318
866.924	16295
867.055	16440
867.186	16428
867.317	16363
867.448	16196
867.579	16363
867.71	16333
867.841	16360
867.972	16413
868.103	16375
868.233	16409
868.364	16424
868.495	16474
868.625	16645
868.756	16691
868.886	16542
869.017	16622
869.147	16645
869.278	16736
869.408	16599
869.539	16634
869.669	16717
869.799	16713
869.929	16755
870.06	16790
870.19	17045
870.32	16999
870.45	17003
870.58	17052
870.71	17045
870.84	17117
870.97	17006
871.1	17132
871.23	17250
871.36	17178
871.489	17231
871.619	17223
871.749	17212
871.879	17227
872.008	17410
872.138	17288
872.267	17246
872.397	17223
872.526	17132
872.656	17041
872.785	17124
872.915	17318
873.044	17406
873.173	17383
873.303	17303
873.432	17349
873.561	17448
873.69	17410
873.819	17296
873.948	17417
874.077	17471
874.206	17383
874.335	17490
874.464	17520
874.593	17691
874.722	17676
874.851	17809
874.979	17718
875.108	17752
875.237	17600
875.365	17695
875.494	17764
875.623	17828
875.751	17623
875.88	17752
876.008	17920
876.136	18102
876.265	18228
876.393	18311
876.521	18300
876.65	18388
876.778	18273
876.906	18155
877.034	18239
877.162	18429
877.29	18258
877.418	18403
877.546	18330
877.674	18361
877.802	18369
877.93	18414
878.058	18464
878.185	18418
878.313	18703
878.441	18665
878.568	18677
878.696	18958
878.824	19148
878.951	19495
879.079	20020
879.206	20651
879.333	21157
879.461	21332
879.588	21926
879.715	21918
879.842	21804
879.97	21043
880.097	20343
880.224	19890
880.351	19632
880.478	19274
880.605	19156
880.732	19126
880.859	19225
880.986	18924
881.112	19015
881.239	18757
881.366	18578
881.493	18540
881.619	18536
881.746	18559
881.872	18566
881.999	18494
882.125	18551
882.252	18608
882.378	18604
882.505	18821
882.631	18559
882.757	18422
882.883	18467
883.01	18471
883.136	18365
883.262	18266
883.388	18209
883.514	18509
883.64	18429
883.766	18270
883.892	18224
884.018	18273
884.143	18388
884.269	18418
884.395	18114
884.52	18026
884.646	18083
884.772	18167
884.897	17977
885.023	18057
885.148	18171
885.274	18129
885.399	18205
885.524	18057
885.65	17908
885.775	17931
885.9	17866
886.025	17973
886.15	17927
886.275	17802
886.4	17684
886.525	17775
886.65	17623
886.775	17463
886.9	17813
887.025	17790
887.149	17585
887.274	17524
887.399	17337
887.523	17414
887.648	17254
887.773	17284
887.897	17277
888.021	17376
888.146	17204
888.27	17353
888.395	17356
888.519	17330
888.643	17280
888.767	17261
888.891	17060
889.015	16911
889.139	17003
889.263	16881
889.387	17048
889.511	17273
889.635	17060
889.759	16972
889.883	16957
890.006	16991
890.13	17025
890.254	16957
890.377	16911
890.501	16733
890.624	16607
890.748	16759
890.871	16713
890.995	16500
891.118	16478
891.241	16542
891.364	16497
891.488	16607
891.611	16519
891.734	16500
891.857	16584
891.98	16462
892.103	16542
892.226	16542
892.349	16523
892.471	16200
892.594	16409
892.717	16466
892.839	16398
892.962	16462
893.085	16443
893.207	16428
893.33	16219
893.452	16344
893.575	16390
893.697	16363
893.819	16516
893.941	16588
894.064	16371
894.186	16265
894.308	16226
894.43	16409
894.552	16474
894.674	16432
894.796	16303
894.918	16322
895.04	16299
895.161	16508
895.283	16352
895.405	16295
895.526	16402
895.648	16226
895.769	16447
895.891	16341
896.012	16443
896.134	16352
896.255	16379
896.376	16367
896.498	16432
896.619	16413
896.74	16386
896.861	16504
896.982	16683
897.103	16927
897.224	16683
897.345	16603
897.466	16508
897.587	16668
897.708	16649
897.828	16634
897.949	16558
898.07	16531
898.19	16584
898.311	16729
898.431	16634
898.552	16740
898.672	16824
898.792	16759
898.913	16752
899.033	16592
899.153	16523
899.273	16421
899.393	16512
899.513	16470
899.633	16565
899.753	16535
899.873	16569
899.993	16481
900.113	16474
900.232	16596
900.352	16516
900.472	16386
900.591	16402
900.711	16367
900.83	16440
900.95	16417
901.069	16436
901.189	16291
901.308	16207
901.427	16025
901.546	16112
901.665	16006
901.784	16051
901.904	15994
902.023	15865
902.141	15778
902.26	15515
902.379	15572
902.498	15504
902.617	15424
902.735	15564
902.854	15542
902.973	15370
903.091	15195
903.21	15241
903.328	15302
903.446	15142
903.565	15009
903.683	14933
903.801	15013
903.919	15024
904.038	14933
904.156	14781
904.274	14853
904.392	14792
904.51	14838
904.627	14724
904.745	14777
904.863	14830
904.981	14621
905.098	14400
905.216	14351
905.334	14492
905.451	14454
905.569	14377
905.686	14469
905.803	14476
905.921	14225
906.038	14370
906.155	14294
906.272	14142
906.389	14161
906.506	13970
906.623	13856
906.74	14024
906.857	13879
906.974	13864
907.091	14107
907.208	14081
907.324	13986
907.441	13909
907.557	13727
907.674	13670
907.79	13590
907.907	13624
908.023	13636
908.139	13655
908.256	13624
908.372	13578
908.488	13552
908.604	13438
908.72	13304
908.836	13499
908.952	13449
909.068	13403
909.184	13499
909.3	13483
909.415	13457
909.531	13377
909.647	13122
909.762	13187
909.878	13137
909.993	13133
910.108	13156
910.224	13179
910.339	13019
910.454	13000
910.57	13031
910.685	12875
910.8	13145
910.915	13099
911.03	13034
911.145	12722
911.259	12730
911.374	12871
911.489	12760
911.604	12764
911.718	12506
911.833	12483
911.947	12338
912.062	12357
912.176	12433
912.291	12486
912.405	12494
912.519	12673
912.633	12673
912.748	12578
912.862	12555
912.976	12388
913.09	12273
913.204	12289
913.318	12376
913.431	12517
913.545	12437
913.659	12494
913.772	12426
913.886	12254
914	12254
914.113	12361
914.226	12372
914.34	12308
914.453	12167
914.566	12353
914.68	12254
914.793	12121
914.906	11946
915.019	11973
915.132	11874
915.245	11946
915.358	11927
915.47	11950
915.583	11958
915.696	12064
915.809	12083
915.921	12114
916.034	11916
916.146	11874
916.259	11897
916.371	12003
916.483	11969
916.595	11931
916.708	11874
916.82	11901
916.932	11882
917.044	11863
917.156	11863
917.268	11714
917.38	11824
917.491	11695
917.603	11809
917.715	11870
917.826	11786
917.938	11703
918.049	11729
918.161	11684
918.272	11843
918.384	11824
918.495	11722
918.606	11570
918.717	11554
918.828	11551
918.939	11608
919.05	11547
919.161	11577
919.272	11410
919.383	11356
919.494	11600
919.604	11855
919.715	11726
919.826	11562
919.936	11543
920.047	11608
920.157	11634
920.267	11775
920.378	11611
920.488	11551
920.598	11885
920.708	11916
920.818	11756
920.928	11783
921.038	12034
921.148	11863
921.258	11615
921.368	11528
921.477	11368
921.587	11360
921.697	11280
921.806	11417
921.916	11269
922.025	11090
922.134	11113
922.244	11033
922.353	11117
922.462	11041
922.571	10953
922.68	10816
922.789	10782
922.898	10767
923.007	10740
923.116	10763
923.224	10828
923.333	10767
923.442	10615
923.55	10599
923.659	10687
923.767	10778
923.876	10599
923.984	10603
924.092	10569
924.201	10538
924.309	10592
924.417	10603
924.525	10481
924.633	10558
924.741	11273
924.849	10382
924.956	10462
925.064	10333
925.172	10303
925.279	10329
925.387	10344
925.494	10382
925.602	10462
925.709	10379
925.816	10333
925.924	10333
926.031	10402
926.138	10322
926.245	10398
926.352	10253
926.459	10402
926.566	10432
926.673	10268
926.779	10185
926.886	10135
926.993	10025
927.099	10006
927.206	10017
927.312	9991
927.419	10013
927.525	10059
927.631	10048
927.737	9895
927.843	9930
927.95	9736
928.056	9846
928.162	9926
928.267	9915
928.373	10618
928.479	9994
928.585	9736
928.69	9888
928.796	9854
928.901	9857
929.007	9622
929.112	9740
929.218	9816
929.323	9652
929.428	9679
929.533	9827
929.638	9663
929.743	9728
929.848	9614
929.953	9652
930.058	9557
930.163	9405
930.267	9477
930.372	9572
930.477	9447
930.581	9660
930.685	9542
930.79	9378
930.894	9378
930.998	9287
931.103	9408
931.207	9165
931.311	9104
931.415	8975
931.519	8804
931.623	8777
