Data from test_V78500241_3329.txt Node
Date: Fri Mar 25 14:56:53 CST 2022
User: usil
Spectrometer: V785-0024
Trigger mode: 0
Integration Time (sec): 4.000000E-1
Scans to average: 1
Nonlinearity correction enabled: false
Boxcar width: 0
Storing dark spectrum: false
XAxis mode: Wavelengths
Number of Pixels in Spectrum: 1024
>>>>>Begin Spectral Data<<<<<
801.071	21949
801.214	21918
801.356	21671
801.499	21500
801.641	21336
801.783	21382
801.926	21485
802.068	21226
802.211	21047
802.353	21233
802.496	20857
802.638	20864
802.78	20845
802.923	20674
803.065	20598
803.208	20682
803.35	20708
803.492	20758
803.635	20826
803.777	20663
803.919	20724
804.061	20960
804.204	20625
804.346	20503
804.488	20579
804.63	20594
804.773	20507
804.915	20670
805.057	20792
805.199	20488
805.341	20602
805.483	20708
805.626	20644
805.768	20522
805.91	20590
806.052	20663
806.194	20495
806.336	20743
806.478	20560
806.62	20415
806.762	20651
806.904	20785
807.046	20960
807.188	20754
807.33	20819
807.472	20952
807.614	20849
807.756	20823
807.898	20568
808.04	20693
808.182	20617
808.324	20598
808.465	20762
808.607	20895
808.749	20967
808.891	20971
809.033	21100
809.174	20933
809.316	20743
809.458	20792
809.6	20883
809.741	21089
809.883	21013
810.025	21116
810.166	21058
810.308	20948
810.45	20876
810.591	20948
810.733	20743
810.875	20575
811.016	20492
811.158	20663
811.299	20663
811.441	20769
811.582	20796
811.724	20697
811.865	20655
812.007	20568
812.148	20606
812.29	20739
812.431	20910
812.573	20849
812.714	21058
812.855	21135
812.997	21192
813.138	21386
813.279	21260
813.421	21214
813.562	21070
813.703	20925
813.845	20701
813.986	20526
814.127	20503
814.268	20275
814.41	20305
814.551	20278
814.692	20259
814.833	20168
814.974	20202
815.115	20187
815.256	20016
815.397	20073
815.539	20069
815.68	19871
815.821	19902
815.962	19993
816.103	19978
816.244	19738
816.385	19677
816.526	19670
816.666	19609
816.807	19331
816.948	19537
817.089	19537
817.23	19472
817.371	19320
817.512	19244
817.653	19369
817.793	19259
817.934	19381
818.075	19327
818.216	19331
818.356	19168
818.497	19171
818.638	19038
818.778	19107
818.919	19107
819.06	19110
819.2	19175
819.341	19110
819.481	19240
819.622	19388
819.762	19559
819.903	19464
820.043	19377
820.184	19350
820.324	19308
820.465	19396
820.605	19259
820.746	19324
820.886	19183
821.026	19301
821.167	19324
821.307	19320
821.447	19228
821.588	19187
821.728	19069
821.868	19012
822.008	18806
822.149	18779
822.289	18734
822.429	18464
822.569	18418
822.709	18403
822.849	18266
822.99	18152
823.13	18182
823.27	18159
823.41	18083
823.55	17912
823.69	17992
823.83	17992
823.97	18015
824.11	17908
824.25	17805
824.389	17737
824.529	17802
824.669	17779
824.809	17916
824.949	17874
825.089	17897
825.228	17840
825.368	17630
825.508	17585
825.648	17642
825.787	17566
825.927	17627
826.067	17634
826.206	17642
826.346	17680
826.485	17573
826.625	17486
826.765	17665
826.904	17528
827.044	17292
827.183	17330
827.323	17296
827.462	17273
827.601	17261
827.741	17250
827.88	17307
828.02	17029
828.159	17345
828.298	17250
828.437	17277
828.577	17204
828.716	17398
828.855	17140
828.994	17029
829.134	16965
829.273	17098
829.412	16930
829.551	17098
829.69	17067
829.829	17075
829.968	17151
830.107	17185
830.246	17083
830.385	16881
830.524	16919
830.663	16896
830.802	16763
830.941	16645
831.08	16607
831.219	16736
831.357	16717
831.496	16896
831.635	16664
831.774	16504
831.913	16706
832.051	16474
832.19	16421
832.329	16466
832.467	16371
832.606	16265
832.744	16363
832.883	16299
833.022	16314
833.16	16402
833.299	16466
833.437	16447
833.576	16356
833.714	16356
833.852	16447
833.991	16470
834.129	16367
834.267	16451
834.406	16481
834.544	16436
834.682	16398
834.821	16402
834.959	16660
835.097	16379
835.235	16546
835.373	16440
835.511	16478
835.65	16344
835.788	16242
835.926	16204
836.064	16143
836.202	16219
836.34	16428
836.478	16306
836.615	16344
836.753	16379
836.891	16455
837.029	16424
837.167	16306
837.305	16360
837.443	16150
837.58	16230
837.718	16253
837.856	16207
837.993	16223
838.131	16166
838.269	16173
838.406	16177
838.544	16105
838.681	16010
838.819	15964
838.956	15743
839.094	15838
839.231	15800
839.369	15861
839.506	16185
839.643	16067
839.781	15793
839.918	15751
840.055	15827
840.193	15732
840.33	15819
840.467	15759
840.604	15766
840.742	15922
840.879	15606
841.016	15667
841.153	15618
841.29	15766
841.427	15759
841.564	15713
841.701	15717
841.838	15713
841.975	15587
842.112	15793
842.249	15564
842.385	15587
842.522	15732
842.659	15435
842.796	15622
842.933	15545
843.069	15553
843.206	15443
843.343	15709
843.479	15515
843.616	15576
843.752	15389
843.889	15348
844.025	15431
844.162	15294
844.298	15428
844.435	15329
844.571	15237
844.708	15393
844.844	15485
844.98	15504
845.117	15481
845.253	15428
845.389	15237
845.525	15329
845.661	15237
845.798	15077
845.934	15169
846.07	15104
846.206	15066
846.342	15260
846.478	15058
846.614	14895
846.75	14891
846.886	14906
847.022	14971
847.158	14910
847.294	14982
847.429	14941
847.565	14948
847.701	15150
847.837	14613
847.972	14655
848.108	14708
848.244	14629
848.379	14545
848.515	14415
848.65	14488
848.786	14484
848.921	14568
849.057	14533
849.192	14617
849.328	14530
849.463	14526
849.598	14408
849.734	14419
849.869	14427
850.004	14355
850.14	14199
850.275	14275
850.41	14176
850.545	14202
850.68	14324
850.815	14271
850.95	14202
851.085	14431
851.22	14370
851.355	14271
851.49	14294
851.625	14149
851.76	14157
851.895	14256
852.03	14107
852.165	14328
852.299	14328
852.434	14355
852.569	14271
852.703	14259
852.838	14343
852.973	14454
853.107	14476
853.242	14275
853.376	14172
853.511	14046
853.645	14107
853.78	14240
853.914	14077
854.048	14103
854.183	14088
854.317	14176
854.451	14347
854.585	14202
854.72	14043
854.854	14225
854.988	14043
855.122	14199
855.256	13997
855.39	14073
855.524	14199
855.658	14240
855.792	14199
855.926	14183
856.06	14119
856.194	14240
856.327	14062
856.461	14111
856.595	14107
856.729	14126
856.862	14183
856.996	14195
857.13	14229
857.263	14267
857.397	14187
857.53	14126
857.664	14199
857.797	14324
857.931	14259
858.064	14123
858.197	14210
858.331	14115
858.464	14111
858.597	14031
858.731	14062
858.864	14111
858.997	14126
859.13	14202
859.263	14187
859.396	14157
859.529	14100
859.662	14244
859.795	14111
859.928	14210
860.061	14385
860.194	14328
860.327	14240
860.46	14187
860.592	14317
860.725	14336
860.858	14301
860.99	14073
861.123	14031
861.256	14035
861.388	14111
861.521	14838
861.653	14016
861.786	13944
861.918	13974
862.05	14058
862.183	14084
862.315	14123
862.447	14126
862.58	14077
862.712	13883
862.844	13841
862.976	14100
863.108	13940
863.24	14294
863.372	13951
863.504	13974
863.636	13959
863.768	14046
863.9	13902
864.032	13879
864.164	13890
864.296	13947
864.428	14039
864.559	14069
864.691	14012
864.823	13944
864.954	13913
865.086	13982
865.217	13932
865.349	13765
865.48	13928
865.612	13913
865.743	14046
865.875	13970
866.006	13887
866.137	13963
866.269	13917
866.4	13868
866.531	13837
866.662	13784
866.793	13849
866.924	13898
867.055	13894
867.186	13871
867.317	13860
867.448	13894
867.579	13864
867.71	13837
867.841	13898
867.972	13841
868.103	13913
868.233	13921
868.364	13936
868.495	13982
868.625	14248
868.756	14256
868.886	14115
869.017	14107
869.147	14309
869.278	14248
869.408	14324
869.539	14126
869.669	14199
869.799	14157
869.929	14240
870.06	14317
870.19	14514
870.32	14503
870.45	14530
870.58	14583
870.71	14697
870.84	14644
870.97	14602
871.1	14526
871.23	14727
871.36	14777
871.489	14636
871.619	14682
871.749	14697
871.879	14864
872.008	14796
872.138	14834
872.267	14754
872.397	14625
872.526	14568
872.656	14701
872.785	14648
872.915	14834
873.044	14880
873.173	14743
873.303	14815
873.432	14807
873.561	14781
873.69	14838
873.819	14861
873.948	14853
874.077	14765
874.206	14804
874.335	14845
874.464	15001
874.593	15081
874.722	15074
874.851	15173
874.979	15154
875.108	15173
875.237	15074
875.365	15123
875.494	15127
875.623	15135
875.751	15112
875.88	15203
876.008	15321
876.136	15344
876.265	15462
876.393	15686
876.521	15568
876.65	15572
876.778	15679
876.906	15557
877.034	15473
877.162	15591
877.29	15378
877.418	15504
877.546	15496
877.674	15553
877.802	15587
877.93	15507
878.058	15469
878.185	15458
878.313	15481
878.441	15515
878.568	15447
878.696	15500
878.824	15599
878.951	15679
879.079	15713
879.206	15850
879.333	15660
879.461	15549
879.588	15675
879.715	15720
879.842	15793
879.97	15663
880.097	15473
880.224	15370
880.351	15519
880.478	15477
880.605	15466
880.732	15336
880.859	15534
880.986	15477
881.112	15374
881.239	15313
881.366	15142
881.493	15188
881.619	15005
881.746	14982
881.872	15077
881.999	15062
882.125	15047
882.252	15100
882.378	15169
882.505	15268
882.631	15051
882.757	14864
882.883	14906
883.01	14876
883.136	14895
883.262	14693
883.388	14590
883.514	14880
883.64	14944
883.766	14788
883.892	14689
884.018	14762
884.143	14834
884.269	14868
884.395	14606
884.52	14484
884.646	14556
884.772	14537
884.897	14412
885.023	14537
885.148	14693
885.274	14720
885.399	14754
885.524	14682
885.65	14610
885.775	14610
885.9	14492
886.025	14632
886.15	14667
886.275	14571
886.4	14415
886.525	14556
886.65	14396
886.775	14507
886.9	14739
887.025	14777
887.149	14579
887.274	14431
887.399	14358
887.523	14393
887.648	14309
887.773	14396
887.897	14602
888.021	14473
888.146	14336
888.27	14507
888.395	14590
888.519	14450
888.643	14431
888.767	14465
888.891	14389
889.015	14252
889.139	14381
889.263	14259
889.387	14351
889.511	14488
889.635	14336
889.759	14275
889.883	14263
890.006	14229
890.13	14484
890.254	14046
890.377	14263
890.501	14149
890.624	14103
890.748	14115
890.871	14016
890.995	13928
891.118	13944
891.241	13940
891.364	13913
891.488	14092
891.611	13894
891.734	14096
891.857	14016
891.98	14008
892.103	13974
892.226	14031
892.349	14046
892.471	13826
892.594	13978
892.717	13974
892.839	13936
892.962	13879
893.085	14134
893.207	14001
893.33	13837
893.452	14012
893.575	13997
893.697	14027
893.819	14191
893.941	14221
894.064	14100
894.186	14027
894.308	13871
894.43	14092
894.552	14134
894.674	14020
894.796	13909
894.918	13947
895.04	14031
895.161	14191
895.283	14130
895.405	14084
895.526	14050
895.648	14142
895.769	14206
895.891	14183
896.012	14195
896.134	14256
896.255	14229
896.376	14221
896.498	14088
896.619	14320
896.74	14161
896.861	14191
896.982	14484
897.103	14720
897.224	14438
897.345	14446
897.466	14355
897.587	14374
897.708	14610
897.828	14476
897.949	14393
898.07	14324
898.19	14438
898.311	14560
898.431	14431
898.552	14484
898.672	14606
898.792	14526
898.913	14594
899.033	14465
899.153	14374
899.273	14290
899.393	14263
899.513	14454
899.633	14294
899.753	14347
899.873	14423
899.993	14442
900.113	14286
900.232	14374
900.352	14347
900.472	14225
900.591	14263
900.711	14320
900.83	14123
900.95	14317
901.069	14358
901.189	14149
901.308	14027
901.427	13879
901.546	13837
901.665	13906
901.784	13951
901.904	13776
902.023	13704
902.141	13544
902.26	13422
902.379	13632
902.498	13559
902.617	13441
902.735	13521
902.854	13464
902.973	13457
903.091	13270
903.21	13209
903.328	13179
903.446	13152
903.565	13072
903.683	13198
903.801	12935
903.919	13050
904.038	13053
904.156	12905
904.274	12909
904.392	12760
904.51	12875
904.627	12901
904.745	12924
904.863	12928
904.981	12688
905.098	12604
905.216	12582
905.334	12597
905.451	12612
905.569	12502
905.686	12593
905.803	12589
905.921	12437
906.038	12479
906.155	12380
906.272	12289
906.389	12350
906.506	12171
906.623	12190
906.74	12224
906.857	12045
906.974	12045
907.091	12171
907.208	12247
907.324	12152
907.441	12068
907.557	11984
907.674	11863
907.79	11882
907.907	11897
908.023	11901
908.139	11931
908.256	11794
908.372	11828
908.488	11832
908.604	11695
908.72	11665
908.836	11688
908.952	11623
909.068	11665
909.184	11794
909.3	11680
909.415	11745
909.531	11592
909.647	11433
909.762	11368
909.878	11459
909.993	11444
910.108	11402
910.224	11387
910.339	11440
910.454	11299
910.57	11337
910.685	11216
910.8	11524
910.915	11387
911.03	11280
911.145	11170
911.259	11136
911.374	11147
911.489	11048
911.604	10991
911.718	10923
911.833	10824
911.947	10790
912.062	10729
912.176	10904
912.291	10908
912.405	10839
912.519	11060
912.633	11075
912.748	10923
912.862	10904
912.976	10771
913.09	10672
913.204	10714
913.318	10771
913.431	10961
913.545	10927
913.659	10858
913.772	10714
913.886	10653
914	10611
914.113	10774
914.226	10797
914.34	10717
914.453	10668
914.566	10683
914.68	10599
914.793	10577
914.906	10489
915.019	10344
915.132	10306
915.245	10382
915.358	10409
915.47	10360
915.583	10466
915.696	10474
915.809	10634
915.921	10550
916.034	10390
916.146	10310
916.259	10284
916.371	10436
916.483	10474
916.595	10314
916.708	10337
916.82	10337
916.932	10360
917.044	10413
917.156	10318
917.268	10234
917.38	10227
917.491	10166
917.603	10280
917.715	10318
917.826	10329
917.938	10211
918.049	10109
918.161	10284
918.272	10405
918.384	10371
918.495	10230
918.606	10112
918.717	10063
918.828	10093
918.939	10124
919.05	10059
919.161	10071
919.272	9983
919.383	9975
919.494	10207
919.604	10341
919.715	10169
919.826	10143
919.936	10082
920.047	10200
920.157	10055
920.267	10386
920.378	10230
920.488	10150
920.598	10299
920.708	10512
920.818	10436
920.928	10360
921.038	10474
921.148	10493
921.258	10215
921.368	10078
921.477	10017
921.587	9953
921.697	9915
921.806	9987
921.916	9899
922.025	9701
922.134	9682
922.244	9694
922.353	9751
922.462	9587
922.571	9447
922.68	9466
922.789	9424
922.898	9351
923.007	9336
923.116	9435
923.224	9340
923.333	9397
923.442	9233
923.55	9321
923.659	9363
923.767	9397
923.876	9241
923.984	9313
924.092	9233
924.201	9253
924.309	9268
924.417	9310
924.525	9154
924.633	9249
924.741	10200
924.849	9028
924.956	9173
925.064	9097
925.172	9020
925.279	9074
925.387	9051
925.494	9089
925.602	9199
925.709	9074
925.816	9047
925.924	9032
926.031	9100
926.138	9001
926.245	9077
926.352	8929
926.459	9005
926.566	9176
926.673	8963
926.779	8910
926.886	8883
926.993	8804
927.099	8716
927.206	8781
927.312	8701
927.419	8815
927.525	8807
927.631	8845
927.737	8720
927.843	8644
927.95	8564
928.056	8670
928.162	8689
928.267	8716
928.373	9329
928.479	8777
928.585	8537
928.69	8773
928.796	8716
928.901	8575
929.007	8442
929.112	8606
929.218	8598
929.323	8541
929.428	8431
929.533	8575
929.638	8412
929.743	8442
929.848	8492
929.953	8442
930.058	8438
930.163	8233
930.267	8286
930.372	8404
930.477	8237
930.581	8492
930.685	8301
930.79	8221
930.894	8263
930.998	8168
931.103	8313
931.207	8024
931.311	7936
931.415	7852
931.519	7670
931.623	7742
