Data from test_V78500241_1134.txt Node
Date: Fri Mar 25 14:41:36 CST 2022
User: usil
Spectrometer: V785-0024
Trigger mode: 0
Integration Time (sec): 4.000000E-1
Scans to average: 1
Nonlinearity correction enabled: false
Boxcar width: 0
Storing dark spectrum: false
XAxis mode: Wavelengths
Number of Pixels in Spectrum: 1024
>>>>>Begin Spectral Data<<<<<
801.071	22622
801.214	22542
801.356	22299
801.499	21972
801.641	22044
801.783	21949
801.926	22074
802.068	21907
802.211	21819
802.353	21797
802.496	21526
802.638	21332
802.78	21359
802.923	21370
803.065	21344
803.208	21161
803.35	21245
803.492	21321
803.635	21321
803.777	21165
803.919	21401
804.061	21583
804.204	21359
804.346	21287
804.488	21146
804.63	21374
804.773	21138
804.915	21283
805.057	21393
805.199	21180
805.341	21203
805.483	21363
805.626	21237
805.768	21313
805.91	21180
806.052	21245
806.194	21222
806.336	21389
806.478	21283
806.62	21237
806.762	21192
806.904	21367
807.046	21622
807.188	21663
807.33	21618
807.472	21671
807.614	21534
807.756	21671
807.898	21450
808.04	21302
808.182	21473
808.324	21564
808.465	21545
808.607	21766
808.749	21876
808.891	22090
809.033	22029
809.174	21846
809.316	21842
809.458	21808
809.6	21591
809.741	21854
809.883	21838
810.025	21903
810.166	21968
810.308	21827
810.45	21838
810.591	21705
810.733	21587
810.875	21469
811.016	21466
811.158	21272
811.299	21561
811.441	21553
811.582	21580
811.724	21450
811.865	21481
812.007	21321
812.148	21359
812.29	21496
812.431	21481
812.573	21732
812.714	21705
812.855	21880
812.997	22051
813.138	22166
813.279	22017
813.421	21934
813.562	21785
813.703	21717
813.845	21629
813.986	21291
814.127	21074
814.268	20971
814.41	21009
814.551	20960
814.692	21085
814.833	20952
814.974	20971
815.115	20906
815.256	20693
815.397	20842
815.539	20807
815.68	20674
815.821	20705
815.962	20724
816.103	20632
816.244	20560
816.385	20598
816.526	20469
816.666	20351
816.807	20031
816.948	20191
817.089	20187
817.23	20115
817.371	20138
817.512	20054
817.653	20092
817.793	20024
817.934	20172
818.075	19860
818.216	20088
818.356	20008
818.497	19978
818.638	19734
818.778	19830
818.919	19799
819.06	19856
819.2	19890
819.341	19944
819.481	20001
819.622	20084
819.762	20370
819.903	20214
820.043	20172
820.184	20157
820.324	20183
820.465	20218
820.605	20081
820.746	20130
820.886	19822
821.026	20138
821.167	20096
821.307	20043
821.447	20039
821.588	19963
821.728	19822
821.868	19521
822.008	19521
822.149	19480
822.289	19495
822.429	19244
822.569	19145
822.709	19148
822.849	19015
822.99	19084
823.13	18939
823.27	18932
823.41	18844
823.55	18703
823.69	18734
823.83	18772
823.97	18795
824.11	18677
824.25	18563
824.389	18635
824.529	18509
824.669	18544
824.809	18639
824.949	18681
825.089	18711
825.228	18631
825.368	18350
825.508	18266
825.648	18365
825.787	18376
825.927	18395
826.067	18365
826.206	18399
826.346	18289
826.485	18388
826.625	18414
826.765	18437
826.904	18258
827.044	18155
827.183	18068
827.323	17973
827.462	18045
827.601	17935
827.741	18015
827.88	18197
828.02	17996
828.159	17988
828.298	17980
828.437	18140
828.577	17980
828.716	18209
828.855	18057
828.994	17805
829.134	17760
829.273	17851
829.412	17718
829.551	17786
829.69	17767
829.829	17828
829.968	17912
830.107	17851
830.246	17851
830.385	17840
830.524	17695
830.663	17619
830.802	17604
830.941	17440
831.08	17448
831.219	17532
831.357	17551
831.496	17657
831.635	17349
831.774	17349
831.913	17242
832.051	17349
832.19	17223
832.329	17246
832.467	17102
832.606	17113
832.744	17067
832.883	17117
833.022	17117
833.16	17121
833.299	17075
833.437	17166
833.576	17178
833.714	17109
833.852	17246
833.991	17197
834.129	17318
834.267	17216
834.406	17261
834.544	17227
834.682	17235
834.821	17128
834.959	17315
835.097	17181
835.235	17254
835.373	17193
835.511	17273
835.65	17029
835.788	17037
835.926	16946
836.064	16915
836.202	16850
836.34	17113
836.478	17185
836.615	17033
836.753	17052
836.891	17090
837.029	17136
837.167	17204
837.305	17155
837.443	17132
837.58	16900
837.718	17060
837.856	16976
837.993	16797
838.131	16968
838.269	16824
838.406	16911
838.544	16763
838.681	16546
838.819	16584
838.956	16375
839.094	16523
839.231	16481
839.369	16603
839.506	16930
839.643	16782
839.781	16443
839.918	16390
840.055	16455
840.193	16508
840.33	16440
840.467	16466
840.604	16497
840.742	16710
840.879	16375
841.016	16333
841.153	16291
841.29	16626
841.427	16470
841.564	16504
841.701	16523
841.838	16489
841.975	16337
842.112	16390
842.249	16188
842.385	16226
842.522	16485
842.659	16200
842.796	16223
842.933	16230
843.069	16109
843.206	16124
843.343	16367
843.479	16295
843.616	16322
843.752	16021
843.889	16021
844.025	16219
844.162	16074
844.298	16120
844.435	16112
844.571	15983
844.708	16051
844.844	16177
844.98	16204
845.117	16124
845.253	15991
845.389	15975
845.525	16086
845.661	16177
845.798	16063
845.934	16185
846.07	16177
846.206	16268
846.342	16230
846.478	16032
846.614	15854
846.75	15633
846.886	15625
847.022	15823
847.158	15690
847.294	15591
847.429	15652
847.565	15625
847.701	15854
847.837	15359
847.972	15378
848.108	15492
848.244	15378
848.379	15222
848.515	15245
848.65	15195
848.786	15218
848.921	15188
849.057	15310
849.192	15298
849.328	15287
849.463	15180
849.598	15226
849.734	15077
849.869	15051
850.004	14948
850.14	14990
850.275	15055
850.41	14971
850.545	14899
850.68	14941
850.815	15039
850.95	14883
851.085	15097
851.22	15093
851.355	14929
851.49	14925
851.625	15017
851.76	14967
851.895	14857
852.03	14899
852.165	14971
852.299	15070
852.434	15032
852.569	15005
852.703	15062
852.838	15085
852.973	15070
853.107	15108
853.242	14986
853.376	14864
853.511	14731
853.645	14800
853.78	14998
853.914	14872
854.048	14746
854.183	14804
854.317	14861
854.451	15024
854.585	14819
854.72	14796
854.854	14815
854.988	14686
855.122	14739
855.256	14663
855.39	14792
855.524	14880
855.658	14876
855.792	14944
855.926	14815
856.06	14933
856.194	14948
856.327	14849
856.461	14765
856.595	14743
856.729	14743
856.862	14921
856.996	14872
857.13	14830
857.263	14948
857.397	14910
857.53	14826
857.664	14941
857.797	14895
857.931	14971
858.064	14849
858.197	14952
858.331	14845
858.464	14838
858.597	14670
858.731	14724
858.864	14895
858.997	14857
859.13	14788
859.263	14769
859.396	14963
859.529	14834
859.662	14750
859.795	14842
859.928	14887
860.061	15066
860.194	14975
860.327	14861
860.46	14876
860.592	14963
860.725	14864
860.858	14960
860.99	14842
861.123	14785
861.256	14743
861.388	14811
861.521	15580
861.653	14739
861.786	14610
861.918	14693
862.05	14705
862.183	14796
862.315	14724
862.447	14868
862.58	14804
862.712	14522
862.844	14495
862.976	14621
863.108	14697
863.24	14982
863.372	14434
863.504	14560
863.636	14560
863.768	14594
863.9	14613
864.032	14533
864.164	14568
864.296	14674
864.428	14712
864.559	14739
864.691	14758
864.823	14636
864.954	14693
865.086	14606
865.217	14587
865.349	14457
865.48	14579
865.612	14598
865.743	14724
865.875	14682
866.006	14492
866.137	14636
866.269	14632
866.4	14564
866.531	14530
866.662	14545
866.793	14492
866.924	14495
867.055	14674
867.186	14518
867.317	14571
867.448	14568
867.579	14552
867.71	14461
867.841	14560
867.972	14549
868.103	14526
868.233	14697
868.364	14678
868.495	14689
868.625	14826
868.756	14933
868.886	14750
869.017	14804
869.147	14975
869.278	14956
869.408	14830
869.539	14971
869.669	14937
869.799	14971
869.929	14956
870.06	15005
870.19	15150
870.32	15169
870.45	15138
870.58	15211
870.71	15268
870.84	15275
870.97	15131
871.1	15180
871.23	15431
871.36	15450
871.489	15306
871.619	15363
871.749	15355
871.879	15507
872.008	15610
872.138	15435
872.267	15408
872.397	15237
872.526	15226
872.656	15233
872.785	15344
872.915	15466
873.044	15561
873.173	15420
873.303	15519
873.432	15595
873.561	15542
873.69	15545
873.819	15549
873.948	15557
874.077	15542
874.206	15504
874.335	15450
874.464	15549
874.593	15800
874.722	15679
874.851	15797
874.979	15751
875.108	15770
875.237	15755
875.365	15732
875.494	15736
875.623	15873
875.751	15854
875.88	15766
876.008	15922
876.136	15941
876.265	16139
876.393	16371
876.521	16268
876.65	16352
876.778	16276
876.906	16124
877.034	16162
877.162	16265
877.29	16185
877.418	16341
877.546	16185
877.674	16211
877.802	16226
877.93	16158
878.058	16105
878.185	16109
878.313	16234
878.441	16196
878.568	16067
878.696	16082
878.824	16310
878.951	16341
879.079	16455
879.206	16596
879.333	16504
879.461	16371
879.588	16508
879.715	16588
879.842	16573
879.97	16436
880.097	16139
880.224	16086
880.351	16101
880.478	16128
880.605	16093
880.732	15979
880.859	16246
880.986	16112
881.112	16105
881.239	15937
881.366	15876
881.493	15816
881.619	15717
881.746	15694
881.872	15720
881.999	15682
882.125	15781
882.252	15720
882.378	15728
882.505	15873
882.631	15591
882.757	15591
882.883	15671
883.01	15500
883.136	15553
883.262	15466
883.388	15393
883.514	15553
883.64	15694
883.766	15466
883.892	15359
884.018	15302
884.143	15561
884.269	15584
884.395	15226
884.52	15237
884.646	15245
884.772	15199
884.897	15195
885.023	15275
885.148	15325
885.274	15519
885.399	15389
885.524	15272
885.65	15203
885.775	15329
885.9	15211
886.025	15325
886.15	15256
886.275	15222
886.4	15161
886.525	15188
886.65	15150
886.775	15138
886.9	15264
887.025	15412
887.149	15245
887.274	15085
887.399	15036
887.523	15127
887.648	15013
887.773	14883
887.897	15173
888.021	15157
888.146	14941
888.27	15047
888.395	15203
888.519	14979
888.643	15150
888.767	15119
888.891	14948
889.015	14895
889.139	14918
889.263	14872
889.387	14952
889.511	15077
889.635	14963
889.759	14746
889.883	14819
890.006	14880
890.13	14956
890.254	14800
890.377	14895
890.501	14682
890.624	14697
890.748	14621
890.871	14651
890.995	14530
891.118	14465
891.241	14621
891.364	14659
891.488	14678
891.611	14644
891.734	14571
891.857	14667
891.98	14590
892.103	14655
892.226	14667
892.349	14610
892.471	14465
892.594	14613
892.717	14667
892.839	14522
892.962	14450
893.085	14617
893.207	14484
893.33	14381
893.452	14412
893.575	14602
893.697	14571
893.819	14727
893.941	14712
894.064	14785
894.186	14537
894.308	14522
894.43	14750
894.552	14819
894.674	14663
894.796	14545
894.918	14602
895.04	14617
895.161	14762
895.283	14625
895.405	14568
895.526	14598
895.648	14636
895.769	14686
895.891	14708
896.012	14769
896.134	14849
896.255	14727
896.376	14682
896.498	14712
896.619	14845
896.74	14746
896.861	14823
896.982	15074
897.103	15211
897.224	15013
897.345	14990
897.466	14948
897.587	14975
897.708	15131
897.828	15100
897.949	14921
898.07	14910
898.19	14990
898.311	15093
898.431	15047
898.552	14982
898.672	15112
898.792	15241
898.913	15051
899.033	15013
899.153	14982
899.273	14819
899.393	14826
899.513	14902
899.633	14876
899.753	14887
899.873	14857
899.993	14864
900.113	14887
900.232	14944
900.352	14887
900.472	14807
900.591	14777
900.711	14746
900.83	14716
900.95	14765
901.069	14800
901.189	14731
901.308	14484
901.427	14442
901.546	14492
901.665	14419
901.784	14518
901.904	14355
902.023	14149
902.141	14016
902.26	14077
902.379	14073
902.498	14012
902.617	13970
902.735	14065
902.854	13963
902.973	13928
903.091	13746
903.21	13700
903.328	13693
903.446	13628
903.565	13552
903.683	13601
903.801	13434
903.919	13472
904.038	13495
904.156	13369
904.274	13354
904.392	13358
904.51	13339
904.627	13331
904.745	13335
904.863	13487
904.981	13240
905.098	13114
905.216	12970
905.334	13149
905.451	13110
905.569	13076
905.686	13069
905.803	13042
905.921	12852
906.038	13061
906.155	12924
906.272	12817
906.389	12802
906.506	12734
906.623	12635
906.74	12635
906.857	12467
906.974	12525
907.091	12692
907.208	12764
907.324	12650
907.441	12631
907.557	12414
907.674	12388
907.79	12380
907.907	12289
908.023	12460
908.139	12456
908.256	12380
908.372	12304
908.488	12323
908.604	12125
908.72	12182
908.836	12228
908.952	12182
909.068	12155
909.184	12232
909.3	12190
909.415	12235
909.531	12224
909.647	11901
909.762	12015
909.878	11866
909.993	11992
910.108	11920
910.224	11874
910.339	11882
910.454	11821
910.57	11775
910.685	11718
910.8	12041
910.915	11916
911.03	11824
911.145	11707
911.259	11634
911.374	11577
911.489	11509
911.604	11493
911.718	11440
911.833	11387
911.947	11246
912.062	11242
912.176	11425
912.291	11467
912.405	11387
912.519	11551
912.633	11516
912.748	11452
912.862	11398
912.976	11208
913.09	11128
913.204	11235
913.318	11250
913.431	11455
913.545	11364
913.659	11414
913.772	11189
913.886	11094
914	11052
914.113	11212
914.226	11269
914.34	11303
914.453	11102
914.566	11178
914.68	11143
914.793	11060
914.906	10972
915.019	10828
915.132	10820
915.245	10885
915.358	10854
915.47	10862
915.583	10866
915.696	11025
915.809	11014
915.921	10995
916.034	10858
916.146	10885
916.259	10839
916.371	10877
916.483	10896
916.595	10809
916.708	10744
916.82	10790
916.932	10725
917.044	10885
917.156	10771
917.268	10596
917.38	10694
917.491	10664
917.603	10786
917.715	10736
917.826	10782
917.938	10752
918.049	10554
918.161	10755
918.272	10820
918.384	10752
918.495	10660
918.606	10599
918.717	10561
918.828	10550
918.939	10580
919.05	10500
919.161	10535
919.272	10428
919.383	10432
919.494	10569
919.604	10805
919.715	10531
919.826	10531
919.936	10504
920.047	10698
920.157	10599
920.267	10759
920.378	10580
920.488	10493
920.598	10721
920.708	10900
920.818	10759
920.928	10721
921.038	10961
921.148	10892
921.258	10607
921.368	10474
921.477	10417
921.587	10417
921.697	10295
921.806	10413
921.916	10291
922.025	10147
922.134	10097
922.244	9998
922.353	10135
922.462	10025
922.571	9915
922.68	9835
922.789	9736
922.898	9804
923.007	9728
923.116	9854
923.224	9747
923.333	9774
923.442	9766
923.55	9690
923.659	9629
923.767	9755
923.876	9679
923.984	9755
924.092	9561
924.201	9625
924.309	9648
924.417	9656
924.525	9637
924.633	9595
924.741	10352
924.849	9393
924.956	9591
925.064	9424
925.172	9386
925.279	9401
925.387	9477
925.494	9473
925.602	9553
925.709	9485
925.816	9389
925.924	9382
926.031	9473
926.138	9500
926.245	9466
926.352	9386
926.459	9469
926.566	9507
926.673	9477
926.779	9287
926.886	9264
926.993	9142
927.099	9169
927.206	9089
927.312	9123
927.419	9222
927.525	9142
927.631	9249
927.737	9081
927.843	9013
927.95	8933
928.056	9051
928.162	9020
928.267	9154
928.373	9625
928.479	9074
928.585	8857
928.69	8990
928.796	9089
928.901	8868
929.007	8880
929.112	8914
929.218	8979
929.323	8823
929.428	8941
929.533	9005
929.638	8792
929.743	8823
929.848	8899
929.953	8830
930.058	8754
930.163	8613
930.267	8625
930.372	8796
930.477	8602
930.581	8823
930.685	8625
930.79	8514
930.894	8587
930.998	8522
931.103	8769
931.207	8336
931.311	8339
931.415	8256
931.519	8024
931.623	8027
