Data from test_V78500241_1702.txt Node
Date: Fri Mar 25 14:45:33 CST 2022
User: usil
Spectrometer: V785-0024
Trigger mode: 0
Integration Time (sec): 4.000000E-1
Scans to average: 1
Nonlinearity correction enabled: false
Boxcar width: 0
Storing dark spectrum: false
XAxis mode: Wavelengths
Number of Pixels in Spectrum: 1024
>>>>>Begin Spectral Data<<<<<
801.071	22287
801.214	22169
801.356	21876
801.499	21850
801.641	21542
801.783	21542
801.926	21698
802.068	21492
802.211	21515
802.353	21439
802.496	21176
802.638	21062
802.78	21127
802.923	21093
803.065	20899
803.208	20967
803.35	21051
803.492	21093
803.635	21108
803.777	20880
803.919	21062
804.061	21207
804.204	21047
804.346	20944
804.488	20731
804.63	20857
804.773	20849
804.915	20967
805.057	21032
805.199	20857
805.341	21058
805.483	20975
805.626	20823
805.768	20746
805.91	20819
806.052	20845
806.194	20834
806.336	21001
806.478	20845
806.62	20838
806.762	21036
806.904	21112
807.046	21256
807.188	21252
807.33	21226
807.472	21428
807.614	21070
807.756	21123
807.898	21112
808.04	21013
808.182	20967
808.324	21100
808.465	21104
808.607	21237
808.749	21233
808.891	21340
809.033	21507
809.174	21313
809.316	21245
809.458	21260
809.6	21310
809.741	21325
809.883	21363
810.025	21504
810.166	21439
810.308	21485
810.45	21389
810.591	21317
810.733	21161
810.875	21062
811.016	20895
811.158	20941
811.299	21051
811.441	21062
811.582	21260
811.724	21081
811.865	21081
812.007	21100
812.148	21024
812.29	21047
812.431	21237
812.573	21329
812.714	21428
812.855	21462
812.997	21618
813.138	21907
813.279	21755
813.421	21458
813.562	21447
813.703	21294
813.845	21116
813.986	20982
814.127	20838
814.268	20602
814.41	20708
814.551	20644
814.692	20526
814.833	20488
814.974	20499
815.115	20625
815.256	20408
815.397	20473
815.539	20431
815.68	20434
815.821	20320
815.962	20389
816.103	20298
816.244	20187
816.385	20111
816.526	20161
816.666	19955
816.807	19814
816.948	19788
817.089	19849
817.23	19860
817.371	19746
817.512	19620
817.653	19753
817.793	19700
817.934	19689
818.075	19704
818.216	19822
818.356	19628
818.497	19540
818.638	19324
818.778	19506
818.919	19438
819.06	19506
819.2	19540
819.341	19586
819.481	19563
819.622	19723
819.762	19940
819.903	19913
820.043	19814
820.184	19677
820.324	19746
820.465	19830
820.605	19670
820.746	19666
820.886	19723
821.026	19605
821.167	19715
821.307	19811
821.447	19693
821.588	19552
821.728	19324
821.868	19285
822.008	19088
822.149	19156
822.289	19019
822.429	18886
822.569	18894
822.709	18833
822.849	18722
822.99	18585
823.13	18582
823.27	18540
823.41	18441
823.55	18486
823.69	18509
823.83	18380
823.97	18311
824.11	18270
824.25	18182
824.389	18174
824.529	18235
824.669	18197
824.809	18327
824.949	18171
825.089	18315
825.228	18239
825.368	18083
825.508	17954
825.648	18064
825.787	17977
825.927	18030
826.067	17908
826.206	17935
826.346	18053
826.485	18038
826.625	17927
826.765	18038
826.904	18003
827.044	17790
827.183	17733
827.323	17524
827.462	17680
827.601	17630
827.741	17752
827.88	17627
828.02	17505
828.159	17573
828.298	17646
828.437	17737
828.577	17585
828.716	17745
828.855	17532
828.994	17455
829.134	17315
829.273	17482
829.412	17376
829.551	17417
829.69	17387
829.829	17440
829.968	17444
830.107	17482
830.246	17436
830.385	17341
830.524	17353
830.663	17178
830.802	17117
830.941	16972
831.08	17010
831.219	17105
831.357	16987
831.496	17166
831.635	17010
831.774	16949
831.913	16889
832.051	16820
832.19	16812
832.329	16771
832.467	16637
832.606	16603
832.744	16649
832.883	16683
833.022	16698
833.16	16713
833.299	16805
833.437	16683
833.576	16740
833.714	16713
833.852	16763
833.991	16675
834.129	16862
834.267	16915
834.406	16702
834.544	16862
834.682	16824
834.821	16706
834.959	16919
835.097	16710
835.235	16877
835.373	16790
835.511	16824
835.65	16645
835.788	16641
835.926	16546
836.064	16497
836.202	16580
836.34	16664
836.478	16774
836.615	16607
836.753	16679
836.891	16713
837.029	16687
837.167	16687
837.305	16508
837.443	16523
837.58	16527
837.718	16558
837.856	16542
837.993	16542
838.131	16588
838.269	16497
838.406	16405
838.544	16329
838.681	16230
838.819	16242
838.956	16010
839.094	16013
839.231	16147
839.369	16192
839.506	16394
839.643	16337
839.781	16162
839.918	16006
840.055	16105
840.193	16044
840.33	16051
840.467	16006
840.604	16116
840.742	16314
840.879	15930
841.016	16090
841.153	15994
841.29	16242
841.427	16169
841.564	16067
841.701	16101
841.838	16051
841.975	15888
842.112	16055
842.249	15945
842.385	15880
842.522	15994
842.659	15816
842.796	15781
842.933	15869
843.069	15717
843.206	15797
843.343	15892
843.479	15865
843.616	15842
843.752	15656
843.889	15667
844.025	15766
844.162	15595
844.298	15743
844.435	15724
844.571	15553
844.708	15690
844.844	15766
844.98	15747
845.117	15736
845.253	15610
845.389	15515
845.525	15511
845.661	15542
845.798	15416
845.934	15534
846.07	15336
846.206	15500
846.342	15595
846.478	15363
846.614	15325
846.75	15100
846.886	15207
847.022	15268
847.158	15226
847.294	15226
847.429	15214
847.565	15142
847.701	15393
847.837	14967
847.972	14895
848.108	15043
848.244	15005
848.379	14830
848.515	14785
848.65	14815
848.786	14777
848.921	14872
849.057	14963
849.192	14842
849.328	14868
849.463	14872
849.598	14899
849.734	14758
849.869	14610
850.004	14678
850.14	14556
850.275	14602
850.41	14465
850.545	14450
850.68	14598
850.815	14594
850.95	14488
851.085	14750
851.22	14651
851.355	14613
851.49	14507
851.625	14518
851.76	14503
851.895	14533
852.03	14434
852.165	14530
852.299	14583
852.434	14674
852.569	14617
852.703	14598
852.838	14621
852.973	14697
853.107	14693
853.242	14514
853.376	14431
853.511	14431
853.645	14408
853.78	14549
853.914	14412
854.048	14469
854.183	14400
854.317	14476
854.451	14617
854.585	14454
854.72	14450
854.854	14434
854.988	14389
855.122	14358
855.256	14324
855.39	14385
855.524	14533
855.658	14476
855.792	14476
855.926	14507
856.06	14415
856.194	14560
856.327	14461
856.461	14301
856.595	14415
856.729	14301
856.862	14560
856.996	14533
857.13	14537
857.263	14590
857.397	14541
857.53	14541
857.664	14484
857.797	14469
857.931	14602
858.064	14499
858.197	14594
858.331	14492
858.464	14450
858.597	14324
858.731	14423
858.864	14427
858.997	14473
859.13	14431
859.263	14545
859.396	14495
859.529	14461
859.662	14480
859.795	14427
859.928	14442
860.061	14674
860.194	14594
860.327	14518
860.46	14415
860.592	14507
860.725	14625
860.858	14575
860.99	14499
861.123	14298
861.256	14370
861.388	14431
861.521	15032
861.653	14240
861.786	14229
861.918	14317
862.05	14423
862.183	14351
862.315	14389
862.447	14434
862.58	14370
862.712	14199
862.844	14149
862.976	14332
863.108	14199
863.24	14769
863.372	14149
863.504	14161
863.636	14126
863.768	14244
863.9	14176
864.032	14119
864.164	14161
864.296	14176
864.428	14339
864.559	14294
864.691	14309
864.823	14187
864.954	14290
865.086	14180
865.217	14271
865.349	14153
865.48	14115
865.612	14214
865.743	14370
865.875	14161
866.006	14126
866.137	14218
866.269	14199
866.4	14187
866.531	14130
866.662	14176
866.793	14180
866.924	14107
867.055	14191
867.186	14187
867.317	14115
867.448	14123
867.579	14202
867.71	14145
867.841	14100
867.972	14096
868.103	14138
868.233	14206
868.364	14195
868.495	14389
868.625	14336
868.756	14522
868.886	14389
869.017	14381
869.147	14640
869.278	14541
869.408	14438
869.539	14400
869.669	14556
869.799	14476
869.929	14541
870.06	14549
870.19	14807
870.32	14773
870.45	14712
870.58	14880
870.71	14948
870.84	14952
870.97	14849
871.1	14834
871.23	15043
871.36	14921
871.489	14918
871.619	15036
871.749	15013
871.879	15020
872.008	15028
872.138	15066
872.267	14941
872.397	14853
872.526	14933
872.656	14849
872.785	14941
872.915	15131
873.044	15062
873.173	15104
873.303	15100
873.432	15135
873.561	15218
873.69	15119
873.819	15184
873.948	15108
874.077	15077
874.206	15055
874.335	15112
874.464	15176
874.593	15367
874.722	15359
874.851	15481
874.979	15435
875.108	15412
875.237	15378
875.365	15302
875.494	15348
875.623	15405
875.751	15405
875.88	15481
876.008	15534
876.136	15637
876.265	15823
876.393	15964
876.521	15861
876.65	15812
876.778	15846
876.906	15781
877.034	15625
877.162	15797
877.29	15793
877.418	15789
877.546	15884
877.674	15770
877.802	15774
877.93	15831
878.058	15747
878.185	15739
878.313	15816
878.441	15743
878.568	15629
878.696	15762
878.824	15911
878.951	15922
879.079	15930
879.206	16143
879.333	15895
879.461	15911
879.588	15937
879.715	15983
879.842	16120
879.97	15873
880.097	15698
880.224	15629
880.351	15698
880.478	15694
880.605	15675
880.732	15751
880.859	15937
880.986	15694
881.112	15743
881.239	15454
881.366	15416
881.493	15294
881.619	15203
881.746	15348
881.872	15317
881.999	15275
882.125	15291
882.252	15336
882.378	15363
882.505	15469
882.631	15192
882.757	15116
882.883	15230
883.01	15127
883.136	15066
883.262	15081
883.388	14990
883.514	15287
883.64	15188
883.766	15184
883.892	14914
884.018	14941
884.143	15131
884.269	15180
884.395	14963
884.52	14746
884.646	14880
884.772	14724
884.897	14750
885.023	14899
885.148	14956
885.274	14952
885.399	14960
885.524	14800
885.65	14880
885.775	14785
885.9	14792
886.025	15058
886.15	14861
886.275	14826
886.4	14804
886.525	14777
886.65	14823
886.775	14800
886.9	14887
887.025	15043
887.149	14785
887.274	14731
887.399	14625
887.523	14701
887.648	14602
887.773	14556
887.897	14746
888.021	14731
888.146	14606
888.27	14724
888.395	14792
888.519	14731
888.643	14708
888.767	14746
888.891	14610
889.015	14537
889.139	14583
889.263	14499
889.387	14621
889.511	14625
889.635	14606
889.759	14457
889.883	14419
890.006	14537
890.13	14625
890.254	14396
890.377	14541
890.501	14324
890.624	14362
890.748	14381
890.871	14301
890.995	14157
891.118	14199
891.241	14237
891.364	14126
891.488	14381
891.611	14168
891.734	14324
891.857	14290
891.98	14206
892.103	14434
892.226	14263
892.349	14267
892.471	14134
892.594	14317
892.717	14240
892.839	14206
892.962	14202
893.085	14275
893.207	14229
893.33	14024
893.452	14187
893.575	14248
893.697	14176
893.819	14336
893.941	14446
894.064	14286
894.186	14161
894.308	14115
894.43	14290
894.552	14514
894.674	14374
894.796	14176
894.918	14336
895.04	14149
895.161	14313
895.283	14309
895.405	14294
895.526	14370
895.648	14374
895.769	14282
895.891	14434
896.012	14336
896.134	14484
896.255	14408
896.376	14324
896.498	14381
896.619	14450
896.74	14374
896.861	14385
896.982	14777
897.103	14853
897.224	14640
897.345	14579
897.466	14598
897.587	14590
897.708	14849
897.828	14731
897.949	14602
898.07	14541
898.19	14629
898.311	14708
898.431	14716
898.552	14720
898.672	14868
898.792	14895
898.913	14773
899.033	14621
899.153	14651
899.273	14461
899.393	14484
899.513	14629
899.633	14568
899.753	14552
899.873	14522
899.993	14648
900.113	14606
900.232	14762
900.352	14522
900.472	14442
900.591	14431
900.711	14427
900.83	14537
900.95	14526
901.069	14651
901.189	14431
901.308	14225
901.427	14100
901.546	14180
901.665	14195
901.784	14096
901.904	14043
902.023	13944
902.141	13731
902.26	13605
902.379	13742
902.498	13704
902.617	13632
902.735	13670
902.854	13761
902.973	13639
903.091	13480
903.21	13335
903.328	13392
903.446	13308
903.565	13278
903.683	13282
903.801	13149
903.919	13247
904.038	13194
904.156	13072
904.274	13065
904.392	13061
904.51	13095
904.627	13015
904.745	13091
904.863	13141
904.981	12798
905.098	12795
905.216	12760
905.334	12840
905.451	12768
905.569	12722
905.686	12897
905.803	12814
905.921	12597
906.038	12757
906.155	12627
906.272	12486
906.389	12426
906.506	12308
906.623	12357
906.74	12376
906.857	12285
906.974	12239
907.091	12437
907.208	12509
907.324	12350
907.441	12292
907.557	12144
907.674	12095
907.79	12072
907.907	12034
908.023	12057
908.139	12140
908.256	12003
908.372	12041
908.488	11885
908.604	11897
908.72	11817
908.836	11863
908.952	11824
909.068	11889
909.184	11927
909.3	11813
909.415	11912
909.531	11878
909.647	11589
909.762	11611
909.878	11649
909.993	11634
910.108	11558
910.224	11532
910.339	11642
910.454	11535
910.57	11520
910.685	11482
910.8	11737
910.915	11547
911.03	11474
911.145	11345
911.259	11318
911.374	11345
911.489	11273
911.604	11151
911.718	11109
911.833	11075
911.947	10995
912.062	10885
912.176	11098
912.291	11098
912.405	11105
912.519	11258
912.633	11231
912.748	11162
912.862	11132
912.976	10965
913.09	10858
913.204	10889
913.318	10953
913.431	11071
913.545	11003
913.659	11140
913.772	10953
913.886	10847
914	10812
914.113	10885
914.226	10976
914.34	10908
914.453	10729
914.566	10862
914.68	10782
914.793	10706
914.906	10538
915.019	10653
915.132	10443
915.245	10618
915.358	10577
915.47	10580
915.583	10588
915.696	10569
915.809	10702
915.921	10710
916.034	10580
916.146	10538
916.259	10485
916.371	10630
916.483	10569
916.595	10546
916.708	10531
916.82	10512
916.932	10481
917.044	10516
917.156	10558
917.268	10371
917.38	10417
917.491	10409
917.603	10432
917.715	10546
917.826	10542
917.938	10386
918.049	10352
918.161	10462
918.272	10527
918.384	10550
918.495	10519
918.606	10337
918.717	10242
918.828	10325
918.939	10417
919.05	10242
919.161	10272
919.272	10135
919.383	10169
919.494	10390
919.604	10569
919.715	10371
919.826	10314
919.936	10276
920.047	10443
920.157	10394
920.267	10519
920.378	10440
920.488	10246
920.598	10569
920.708	10660
920.818	10527
920.928	10580
921.038	10683
921.148	10622
921.258	10455
921.368	10287
921.477	10230
921.587	10200
921.697	10021
921.806	10166
921.916	10143
922.025	10013
922.134	9930
922.244	9846
922.353	9918
922.462	9816
922.571	9690
922.68	9637
922.789	9622
922.898	9595
923.007	9481
923.116	9637
923.224	9603
923.333	9629
923.442	9450
923.55	9428
923.659	9545
923.767	9545
923.876	9515
923.984	9538
924.092	9351
924.201	9462
924.309	9523
924.417	9408
924.525	9355
924.633	9428
924.741	10322
924.849	9195
924.956	9435
925.064	9245
925.172	9119
925.279	9211
925.387	9298
925.494	9214
925.602	9389
925.709	9355
925.816	9253
925.924	9287
926.031	9329
926.138	9214
926.245	9348
926.352	9241
926.459	9249
926.566	9351
926.673	9176
926.779	9165
926.886	9077
926.993	8910
927.099	8948
927.206	8925
927.312	8902
927.419	8956
927.525	8960
927.631	8963
927.737	8857
927.843	8807
927.95	8769
928.056	8750
928.162	8861
928.267	8895
928.373	9557
928.479	8960
928.585	8663
928.69	8830
928.796	8819
928.901	8746
929.007	8678
929.112	8727
929.218	8731
929.323	8640
929.428	8663
929.533	8773
929.638	8621
929.743	8602
929.848	8735
929.953	8598
930.058	8511
930.163	8423
930.267	8434
930.372	8579
930.477	8434
930.581	8621
930.685	8495
930.79	8362
930.894	8358
930.998	8377
931.103	8549
931.207	8229
931.311	8043
931.415	8016
931.519	7917
931.623	7970
