Data from test_V78500241_450.txt Node
Date: Fri Mar 25 14:36:51 CST 2022
User: usil
Spectrometer: V785-0024
Trigger mode: 0
Integration Time (sec): 4.000000E-1
Scans to average: 1
Nonlinearity correction enabled: false
Boxcar width: 0
Storing dark spectrum: false
XAxis mode: Wavelengths
Number of Pixels in Spectrum: 1024
>>>>>Begin Spectral Data<<<<<
801.071	26526
801.214	26450
801.356	26351
801.499	26126
801.641	26005
801.783	25902
801.926	26100
802.068	25986
802.211	25868
802.353	25845
802.496	25715
802.638	25753
802.78	25609
802.923	25514
803.065	25491
803.208	25434
803.35	25479
803.492	25597
803.635	25624
803.777	25575
803.919	25624
804.061	25868
804.204	25468
804.346	25449
804.488	25327
804.63	25499
804.773	25362
804.915	25502
805.057	25483
805.199	25499
805.341	25460
805.483	25590
805.626	25681
805.768	25468
805.91	25525
806.052	25499
806.194	25449
806.336	25708
806.478	25647
806.62	25548
806.762	25647
806.904	25757
807.046	26027
807.188	25925
807.33	25772
807.472	25909
807.614	25871
807.756	25723
807.898	25704
808.04	25613
808.182	25780
808.324	25681
808.465	25685
808.607	25822
808.749	26081
808.891	26088
809.033	26187
809.174	26191
809.316	26058
809.458	25921
809.6	26012
809.741	26054
809.883	25986
810.025	26305
810.166	26206
810.308	26267
810.45	26161
810.591	26077
810.733	25974
810.875	25917
811.016	25677
811.158	25750
811.299	25955
811.441	26043
811.582	25978
811.724	25906
811.865	25917
812.007	25795
812.148	25704
812.29	25849
812.431	26008
812.573	26126
812.714	26244
812.855	26301
812.997	26461
813.138	26640
813.279	26298
813.421	26351
813.562	26301
813.703	26012
813.845	26107
813.986	25681
814.127	25506
814.268	25460
814.41	25510
814.551	25411
814.692	25514
814.833	25396
814.974	25441
815.115	25400
815.256	25213
815.397	25316
815.539	25354
815.68	25285
815.821	25031
815.962	25282
816.103	25304
816.244	24932
816.385	24909
816.526	24878
816.666	24814
816.807	24627
816.948	24665
817.089	24703
817.23	24578
817.371	24513
817.512	24448
817.653	24654
817.793	24460
817.934	24433
818.075	24505
818.216	24460
818.356	24441
818.497	24418
818.638	24186
818.778	24285
818.919	24174
819.06	24209
819.2	24327
819.341	24273
819.481	24399
819.622	24639
819.762	24814
819.903	24616
820.043	24779
820.184	24593
820.324	24464
820.465	24692
820.605	24570
820.746	24490
820.886	24323
821.026	24536
821.167	24532
821.307	24582
821.447	24486
821.588	24296
821.728	24163
821.868	23920
822.008	23931
822.149	23859
822.289	23855
822.429	23722
822.569	23585
822.709	23509
822.849	23383
822.99	23265
823.13	23326
823.27	23159
823.41	23166
823.55	23003
823.69	23189
823.83	23098
823.97	22961
824.11	22847
824.25	22786
824.389	22862
824.529	22999
824.669	22755
824.809	22968
824.949	22824
825.089	23029
825.228	22839
825.368	22656
825.508	22607
825.648	22698
825.787	22801
825.927	22687
826.067	22729
826.206	22679
826.346	22649
826.485	22588
826.625	22626
826.765	22687
826.904	22675
827.044	22546
827.183	22356
827.323	22348
827.462	22318
827.601	22341
827.741	22371
827.88	22337
828.02	22276
828.159	22333
828.298	22306
828.437	22379
828.577	22272
828.716	22405
828.855	22360
828.994	22086
829.134	22158
829.273	22131
829.412	22010
829.551	21968
829.69	22036
829.829	22078
829.968	22204
830.107	22143
830.246	22010
830.385	21998
830.524	21987
830.663	21926
830.802	21701
830.941	21583
831.08	21572
831.219	21785
831.357	21671
831.496	21797
831.635	21572
831.774	21526
831.913	21469
832.051	21412
832.19	21294
832.329	21511
832.467	21287
832.606	21199
832.744	21176
832.883	21214
833.022	21252
833.16	21138
833.299	21298
833.437	21214
833.576	21428
833.714	21386
833.852	21332
833.991	21298
834.129	21233
834.267	21291
834.406	21176
834.544	21279
834.682	21283
834.821	21180
834.959	21363
835.097	21192
835.235	21283
835.373	21287
835.511	21268
835.65	21100
835.788	21112
835.926	20963
836.064	20906
836.202	21013
836.34	21146
836.478	21268
836.615	21093
836.753	21077
836.891	21176
837.029	21081
837.167	21089
837.305	21001
837.443	20986
837.58	20929
837.718	21070
837.856	20998
837.993	20929
838.131	20944
838.269	20960
838.406	20952
838.544	20785
838.681	20708
838.819	20644
838.956	20575
839.094	20545
839.231	20598
839.369	20545
839.506	20815
839.643	20609
839.781	20473
839.918	20309
840.055	20404
840.193	20313
840.33	20362
840.467	20339
840.604	20427
840.742	20560
840.879	20210
841.016	20313
841.153	20282
841.29	20389
841.427	20347
841.564	20336
841.701	20225
841.838	20320
841.975	20305
842.112	20240
842.249	20054
842.385	20100
842.522	20256
842.659	20043
842.796	20069
842.933	20103
843.069	20054
843.206	20005
843.343	20180
843.479	20008
843.616	20088
843.752	19811
843.889	19932
844.025	19970
844.162	19902
844.298	19902
844.435	19799
844.571	19704
844.708	19879
844.844	19947
844.98	19997
845.117	20008
845.253	19799
845.389	19662
845.525	19674
845.661	19727
845.798	19635
845.934	19689
846.07	19620
846.206	19727
846.342	19769
846.478	19499
846.614	19403
846.75	19263
846.886	19369
847.022	19422
847.158	19316
847.294	19403
847.429	19335
847.565	19297
847.701	19499
847.837	18993
847.972	19004
848.108	19137
848.244	19084
848.379	18886
848.515	18894
848.65	18833
848.786	18886
848.921	18833
849.057	18954
849.192	18958
849.328	18913
849.463	18840
849.598	18852
849.734	18886
849.869	18798
850.004	18661
850.14	18654
850.275	18623
850.41	18646
850.545	18464
850.68	18635
850.815	18547
850.95	18540
851.085	18711
851.22	18631
851.355	18620
851.49	18585
851.625	18540
851.76	18494
851.895	18407
852.03	18506
852.165	18506
852.299	18555
852.434	18658
852.569	18544
852.703	18540
852.838	18601
852.973	18738
853.107	18631
853.242	18452
853.376	18433
853.511	18254
853.645	18395
853.78	18525
853.914	18452
854.048	18498
854.183	18445
854.317	18410
854.451	18601
854.585	18395
854.72	18277
854.854	18361
854.988	18330
855.122	18346
855.256	18289
855.39	18395
855.524	18460
855.658	18532
855.792	18365
855.926	18437
856.06	18380
856.194	18441
856.327	18509
856.461	18346
856.595	18388
856.729	18395
856.862	18509
856.996	18467
857.13	18426
857.263	18589
857.397	18467
857.53	18315
857.664	18433
857.797	18429
857.931	18540
858.064	18410
858.197	18479
858.331	18380
858.464	18365
858.597	18243
858.731	18410
858.864	18395
858.997	18384
859.13	18327
859.263	18414
859.396	18380
859.529	18353
859.662	18334
859.795	18304
859.928	18403
860.061	18483
860.194	18410
860.327	18239
860.46	18350
860.592	18456
860.725	18399
860.858	18502
860.99	18403
861.123	18285
861.256	18289
861.388	18232
861.521	19168
861.653	18197
861.786	18102
861.918	18224
862.05	18277
862.183	18384
862.315	18452
862.447	18483
862.58	18407
862.712	18155
862.844	18049
862.976	18079
863.108	18068
863.24	18369
863.372	18095
863.504	18076
863.636	18110
863.768	18136
863.9	18102
864.032	18015
864.164	17969
864.296	17977
864.428	18098
864.559	18068
864.691	18190
864.823	18049
864.954	18030
865.086	17916
865.217	18064
865.349	17939
865.48	17958
865.612	17958
865.743	18216
865.875	17999
866.006	17942
866.137	17984
866.269	17885
866.4	17923
866.531	17931
866.662	17870
866.793	17961
866.924	17946
867.055	17889
867.186	17950
867.317	17942
867.448	17779
867.579	17904
867.71	17771
867.841	17935
867.972	17920
868.103	18003
868.233	17999
868.364	17847
868.495	18030
868.625	18167
868.756	18285
868.886	18114
869.017	18144
869.147	18300
869.278	18258
869.408	18163
869.539	18102
869.669	18201
869.799	18155
869.929	18262
870.06	18277
870.19	18407
870.32	18456
870.45	18456
870.58	18608
870.71	18582
870.84	18684
870.97	18559
871.1	18604
871.23	18661
871.36	18715
871.489	18604
871.619	18726
871.749	18798
871.879	18779
872.008	18859
872.138	18779
872.267	18859
872.397	18525
872.526	18612
872.656	18559
872.785	18551
872.915	18795
873.044	18829
873.173	18749
873.303	18825
873.432	18783
873.561	18875
873.69	18783
873.819	18798
873.948	18783
874.077	18722
874.206	18741
874.335	18856
874.464	19084
874.593	19076
874.722	19031
874.851	19057
874.979	19110
875.108	19183
875.237	19076
875.365	19065
875.494	19175
875.623	19206
875.751	19023
875.88	19137
876.008	19270
876.136	19324
876.265	19441
876.393	19594
876.521	19514
876.65	19632
876.778	19510
876.906	19365
877.034	19426
877.162	19476
877.29	19396
877.418	19411
877.546	19491
877.674	19449
877.802	19476
877.93	19403
878.058	19354
878.185	19282
878.313	19449
878.441	19506
878.568	19240
878.696	19457
878.824	19419
878.951	19476
879.079	19563
879.206	19677
879.333	19586
879.461	19537
879.588	19575
879.715	19712
879.842	19757
879.97	19525
880.097	19354
880.224	19350
880.351	19350
880.478	19449
880.605	19244
880.732	19308
880.859	19559
880.986	19384
881.112	19354
881.239	19206
881.366	19080
881.493	18901
881.619	18954
881.746	19012
881.872	18943
881.999	18924
882.125	18806
882.252	19012
882.378	18985
882.505	19057
882.631	18916
882.757	18681
882.883	18757
883.01	18776
883.136	18620
883.262	18540
883.388	18593
883.514	18719
883.64	18681
883.766	18593
883.892	18483
884.018	18654
884.143	18688
884.269	18597
884.395	18506
884.52	18277
884.646	18365
884.772	18273
884.897	18346
885.023	18384
885.148	18407
885.274	18429
885.399	18369
885.524	18262
885.65	18369
885.775	18376
885.9	18429
886.025	18536
886.15	18426
886.275	18289
886.4	18194
886.525	18429
886.65	18285
886.775	18197
886.9	18311
887.025	18650
887.149	18330
887.274	18129
887.399	17969
887.523	18083
887.648	18053
887.773	17961
887.897	18186
888.021	18194
888.146	18129
888.27	18178
888.395	18251
888.519	18254
888.643	18190
888.767	18251
888.891	18057
889.015	17882
889.139	17992
889.263	17885
889.387	18026
889.511	18186
889.635	18110
889.759	17885
889.883	17874
890.006	18060
890.13	17958
890.254	17802
890.377	17904
890.501	17699
890.624	17600
890.748	17729
890.871	17581
890.995	17532
891.118	17459
891.241	17524
891.364	17573
891.488	17817
891.611	17558
891.734	17611
891.857	17668
891.98	17566
892.103	17611
892.226	17623
892.349	17478
892.471	17436
892.594	17490
892.717	17493
892.839	17524
892.962	17539
893.085	17676
893.207	17543
893.33	17490
893.452	17421
893.575	17547
893.697	17425
893.819	17566
893.941	17676
894.064	17581
894.186	17455
894.308	17387
894.43	17524
894.552	17745
894.674	17535
894.796	17406
894.918	17337
895.04	17463
895.161	17566
895.283	17558
895.405	17467
895.526	17490
895.648	17478
895.769	17543
895.891	17665
896.012	17646
896.134	17543
896.255	17509
896.376	17604
896.498	17558
896.619	17661
896.74	17642
896.861	17718
896.982	18003
897.103	18011
897.224	17855
897.345	17832
897.466	17870
897.587	17824
897.708	17912
897.828	17866
897.949	17824
898.07	17668
898.19	17771
898.311	17908
898.431	17779
898.552	17817
898.672	17935
898.792	17847
898.913	17843
899.033	17714
899.153	17592
899.273	17516
899.393	17608
899.513	17653
899.633	17570
899.753	17676
899.873	17486
899.993	17570
900.113	17558
900.232	17551
900.352	17554
900.472	17478
900.591	17387
900.711	17459
900.83	17463
900.95	17516
901.069	17402
901.189	17303
901.308	17090
901.427	17048
901.546	16976
901.665	17060
901.784	17041
901.904	16965
902.023	16862
902.141	16580
902.26	16554
902.379	16645
902.498	16565
902.617	16508
902.735	16561
902.854	16508
902.973	16535
903.091	16299
903.21	16185
903.328	16265
903.446	16147
903.565	16131
903.683	16128
903.801	16063
903.919	16082
904.038	16067
904.156	15816
904.274	15873
904.392	15880
904.51	15793
904.627	15759
904.745	15831
904.863	15895
904.981	15606
905.098	15534
905.216	15523
905.334	15454
905.451	15538
905.569	15526
905.686	15595
905.803	15553
905.921	15321
906.038	15488
906.155	15469
906.272	15275
906.389	15222
906.506	15142
906.623	15135
906.74	15066
906.857	14979
906.974	14963
907.091	15074
907.208	15268
907.324	15188
907.441	15001
907.557	14746
907.674	14804
907.79	14659
907.907	14815
908.023	14845
908.139	14800
908.256	14724
908.372	14716
908.488	14663
908.604	14537
908.72	14412
908.836	14526
908.952	14533
909.068	14396
909.184	14644
909.3	14530
909.415	14587
909.531	14537
909.647	14309
909.762	14328
909.878	14202
909.993	14202
910.108	14191
910.224	14161
910.339	14199
910.454	14195
910.57	14054
910.685	13978
910.8	14286
910.915	14149
911.03	14065
911.145	13906
911.259	13841
911.374	13902
911.489	13826
911.604	13719
911.718	13601
911.833	13655
911.947	13483
912.062	13411
912.176	13643
912.291	13582
912.405	13556
912.519	13791
912.633	13753
912.748	13624
912.862	13571
912.976	13464
913.09	13293
913.204	13335
913.318	13369
913.431	13381
913.545	13556
913.659	13499
913.772	13411
913.886	13377
914	13293
914.113	13350
914.226	13369
914.34	13335
914.453	13152
914.566	13293
914.68	13228
914.793	13228
914.906	13027
915.019	12871
915.132	12825
915.245	12985
915.358	13000
915.47	12966
915.583	12928
915.696	13057
915.809	13023
915.921	13126
916.034	12882
916.146	12897
916.259	12993
916.371	12966
916.483	12966
916.595	12779
916.708	12814
916.82	12844
916.932	12844
917.044	12776
917.156	12802
917.268	12559
917.38	12669
917.491	12673
917.603	12650
917.715	12722
917.826	12722
917.938	12593
918.049	12578
918.161	12654
918.272	12829
918.384	12810
918.495	12707
918.606	12483
918.717	12407
918.828	12544
918.939	12555
919.05	12346
919.161	12407
919.272	12247
919.383	12330
919.494	12521
919.604	12681
919.715	12429
919.826	12308
919.936	12551
920.047	12551
920.157	12350
920.267	12692
920.378	12475
920.488	12471
920.598	12631
920.708	12738
920.818	12665
920.928	12696
921.038	12791
921.148	12654
921.258	12376
921.368	12376
921.477	12235
921.587	12251
921.697	12144
921.806	12254
921.916	12140
922.025	12003
922.134	11904
922.244	11855
922.353	11965
922.462	11798
922.571	11745
922.68	11570
922.789	11539
922.898	11558
923.007	11543
923.116	11535
923.224	11478
923.333	11581
923.442	11448
923.55	11356
923.659	11383
923.767	11436
923.876	11414
923.984	11501
924.092	11330
924.201	11417
924.309	11391
924.417	11341
924.525	11197
924.633	11334
924.741	12152
924.849	11128
924.956	11269
925.064	11174
925.172	11029
925.279	10972
925.387	11090
925.494	11166
925.602	11132
925.709	11242
925.816	11014
925.924	11143
926.031	11162
926.138	11018
926.245	11162
926.352	10934
926.459	11094
926.566	11052
926.673	10980
926.779	10934
926.886	10934
926.993	10710
927.099	10694
927.206	10683
927.312	10683
927.419	10809
927.525	10672
927.631	10801
927.737	10664
927.843	10554
927.95	10535
928.056	10565
928.162	10637
928.267	10535
928.373	11246
928.479	10664
928.585	10436
928.69	10584
928.796	10580
928.901	10470
929.007	10303
929.112	10417
929.218	10409
929.323	10386
929.428	10318
929.533	10390
929.638	10223
929.743	10333
929.848	10314
929.953	10310
930.058	10185
930.163	10006
930.267	10128
930.372	10280
930.477	10006
930.581	10265
930.685	10093
930.79	9949
930.894	10002
930.998	10006
931.103	10101
931.207	9736
931.311	9675
931.415	9629
931.519	9408
931.623	9336
