Data from test_V78500241_3085.txt Node
Date: Fri Mar 25 14:55:11 CST 2022
User: usil
Spectrometer: V785-0024
Trigger mode: 0
Integration Time (sec): 4.000000E-1
Scans to average: 1
Nonlinearity correction enabled: false
Boxcar width: 0
Storing dark spectrum: false
XAxis mode: Wavelengths
Number of Pixels in Spectrum: 1024
>>>>>Begin Spectral Data<<<<<
801.071	22040
801.214	21819
801.356	21652
801.499	21545
801.641	21485
801.783	21469
801.926	21416
802.068	21294
802.211	21275
802.353	21237
802.496	21005
802.638	20910
802.78	20914
802.923	20864
803.065	20731
803.208	20663
803.35	20701
803.492	20872
803.635	20975
803.777	20785
803.919	20769
804.061	21039
804.204	20819
804.346	20575
804.488	20636
804.63	20769
804.773	20621
804.915	20686
805.057	20705
805.199	20606
805.341	20804
805.483	20880
805.626	20769
805.768	20712
805.91	20724
806.052	20769
806.194	20598
806.336	20785
806.478	20693
806.62	20492
806.762	20773
806.904	20739
807.046	21104
807.188	21001
807.33	20918
807.472	21032
807.614	20899
807.756	20880
807.898	20693
808.04	20796
808.182	20720
808.324	20769
808.465	20773
808.607	21001
808.749	21077
808.891	21066
809.033	21112
809.174	21077
809.316	20963
809.458	20891
809.6	20956
809.741	21123
809.883	21096
810.025	21241
810.166	21146
810.308	21226
810.45	21039
810.591	21173
810.733	20979
810.875	20864
811.016	20697
811.158	20769
811.299	20883
811.441	21009
811.582	20967
811.724	20937
811.865	20682
812.007	20842
812.148	20773
812.29	20796
812.431	20857
812.573	21066
812.714	21230
812.855	21355
812.997	21488
813.138	21507
813.279	21447
813.421	21313
813.562	21165
813.703	21081
813.845	20918
813.986	20659
814.127	20594
814.268	20393
814.41	20408
814.551	20320
814.692	20381
814.833	20305
814.974	20355
815.115	20396
815.256	20225
815.397	20206
815.539	20278
815.68	20096
815.821	20073
815.962	20092
816.103	20035
816.244	19871
816.385	19841
816.526	19860
816.666	19567
816.807	19453
816.948	19609
817.089	19605
817.23	19639
817.371	19567
817.512	19491
817.653	19499
817.793	19365
817.934	19441
818.075	19476
818.216	19426
818.356	19430
818.497	19350
818.638	19145
818.778	19114
818.919	19179
819.06	19137
819.2	19156
819.341	19255
819.481	19419
819.622	19422
819.762	19753
819.903	19613
820.043	19506
820.184	19445
820.324	19415
820.465	19449
820.605	19464
820.746	19514
820.886	19354
821.026	19407
821.167	19457
821.307	19472
821.447	19236
821.588	19198
821.728	19148
821.868	18996
822.008	18951
822.149	18905
822.289	18856
822.429	18650
822.569	18650
822.709	18555
822.849	18372
822.99	18300
823.13	18289
823.27	18365
823.41	18308
823.55	17999
823.69	18273
823.83	18171
823.97	18034
824.11	17863
824.25	17866
824.389	17920
824.529	18091
824.669	17920
824.809	17980
824.949	18083
825.089	18026
825.228	17878
825.368	17710
825.508	17642
825.648	17646
825.787	17649
825.927	17630
826.067	17661
826.206	17596
826.346	17733
826.485	17646
826.625	17665
826.765	17798
826.904	17707
827.044	17440
827.183	17417
827.323	17193
827.462	17524
827.601	17356
827.741	17326
827.88	17326
828.02	17353
828.159	17303
828.298	17345
828.437	17478
828.577	17322
828.716	17459
828.855	17277
828.994	17181
829.134	17102
829.273	17239
829.412	17098
829.551	17083
829.69	17121
829.829	17147
829.968	17083
830.107	17231
830.246	17155
830.385	17006
830.524	17060
830.663	16991
830.802	16816
830.941	16816
831.08	16698
831.219	16877
831.357	16828
831.496	17037
831.635	16725
831.774	16630
831.913	16717
832.051	16596
832.19	16459
832.329	16493
832.467	16451
832.606	16470
832.744	16424
832.883	16402
833.022	16432
833.16	16519
833.299	16500
833.437	16459
833.576	16527
833.714	16455
833.852	16523
833.991	16436
834.129	16542
834.267	16607
834.406	16497
834.544	16580
834.682	16443
834.821	16440
834.959	16580
835.097	16409
835.235	16615
835.373	16622
835.511	16573
835.65	16398
835.788	16474
835.926	16306
836.064	16207
836.202	16215
836.34	16428
836.478	16424
836.615	16337
836.753	16428
836.891	16489
837.029	16500
837.167	16363
837.305	16455
837.443	16348
837.58	16287
837.718	16360
837.856	16341
837.993	16303
838.131	16223
838.269	16196
838.406	16295
838.544	16051
838.681	15918
838.819	15903
838.956	15842
839.094	15816
839.231	15884
839.369	15915
839.506	16112
839.643	16036
839.781	15865
839.918	15823
840.055	15812
840.193	15778
840.33	15785
840.467	15728
840.604	15937
840.742	16097
840.879	15656
841.016	15778
841.153	15762
841.29	15968
841.427	15781
841.564	15865
841.701	15854
841.838	15873
841.975	15694
842.112	15804
842.249	15675
842.385	15618
842.522	15766
842.659	15679
842.796	15599
842.933	15584
843.069	15587
843.206	15606
843.343	15663
843.479	15656
843.616	15545
843.752	15454
843.889	15313
844.025	15545
844.162	15428
844.298	15435
844.435	15393
844.571	15355
844.708	15458
844.844	15469
844.98	15530
845.117	15515
845.253	15389
845.389	15291
845.525	15283
845.661	15192
845.798	15203
845.934	15382
846.07	15218
846.206	15226
846.342	15233
846.478	15165
846.614	14975
846.75	14910
846.886	14925
847.022	15058
847.158	14941
847.294	15047
847.429	14887
847.565	14944
847.701	15188
847.837	14739
847.972	14731
848.108	14746
848.244	14819
848.379	14583
848.515	14606
848.65	14560
848.786	14659
848.921	14583
849.057	14564
849.192	14644
849.328	14526
849.463	14617
849.598	14476
849.734	14511
849.869	14412
850.004	14317
850.14	14324
850.275	14324
850.41	14202
850.545	14244
850.68	14328
850.815	14294
850.95	14298
851.085	14549
851.22	14336
851.355	14313
851.49	14320
851.625	14202
851.76	14320
851.895	14210
852.03	14206
852.165	14282
852.299	14423
852.434	14351
852.569	14286
852.703	14313
852.838	14427
852.973	14434
853.107	14514
853.242	14240
853.376	14229
853.511	14191
853.645	14145
853.78	14271
853.914	14237
854.048	14123
854.183	14187
854.317	14233
854.451	14476
854.585	14183
854.72	14157
854.854	14305
854.988	14149
855.122	14149
855.256	13978
855.39	14142
855.524	14271
855.658	14233
855.792	14218
855.926	14286
856.06	14221
856.194	14305
856.327	14145
856.461	14077
856.595	14103
856.729	14134
856.862	14294
856.996	14229
857.13	14298
857.263	14240
857.397	14290
857.53	14278
857.664	14336
857.797	14309
857.931	14343
858.064	14187
858.197	14317
858.331	14202
858.464	14214
858.597	14084
858.731	14202
858.864	14183
858.997	14210
859.13	14237
859.263	14191
859.396	14248
859.529	14248
859.662	14149
859.795	14233
859.928	14195
860.061	14309
860.194	14370
860.327	14233
860.46	14244
860.592	14256
860.725	14317
860.858	14336
860.99	14191
861.123	14130
861.256	14084
861.388	14134
861.521	14857
861.653	14081
861.786	14035
861.918	14065
862.05	14138
862.183	14077
862.315	14180
862.447	14161
862.58	14050
862.712	14001
862.844	13959
862.976	14088
863.108	13970
863.24	14362
863.372	13898
863.504	14031
863.636	13986
863.768	14142
863.9	13936
864.032	13894
864.164	13841
864.296	14103
864.428	14100
864.559	14069
864.691	14016
864.823	14046
864.954	14092
865.086	13982
865.217	13955
865.349	13921
865.48	14054
865.612	13986
865.743	14107
865.875	13921
866.006	14005
866.137	13989
866.269	13947
866.4	14046
866.531	13944
866.662	13868
866.793	13822
866.924	13997
867.055	14005
867.186	13951
867.317	13978
867.448	13833
867.579	13811
867.71	13841
867.841	13947
867.972	13951
868.103	13978
868.233	13890
868.364	13940
868.495	13947
868.625	14206
868.756	14355
868.886	14123
869.017	14168
869.147	14415
869.278	14343
869.408	14305
869.539	14214
869.669	14305
869.799	14225
869.929	14317
870.06	14221
870.19	14469
870.32	14499
870.45	14514
870.58	14610
870.71	14674
870.84	14735
870.97	14484
871.1	14560
871.23	14746
871.36	14758
871.489	14727
871.619	14758
871.749	14792
871.879	14792
872.008	14792
872.138	14750
872.267	14804
872.397	14670
872.526	14465
872.656	14678
872.785	14610
872.915	14762
873.044	14918
873.173	14857
873.303	14902
873.432	14960
873.561	14925
873.69	14960
873.819	14918
873.948	15058
874.077	14762
874.206	14811
874.335	14982
874.464	15013
874.593	15188
874.722	15214
874.851	15184
874.979	15104
875.108	15192
875.237	15138
875.365	15077
875.494	15169
875.623	15199
875.751	15119
875.88	15135
876.008	15222
876.136	15382
876.265	15553
876.393	15690
876.521	15667
876.65	15743
876.778	15679
876.906	15557
877.034	15595
877.162	15633
877.29	15500
877.418	15526
877.546	15656
877.674	15526
877.802	15572
877.93	15557
878.058	15447
878.185	15477
878.313	15633
878.441	15519
878.568	15405
878.696	15568
878.824	15564
878.951	15660
879.079	15759
879.206	15857
879.333	15705
879.461	15671
879.588	15633
879.715	15755
879.842	15888
879.97	15759
880.097	15477
880.224	15435
880.351	15492
880.478	15507
880.605	15397
880.732	15378
880.859	15675
880.986	15469
881.112	15363
881.239	15359
881.366	15218
881.493	15157
881.619	14975
881.746	15116
881.872	15089
881.999	15036
882.125	15036
882.252	15180
882.378	15146
882.505	15252
882.631	15009
882.757	14994
882.883	14933
883.01	14876
883.136	14876
883.262	14758
883.388	14746
883.514	14914
883.64	14883
883.766	14834
883.892	14781
884.018	14781
884.143	15047
884.269	14967
884.395	14724
884.52	14564
884.646	14594
884.772	14598
884.897	14446
885.023	14682
885.148	14686
885.274	14716
885.399	14731
885.524	14743
885.65	14579
885.775	14674
885.9	14590
886.025	14712
886.15	14743
886.275	14560
886.4	14473
886.525	14530
886.65	14545
886.775	14598
886.9	14754
887.025	14864
887.149	14602
887.274	14454
887.399	14309
887.523	14473
887.648	14400
887.773	14294
887.897	14533
888.021	14552
888.146	14389
888.27	14446
888.395	14697
888.519	14495
888.643	14495
888.767	14473
888.891	14374
889.015	14298
889.139	14278
889.263	14191
889.387	14374
889.511	14461
889.635	14450
889.759	14286
889.883	14358
890.006	14313
890.13	14355
890.254	14320
890.377	14377
890.501	14180
890.624	14126
890.748	14195
890.871	13959
890.995	14008
891.118	13970
891.241	14016
891.364	14016
891.488	14103
891.611	13936
891.734	13906
891.857	14035
891.98	13970
892.103	14142
892.226	14084
892.349	14001
892.471	13890
892.594	14027
892.717	13974
892.839	14046
892.962	14115
893.085	13970
893.207	13963
893.33	13875
893.452	13940
893.575	14126
893.697	13925
893.819	14123
893.941	14218
894.064	14240
894.186	13928
894.308	14001
894.43	14062
894.552	14199
894.674	14130
894.796	14024
894.918	14092
895.04	13959
895.161	14153
895.283	14126
895.405	14016
895.526	14065
895.648	14111
895.769	14161
895.891	14187
896.012	14199
896.134	14377
896.255	14130
896.376	14138
896.498	14214
896.619	14252
896.74	14172
896.861	14256
896.982	14518
897.103	14632
897.224	14514
897.345	14374
897.466	14343
897.587	14442
897.708	14590
897.828	14499
897.949	14446
898.07	14336
898.19	14396
898.311	14636
898.431	14488
898.552	14636
898.672	14545
898.792	14579
898.913	14621
899.033	14400
899.153	14442
899.273	14320
899.393	14385
899.513	14358
899.633	14343
899.753	14461
899.873	14347
899.993	14473
900.113	14465
900.232	14366
900.352	14442
900.472	14347
900.591	14290
900.711	14336
900.83	14199
900.95	14415
901.069	14351
901.189	14168
901.308	13982
901.427	13944
901.546	13875
901.665	13928
901.784	13909
901.904	13849
902.023	13681
902.141	13628
902.26	13480
902.379	13544
902.498	13426
902.617	13495
902.735	13548
902.854	13434
902.973	13495
903.091	13217
903.21	13274
903.328	13244
903.446	13164
903.565	13122
903.683	13088
903.801	12985
903.919	13019
904.038	13057
904.156	12962
904.274	12939
904.392	12905
904.51	12913
904.627	12897
904.745	12996
904.863	12947
904.981	12719
905.098	12589
905.216	12536
905.334	12563
905.451	12551
905.569	12631
905.686	12578
905.803	12601
905.921	12338
906.038	12483
906.155	12338
906.272	12239
906.389	12391
906.506	12159
906.623	12178
906.74	12228
906.857	12064
906.974	12095
907.091	12194
907.208	12311
907.324	12201
907.441	12076
907.557	11897
907.674	11912
907.79	11863
907.907	11882
908.023	12003
908.139	11935
908.256	11847
908.372	11809
908.488	11775
908.604	11630
908.72	11634
908.836	11710
908.952	11646
909.068	11707
909.184	11794
909.3	11665
909.415	11718
909.531	11722
909.647	11440
909.762	11474
909.878	11497
909.993	11505
910.108	11455
910.224	11372
910.339	11452
910.454	11417
910.57	11315
910.685	11208
910.8	11535
910.915	11402
911.03	11322
911.145	11170
911.259	11166
911.374	11113
911.489	11048
911.604	11014
911.718	10858
911.833	11014
911.947	10759
912.062	10694
912.176	10892
912.291	10965
912.405	10843
912.519	11045
912.633	11166
912.748	10984
912.862	10911
912.976	10748
913.09	10736
913.204	10736
913.318	10778
913.431	10896
913.545	10812
913.659	10919
913.772	10767
913.886	10637
914	10656
914.113	10793
914.226	10809
914.34	10729
914.453	10626
914.566	10801
914.68	10645
914.793	10622
914.906	10504
915.019	10363
915.132	10306
915.245	10440
915.358	10421
915.47	10356
915.583	10455
915.696	10447
915.809	10531
915.921	10596
916.034	10398
916.146	10382
916.259	10432
916.371	10402
916.483	10360
916.595	10341
916.708	10295
916.82	10474
916.932	10325
917.044	10371
917.156	10379
917.268	10249
917.38	10257
917.491	10169
917.603	10291
917.715	10436
917.826	10417
917.938	10188
918.049	10181
918.161	10261
918.272	10466
918.384	10485
918.495	10234
918.606	10112
918.717	10101
918.828	10067
918.939	10234
919.05	10013
919.161	10139
919.272	9941
919.383	10025
919.494	10215
919.604	10413
919.715	10162
919.826	10109
919.936	10150
920.047	10280
920.157	10154
920.267	10421
920.378	10196
920.488	10109
920.598	10337
920.708	10470
920.818	10375
920.928	10390
921.038	10538
921.148	10504
921.258	10207
921.368	10158
921.477	9983
921.587	9987
921.697	9937
921.806	10059
921.916	9827
922.025	9755
922.134	9747
922.244	9667
922.353	9793
922.462	9637
922.571	9526
922.68	9386
922.789	9439
922.898	9454
923.007	9321
923.116	9454
923.224	9370
923.333	9386
923.442	9329
923.55	9253
923.659	9291
923.767	9363
923.876	9317
923.984	9325
924.092	9173
924.201	9253
924.309	9279
924.417	9298
924.525	9203
924.633	9176
924.741	10147
924.849	9051
924.956	9142
925.064	8998
925.172	8986
925.279	9058
925.387	9081
925.494	8979
925.602	9195
925.709	9169
925.816	8971
925.924	9093
926.031	9150
926.138	9077
926.245	9081
926.352	8902
926.459	9055
926.566	9127
926.673	9051
926.779	8941
926.886	8963
926.993	8750
927.099	8785
927.206	8697
927.312	8769
927.419	8762
927.525	8807
927.631	8838
927.737	8739
927.843	8701
927.95	8530
928.056	8708
928.162	8644
928.267	8773
928.373	9359
928.479	8804
928.585	8511
928.69	8674
928.796	8697
928.901	8606
929.007	8415
929.112	8594
929.218	8610
929.323	8514
929.428	8507
929.533	8655
929.638	8423
929.743	8431
929.848	8473
929.953	8556
930.058	8381
930.163	8290
930.267	8294
930.372	8393
930.477	8282
930.581	8438
930.685	8355
930.79	8248
930.894	8290
930.998	8206
931.103	8339
931.207	8005
931.311	7982
931.415	7890
931.519	7746
931.623	7719
