Data from test_V78500241_2667.txt Node
Date: Fri Mar 25 14:52:17 CST 2022
User: usil
Spectrometer: V785-0024
Trigger mode: 0
Integration Time (sec): 4.000000E-1
Scans to average: 1
Nonlinearity correction enabled: false
Boxcar width: 0
Storing dark spectrum: false
XAxis mode: Wavelengths
Number of Pixels in Spectrum: 1024
>>>>>Begin Spectral Data<<<<<
801.071	21884
801.214	21892
801.356	21587
801.499	21519
801.641	21370
801.783	21420
801.926	21367
802.068	21416
802.211	21207
802.353	21089
802.496	21039
802.638	20921
802.78	20845
802.923	20670
803.065	20667
803.208	20689
803.35	20792
803.492	20777
803.635	20788
803.777	20636
803.919	20716
804.061	21081
804.204	20914
804.346	20564
804.488	20621
804.63	20636
804.773	20594
804.915	20640
805.057	20689
805.199	20632
805.341	20606
805.483	20636
805.626	20602
805.768	20648
805.91	20712
806.052	20545
806.194	20400
806.336	20705
806.478	20655
806.62	20606
806.762	20674
806.904	20868
807.046	21036
807.188	20899
807.33	20948
807.472	20956
807.614	20796
807.756	20845
807.898	20655
808.04	20621
808.182	20526
808.324	20708
808.465	20708
808.607	20876
808.749	20895
808.891	21032
809.033	21100
809.174	21020
809.316	20834
809.458	21051
809.6	20921
809.741	21032
809.883	20948
810.025	21005
810.166	21108
810.308	21089
810.45	21020
810.591	20971
810.733	20895
810.875	20716
811.016	20663
811.158	20530
811.299	20788
811.441	20823
811.582	20758
811.724	20720
811.865	20667
812.007	20644
812.148	20724
812.29	20739
812.431	20853
812.573	21104
812.714	21093
812.855	21256
812.997	21355
813.138	21439
813.279	21272
813.421	21272
813.562	21062
813.703	20994
813.845	20960
813.986	20571
814.127	20438
814.268	20412
814.41	20229
814.551	20263
814.692	20347
814.833	20122
814.974	20278
815.115	20263
815.256	20191
815.397	20088
815.539	20111
815.68	20062
815.821	20035
815.962	20111
816.103	19936
816.244	19712
816.385	19635
816.526	19712
816.666	19514
816.807	19476
816.948	19468
817.089	19586
817.23	19510
817.371	19419
817.512	19441
817.653	19308
817.793	19343
817.934	19312
818.075	19430
818.216	19419
818.356	19251
818.497	19316
818.638	19038
818.778	19095
818.919	19228
819.06	19164
819.2	19282
819.341	19297
819.481	19396
819.622	19411
819.762	19658
819.903	19480
820.043	19441
820.184	19350
820.324	19373
820.465	19518
820.605	19426
820.746	19362
820.886	19278
821.026	19464
821.167	19335
821.307	19506
821.447	19282
821.588	19240
821.728	19046
821.868	18958
822.008	18894
822.149	18878
822.289	18863
822.429	18627
822.569	18528
822.709	18517
822.849	18319
822.99	18254
823.13	18247
823.27	18350
823.41	18239
823.55	18110
823.69	18121
823.83	18190
823.97	18026
824.11	17935
824.25	17863
824.389	17935
824.529	18022
824.669	17904
824.809	17958
824.949	18079
825.089	18076
825.228	17999
825.368	17707
825.508	17703
825.648	17684
825.787	17828
825.927	17695
826.067	17589
826.206	17695
826.346	17722
826.485	17634
826.625	17642
826.765	17855
826.904	17695
827.044	17425
827.183	17406
827.323	17360
827.462	17486
827.601	17467
827.741	17490
827.88	17349
828.02	17318
828.159	17387
828.298	17455
828.437	17551
828.577	17372
828.716	17528
828.855	17455
828.994	17117
829.134	17090
829.273	17128
829.412	17162
829.551	17132
829.69	17166
829.829	17178
829.968	17246
830.107	17128
830.246	17216
830.385	17140
830.524	17060
830.663	17003
830.802	16889
830.941	16710
831.08	16778
831.219	16839
831.357	16896
831.496	17086
831.635	16763
831.774	16767
831.913	16672
832.051	16573
832.19	16447
832.329	16637
832.467	16360
832.606	16459
832.744	16413
832.883	16481
833.022	16379
833.16	16516
833.299	16489
833.437	16398
833.576	16558
833.714	16580
833.852	16535
833.991	16615
834.129	16626
834.267	16653
834.406	16493
834.544	16580
834.682	16504
834.821	16558
834.959	16645
835.097	16519
835.235	16672
835.373	16603
835.511	16569
835.65	16470
835.788	16413
835.926	16268
836.064	16219
836.202	16356
836.34	16447
836.478	16531
836.615	16386
836.753	16512
836.891	16478
837.029	16497
837.167	16382
837.305	16280
837.443	16299
837.58	16280
837.718	16341
837.856	16329
837.993	16223
838.131	16337
838.269	16185
838.406	16242
838.544	16230
838.681	16036
838.819	16029
838.956	15937
839.094	15983
839.231	15930
839.369	15979
839.506	16207
839.643	16067
839.781	15937
839.918	15937
840.055	15835
840.193	15819
840.33	15873
840.467	15854
840.604	15774
840.742	16051
840.879	15717
841.016	15816
841.153	15827
841.29	15968
841.427	15865
841.564	15861
841.701	15915
841.838	15869
841.975	15686
842.112	15778
842.249	15701
842.385	15545
842.522	15861
842.659	15660
842.796	15610
842.933	15671
843.069	15629
843.206	15618
843.343	15682
843.479	15724
843.616	15690
843.752	15393
843.889	15408
844.025	15622
844.162	15450
844.298	15591
844.435	15447
844.571	15336
844.708	15492
844.844	15526
844.98	15599
845.117	15515
845.253	15287
845.389	15359
845.525	15306
845.661	15348
845.798	15283
845.934	15249
846.07	15256
846.206	15188
846.342	15294
846.478	15226
846.614	15017
846.75	14944
846.886	14952
847.022	15043
847.158	15062
847.294	15005
847.429	14998
847.565	14937
847.701	15321
847.837	14727
847.972	14602
848.108	14868
848.244	14800
848.379	14686
848.515	14606
848.65	14621
848.786	14568
848.921	14739
849.057	14659
849.192	14739
849.328	14686
849.463	14640
849.598	14503
849.734	14495
849.869	14484
850.004	14431
850.14	14385
850.275	14412
850.41	14301
850.545	14313
850.68	14385
850.815	14461
850.95	14320
851.085	14461
851.22	14427
851.355	14396
851.49	14381
851.625	14355
851.76	14434
851.895	14263
852.03	14233
852.165	14347
852.299	14465
852.434	14351
852.569	14583
852.703	14400
852.838	14469
852.973	14503
853.107	14495
853.242	14415
853.376	14298
853.511	14168
853.645	14187
853.78	14374
853.914	14290
854.048	14187
854.183	14320
854.317	14271
854.451	14476
854.585	14317
854.72	14183
854.854	14294
854.988	14240
855.122	14202
855.256	14161
855.39	14195
855.524	14355
855.658	14259
855.792	14267
855.926	14301
856.06	14282
856.194	14393
856.327	14256
856.461	14233
856.595	14180
856.729	14206
856.862	14457
856.996	14320
857.13	14374
857.263	14282
857.397	14355
857.53	14145
857.664	14298
857.797	14271
857.931	14404
858.064	14278
858.197	14385
858.331	14233
858.464	14096
858.597	14092
858.731	14244
858.864	14237
858.997	14176
859.13	14317
859.263	14347
859.396	14294
859.529	14202
859.662	14282
859.795	14153
859.928	14290
860.061	14423
860.194	14412
860.327	14336
860.46	14294
860.592	14328
860.725	14419
860.858	14374
860.99	14225
861.123	14183
861.256	14176
861.388	14103
861.521	14857
861.653	14153
861.786	14027
861.918	14016
862.05	14191
862.183	14176
862.315	14168
862.447	14252
862.58	14126
862.712	14096
862.844	13993
862.976	14145
863.108	13963
863.24	14374
863.372	13906
863.504	14119
863.636	14031
863.768	14005
863.9	14126
864.032	13913
864.164	13970
864.296	14115
864.428	14100
864.559	14176
864.691	14119
864.823	14050
864.954	14100
865.086	14046
865.217	14020
865.349	13959
865.48	14096
865.612	14027
865.743	14138
865.875	14119
866.006	13951
866.137	13997
866.269	14035
866.4	13982
866.531	14031
866.662	13906
866.793	13986
866.924	14012
867.055	14043
867.186	14001
867.317	13967
867.448	13906
867.579	13951
867.71	13909
867.841	13883
867.972	14039
868.103	13978
868.233	13986
868.364	13967
868.495	14039
868.625	14240
868.756	14294
868.886	14282
869.017	14218
869.147	14389
869.278	14362
869.408	14263
869.539	14317
869.669	14366
869.799	14336
869.929	14347
870.06	14324
870.19	14476
870.32	14583
870.45	14648
870.58	14667
870.71	14773
870.84	14746
870.97	14556
871.1	14648
871.23	14868
871.36	14838
871.489	14758
871.619	14727
871.749	14887
871.879	14849
872.008	14986
872.138	14872
872.267	14864
872.397	14785
872.526	14720
872.656	14663
872.785	14667
872.915	14853
873.044	14960
873.173	14891
873.303	14944
873.432	14933
873.561	15032
873.69	14948
873.819	14781
873.948	15047
874.077	14960
874.206	14921
874.335	14815
874.464	14990
874.593	15241
874.722	15222
874.851	15291
874.979	15256
875.108	15256
875.237	15142
875.365	15176
875.494	15211
875.623	15329
875.751	15146
875.88	15237
876.008	15408
876.136	15526
876.265	15584
876.393	15717
876.521	15789
876.65	15785
876.778	15671
876.906	15587
877.034	15637
877.162	15576
877.29	15519
877.418	15656
877.546	15648
877.674	15622
877.802	15564
877.93	15637
878.058	15538
878.185	15473
878.313	15595
878.441	15694
878.568	15545
878.696	15622
878.824	15561
878.951	15770
879.079	15736
879.206	15903
879.333	15759
879.461	15747
879.588	15835
879.715	15876
879.842	16025
879.97	15736
880.097	15504
880.224	15519
880.351	15542
880.478	15526
880.605	15454
880.732	15469
880.859	15644
880.986	15469
881.112	15515
881.239	15321
881.366	15325
881.493	15161
881.619	15173
881.746	15207
881.872	15157
881.999	15055
882.125	15138
882.252	15127
882.378	15214
882.505	15272
882.631	15138
882.757	14944
882.883	15055
883.01	15051
883.136	14975
883.262	14788
883.388	14845
883.514	15013
883.64	15051
883.766	14868
883.892	14731
884.018	14754
884.143	14998
884.269	14990
884.395	14815
884.52	14625
884.646	14629
884.772	14678
884.897	14579
885.023	14792
885.148	14819
885.274	14815
885.399	14762
885.524	14674
885.65	14670
885.775	14762
885.9	14682
886.025	14804
886.15	14762
886.275	14655
886.4	14587
886.525	14613
886.65	14617
886.775	14583
886.9	14788
887.025	14864
887.149	14712
887.274	14575
887.399	14503
887.523	14545
887.648	14438
887.773	14533
887.897	14545
888.021	14549
888.146	14415
888.27	14594
888.395	14568
888.519	14655
888.643	14537
888.767	14488
888.891	14461
889.015	14393
889.139	14404
889.263	14332
889.387	14450
889.511	14537
889.635	14469
889.759	14248
889.883	14427
890.006	14366
890.13	14442
890.254	14267
890.377	14313
890.501	14161
890.624	14130
890.748	14180
890.871	14191
890.995	14088
891.118	13986
891.241	14088
891.364	14062
891.488	14218
891.611	14008
891.734	14046
891.857	14164
891.98	14050
892.103	14103
892.226	14100
892.349	14012
892.471	13944
892.594	13902
892.717	14088
892.839	14123
892.962	14001
893.085	14183
893.207	14073
893.33	13989
893.452	14020
893.575	14149
893.697	13974
893.819	14180
893.941	14290
894.064	14202
894.186	14084
894.308	13986
894.43	14221
894.552	14240
894.674	14187
894.796	14024
894.918	14168
895.04	14126
895.161	14191
895.283	14065
895.405	14123
895.526	14206
895.648	14191
895.769	14123
895.891	14221
896.012	14347
896.134	14301
896.255	14271
896.376	14149
896.498	14176
896.619	14305
896.74	14290
896.861	14343
896.982	14522
897.103	14758
897.224	14613
897.345	14480
897.466	14484
897.587	14450
897.708	14682
897.828	14450
897.949	14431
898.07	14358
898.19	14514
898.311	14640
898.431	14480
898.552	14545
898.672	14758
898.792	14663
898.913	14537
899.033	14583
899.153	14385
899.273	14240
899.393	14339
899.513	14514
899.633	14408
899.753	14423
899.873	14332
899.993	14454
900.113	14385
900.232	14374
900.352	14358
900.472	14408
900.591	14313
900.711	14374
900.83	14240
900.95	14362
901.069	14393
901.189	14210
901.308	13978
901.427	13887
901.546	13906
901.665	14008
901.784	13989
901.904	13826
902.023	13734
902.141	13552
902.26	13643
902.379	13647
902.498	13445
902.617	13491
902.735	13548
902.854	13559
902.973	13464
903.091	13255
903.21	13312
903.328	13247
903.446	13149
903.565	13122
903.683	13179
903.801	13065
903.919	13152
904.038	13061
904.156	12973
904.274	13046
904.392	12875
904.51	12829
904.627	12852
904.745	12951
904.863	13004
904.981	12738
905.098	12604
905.216	12734
905.334	12726
905.451	12589
905.569	12532
905.686	12745
905.803	12623
905.921	12437
906.038	12570
906.155	12452
906.272	12296
906.389	12437
906.506	12186
906.623	12213
906.74	12273
906.857	12083
906.974	12216
907.091	12262
907.208	12357
907.324	12216
907.441	12232
907.557	11878
907.674	11988
907.79	11885
907.907	11977
908.023	11969
908.139	11984
908.256	11935
908.372	11931
908.488	11843
908.604	11775
908.72	11649
908.836	11718
908.952	11695
909.068	11684
909.184	11813
909.3	11672
909.415	11802
909.531	11748
909.647	11566
909.762	11512
909.878	11452
909.993	11516
910.108	11414
910.224	11516
910.339	11433
910.454	11406
910.57	11364
910.685	11235
910.8	11520
910.915	11509
911.03	11387
911.145	11307
911.259	11178
911.374	11220
911.489	11162
911.604	11117
911.718	10930
911.833	10953
911.947	10919
912.062	10782
912.176	10927
912.291	10980
912.405	10934
912.519	11045
912.633	11189
912.748	10923
912.862	10953
912.976	10774
913.09	10698
913.204	10850
913.318	10850
913.431	10900
913.545	10881
913.659	10965
913.772	10839
913.886	10812
914	10649
914.113	10729
914.226	10873
914.34	10854
914.453	10691
914.566	10801
914.68	10645
914.793	10717
914.906	10462
915.019	10409
915.132	10356
915.245	10424
915.358	10554
915.47	10478
915.583	10451
915.696	10542
915.809	10577
915.921	10622
916.034	10523
916.146	10402
916.259	10398
916.371	10504
916.483	10493
916.595	10371
916.708	10451
916.82	10428
916.932	10459
917.044	10310
917.156	10291
917.268	10242
917.38	10284
917.491	10219
917.603	10227
917.715	10295
917.826	10386
917.938	10303
918.049	10219
918.161	10329
918.272	10360
918.384	10466
918.495	10333
918.606	10177
918.717	10074
918.828	10287
918.939	10192
919.05	10200
919.161	10135
919.272	9998
919.383	10044
919.494	10257
919.604	10466
919.715	10192
919.826	10063
919.936	10162
920.047	10253
920.157	10230
920.267	10432
920.378	10158
920.488	10173
920.598	10341
920.708	10470
920.818	10352
920.928	10375
921.038	10630
921.148	10531
921.258	10177
921.368	10154
921.477	10093
921.587	10021
921.697	9915
921.806	10051
921.916	9968
922.025	9759
922.134	9728
922.244	9686
922.353	9812
922.462	9652
922.571	9557
922.68	9469
922.789	9439
922.898	9435
923.007	9336
923.116	9481
923.224	9450
923.333	9420
923.442	9298
923.55	9310
923.659	9325
923.767	9378
923.876	9211
923.984	9378
924.092	9298
924.201	9291
924.309	9397
924.417	9351
924.525	9294
924.633	9241
924.741	10090
924.849	9173
924.956	9226
925.064	9077
925.172	8998
925.279	9032
925.387	9161
925.494	9123
925.602	9157
925.709	9173
925.816	9005
925.924	9077
926.031	9188
926.138	9108
926.245	9199
926.352	8960
926.459	9157
926.566	9157
926.673	9005
926.779	8990
926.886	8960
926.993	8845
927.099	8853
927.206	8826
927.312	8815
927.419	8914
927.525	8826
927.631	8792
927.737	8712
927.843	8720
927.95	8632
928.056	8670
928.162	8697
928.267	8769
928.373	9294
928.479	8823
928.585	8518
928.69	8701
928.796	8758
928.901	8587
929.007	8499
929.112	8583
929.218	8602
929.323	8541
929.428	8530
929.533	8712
929.638	8533
929.743	8469
929.848	8587
929.953	8522
930.058	8362
930.163	8336
930.267	8309
930.372	8457
930.477	8259
930.581	8590
930.685	8423
930.79	8275
930.894	8279
930.998	8221
931.103	8400
931.207	8096
931.311	7997
931.415	7986
931.519	7753
931.623	7708
