Data from test_V78500241_460.txt Node
Date: Fri Mar 25 14:36:55 CST 2022
User: usil
Spectrometer: V785-0024
Trigger mode: 0
Integration Time (sec): 4.000000E-1
Scans to average: 1
Nonlinearity correction enabled: false
Boxcar width: 0
Storing dark spectrum: false
XAxis mode: Wavelengths
Number of Pixels in Spectrum: 1024
>>>>>Begin Spectral Data<<<<<
801.071	26484
801.214	26530
801.356	26298
801.499	26126
801.641	25970
801.783	25894
801.926	25936
802.068	25894
802.211	25830
802.353	25662
802.496	25609
802.638	25518
802.78	25487
802.923	25552
803.065	25495
803.208	25350
803.35	25487
803.492	25590
803.635	25533
803.777	25468
803.919	25499
804.061	25769
804.204	25571
804.346	25491
804.488	25369
804.63	25381
804.773	25274
804.915	25407
805.057	25601
805.199	25396
805.341	25582
805.483	25552
805.626	25510
805.768	25403
805.91	25483
806.052	25533
806.194	25358
806.336	25571
806.478	25544
806.62	25468
806.762	25510
806.904	25738
807.046	25974
807.188	25887
807.33	25814
807.472	25966
807.614	25772
807.756	25632
807.898	25628
808.04	25704
808.182	25647
808.324	25571
808.465	25674
808.607	25841
808.749	26062
808.891	26001
809.033	26206
809.174	26256
809.316	25909
809.458	25871
809.6	25860
809.741	25970
809.883	25913
810.025	26256
810.166	26339
810.308	26077
810.45	26164
810.591	26001
810.733	25959
810.875	25909
811.016	25761
811.158	25674
811.299	25944
811.441	25982
811.582	25928
811.724	25864
811.865	25845
812.007	25750
812.148	25753
812.29	25856
812.431	25940
812.573	26054
812.714	26115
812.855	26332
812.997	26385
813.138	26541
813.279	26328
813.421	26278
813.562	26286
813.703	26138
813.845	26016
813.986	25597
814.127	25514
814.268	25506
814.41	25373
814.551	25358
814.692	25487
814.833	25187
814.974	25293
815.115	25308
815.256	25126
815.397	25263
815.539	25206
815.68	25031
815.821	24901
815.962	25133
816.103	25023
816.244	24829
816.385	24745
816.526	24730
816.666	24696
816.807	24574
816.948	24578
817.089	24582
817.23	24536
817.371	24452
817.512	24509
817.653	24369
817.793	24350
817.934	24479
818.075	24395
818.216	24372
818.356	24384
818.497	24254
818.638	24129
818.778	24251
818.919	24197
819.06	24136
819.2	24350
819.341	24270
819.481	24338
819.622	24517
819.762	24673
819.903	24604
820.043	24467
820.184	24665
820.324	24456
820.465	24490
820.605	24509
820.746	24544
820.886	24384
821.026	24509
821.167	24334
821.307	24407
821.447	24426
821.588	24323
821.728	24095
821.868	23939
822.008	23786
822.149	23889
822.289	23802
822.429	23589
822.569	23490
822.709	23440
822.849	23193
822.99	23155
823.13	23189
823.27	23170
823.41	23037
823.55	22816
823.69	23102
823.83	23083
823.97	23025
824.11	22908
824.25	22767
824.389	22862
824.529	22797
824.669	22816
824.809	22934
824.949	22961
825.089	22854
825.228	22923
825.368	22569
825.508	22561
825.648	22542
825.787	22603
825.927	22618
826.067	22523
826.206	22561
826.346	22584
826.485	22645
826.625	22557
826.765	22660
826.904	22497
827.044	22447
827.183	22306
827.323	22261
827.462	22417
827.601	22181
827.741	22272
827.88	22341
828.02	22173
828.159	22295
828.298	22234
828.437	22440
828.577	22105
828.716	22375
828.855	22181
828.994	22006
829.134	22051
829.273	22048
829.412	21983
829.551	21930
829.69	21968
829.829	21873
829.968	22006
830.107	22078
830.246	21926
830.385	21934
830.524	21888
830.663	21705
830.802	21694
830.941	21564
831.08	21545
831.219	21724
831.357	21751
831.496	21774
831.635	21618
831.774	21515
831.913	21386
832.051	21340
832.19	21374
832.329	21405
832.467	21363
832.606	21169
832.744	21218
832.883	21176
833.022	21180
833.16	21268
833.299	21249
833.437	21313
833.576	21237
833.714	21268
833.852	21313
833.991	21237
834.129	21203
834.267	21310
834.406	21161
834.544	21230
834.682	21279
834.821	21184
834.959	21340
835.097	21108
835.235	21321
835.373	21161
835.511	21135
835.65	21116
835.788	21058
835.926	20937
836.064	20830
836.202	20979
836.34	21074
836.478	21207
836.615	20990
836.753	21199
836.891	21173
837.029	21176
837.167	21108
837.305	21100
837.443	21028
837.58	20986
837.718	21009
837.856	21009
837.993	20960
838.131	20956
838.269	20861
838.406	20937
838.544	20705
838.681	20583
838.819	20530
838.956	20438
839.094	20526
839.231	20587
839.369	20545
839.506	20727
839.643	20724
839.781	20320
839.918	20309
840.055	20358
840.193	20324
840.33	20275
840.467	20480
840.604	20320
840.742	20571
840.879	20157
841.016	20084
841.153	20149
841.29	20419
841.427	20267
841.564	20298
841.701	20195
841.838	20164
841.975	20138
842.112	20294
842.249	20157
842.385	19970
842.522	20214
842.659	20020
842.796	19986
842.933	20073
843.069	19993
843.206	19940
843.343	19963
843.479	20050
843.616	20069
843.752	19757
843.889	19811
844.025	19947
844.162	19833
844.298	19902
844.435	19712
844.571	19757
844.708	19750
844.844	19811
844.98	19894
845.117	19875
845.253	19712
845.389	19624
845.525	19700
845.661	19689
845.798	19514
845.934	19563
846.07	19464
846.206	19647
846.342	19761
846.478	19601
846.614	19194
846.75	19274
846.886	19206
847.022	19419
847.158	19152
847.294	19282
847.429	19346
847.565	19160
847.701	19430
847.837	18913
847.972	18894
848.108	19023
848.244	19034
848.379	18939
848.515	18863
848.65	18791
848.786	18825
848.921	18856
849.057	18935
849.192	18878
849.328	18798
849.463	18867
849.598	18764
849.734	18722
849.869	18700
850.004	18612
850.14	18597
850.275	18570
850.41	18566
850.545	18509
850.68	18528
850.815	18608
850.95	18479
851.085	18734
851.22	18570
851.355	18544
851.49	18521
851.625	18532
851.76	18433
851.895	18376
852.03	18483
852.165	18456
852.299	18521
852.434	18608
852.569	18551
852.703	18665
852.838	18582
852.973	18669
853.107	18665
853.242	18479
853.376	18372
853.511	18304
853.645	18251
853.78	18566
853.914	18384
854.048	18315
854.183	18403
854.317	18399
854.451	18658
854.585	18273
854.72	18350
854.854	18471
854.988	18357
855.122	18308
855.256	18152
855.39	18270
855.524	18395
855.658	18334
855.792	18281
855.926	18441
856.06	18319
856.194	18372
856.327	18292
856.461	18422
856.595	18327
856.729	18308
856.862	18437
856.996	18342
857.13	18327
857.263	18422
857.397	18441
857.53	18311
857.664	18361
857.797	18384
857.931	18407
858.064	18437
858.197	18372
858.331	18308
858.464	18186
858.597	18273
858.731	18205
858.864	18266
858.997	18224
859.13	18308
859.263	18296
859.396	18437
859.529	18315
859.662	18239
859.795	18254
859.928	18220
860.061	18513
860.194	18353
860.327	18277
860.46	18247
860.592	18414
860.725	18452
860.858	18338
860.99	18323
861.123	18182
861.256	18194
861.388	18353
861.521	19012
861.653	18220
861.786	18201
861.918	18159
862.05	18266
862.183	18270
862.315	18433
862.447	18350
862.58	18292
862.712	18026
862.844	18072
862.976	18114
863.108	18087
863.24	18376
863.372	17882
863.504	17950
863.636	18057
863.768	18041
863.9	17973
864.032	17999
864.164	17969
864.296	17920
864.428	18049
864.559	18148
864.691	17996
864.823	18163
864.954	18003
865.086	18007
865.217	17904
865.349	17790
865.48	17961
865.612	17904
865.743	18045
865.875	18083
866.006	17893
866.137	17931
866.269	17950
866.4	17977
866.531	17847
866.662	17866
866.793	17786
866.924	17756
867.055	17939
867.186	17748
867.317	17805
867.448	17889
867.579	17805
867.71	17729
867.841	17802
867.972	17802
868.103	17828
868.233	17942
868.364	17874
868.495	17863
868.625	18095
868.756	18197
868.886	18022
869.017	18201
869.147	18243
869.278	18148
869.408	18148
869.539	18140
869.669	18159
869.799	18159
869.929	18285
870.06	18254
870.19	18502
870.32	18414
870.45	18414
870.58	18422
870.71	18532
870.84	18620
870.97	18494
871.1	18498
871.23	18582
871.36	18726
871.489	18601
871.619	18669
871.749	18711
871.879	18741
872.008	18772
872.138	18703
872.267	18715
872.397	18513
872.526	18555
872.656	18540
872.785	18494
872.915	18772
873.044	18856
873.173	18703
873.303	18768
873.432	18768
873.561	18848
873.69	18833
873.819	18749
873.948	18776
874.077	18783
874.206	18840
874.335	18760
874.464	18863
874.593	18947
874.722	18954
874.851	19004
874.979	19000
875.108	19004
875.237	19023
875.365	18989
875.494	18954
875.623	19072
875.751	18985
875.88	19046
876.008	19278
876.136	19312
876.265	19438
876.393	19601
876.521	19540
876.65	19506
876.778	19464
876.906	19487
877.034	19388
877.162	19419
877.29	19373
877.418	19407
877.546	19491
877.674	19441
877.802	19354
877.93	19320
878.058	19392
878.185	19373
878.313	19430
878.441	19460
878.568	19225
878.696	19285
878.824	19449
878.951	19460
879.079	19575
879.206	19651
879.333	19674
879.461	19468
879.588	19468
879.715	19655
879.842	19788
879.97	19521
880.097	19362
880.224	19373
880.351	19304
880.478	19244
880.605	19251
880.732	19285
880.859	19457
880.986	19327
881.112	19396
881.239	19126
881.366	19031
881.493	18954
881.619	18913
881.746	18894
881.872	18856
881.999	18817
882.125	18787
882.252	19000
882.378	18916
882.505	18966
882.631	18802
882.757	18627
882.883	18665
883.01	18711
883.136	18623
883.262	18540
883.388	18563
883.514	18711
883.64	18604
883.766	18570
883.892	18361
884.018	18426
884.143	18570
884.269	18730
884.395	18471
884.52	18220
884.646	18342
884.772	18178
884.897	18251
885.023	18372
885.148	18433
885.274	18429
885.399	18464
885.524	18209
885.65	18388
885.775	18300
885.9	18292
886.025	18277
886.15	18407
886.275	18262
886.4	18178
886.525	18285
886.65	18235
886.775	18304
886.9	18391
887.025	18547
887.149	18281
887.274	18129
887.399	18129
887.523	18041
887.648	18060
887.773	17996
887.897	18216
888.021	18102
888.146	18076
888.27	18216
888.395	18125
888.519	18079
888.643	18038
888.767	18072
888.891	17901
889.015	17893
889.139	17904
889.263	17832
889.387	18003
889.511	18011
889.635	18076
889.759	17935
889.883	17912
890.006	17927
890.13	17908
890.254	17748
890.377	17897
890.501	17558
890.624	17653
890.748	17752
890.871	17497
890.995	17505
891.118	17532
891.241	17497
891.364	17493
891.488	17665
891.611	17615
891.734	17581
891.857	17608
891.98	17566
892.103	17493
892.226	17551
892.349	17509
892.471	17337
892.594	17471
892.717	17463
892.839	17512
892.962	17452
893.085	17509
893.207	17459
893.33	17349
893.452	17299
893.575	17471
893.697	17414
893.819	17596
893.941	17600
894.064	17589
894.186	17356
894.308	17364
894.43	17474
894.552	17684
894.674	17558
894.796	17402
894.918	17444
895.04	17486
895.161	17551
895.283	17501
895.405	17410
895.526	17524
895.648	17482
895.769	17520
895.891	17627
896.012	17653
896.134	17604
896.255	17585
896.376	17528
896.498	17573
896.619	17520
896.74	17573
896.861	17653
896.982	17901
897.103	18007
897.224	17912
897.345	17813
897.466	17676
897.587	17722
897.708	17859
897.828	17840
897.949	17661
898.07	17596
898.19	17718
898.311	17916
898.431	17737
898.552	17798
898.672	17870
898.792	17824
898.913	17760
899.033	17619
899.153	17630
899.273	17433
899.393	17524
899.513	17600
899.633	17543
899.753	17585
899.873	17448
899.993	17577
900.113	17471
900.232	17543
900.352	17512
900.472	17433
900.591	17337
900.711	17337
900.83	17433
900.95	17520
901.069	17455
901.189	17444
901.308	17151
901.427	17006
901.546	16961
901.665	16984
901.784	17060
901.904	16862
902.023	16729
902.141	16569
902.26	16599
902.379	16630
902.498	16527
902.617	16523
902.735	16649
902.854	16542
902.973	16485
903.091	16272
903.21	16234
903.328	16211
903.446	16287
903.565	15991
903.683	15956
903.801	16013
903.919	15979
904.038	15994
904.156	15930
904.274	15816
904.392	15781
904.51	15819
904.627	15804
904.745	15789
904.863	15892
904.981	15545
905.098	15587
905.216	15481
905.334	15534
905.451	15599
905.569	15488
905.686	15519
905.803	15553
905.921	15325
906.038	15439
906.155	15287
906.272	15188
906.389	15275
906.506	15013
906.623	15039
906.74	15005
906.857	15043
906.974	14925
907.091	15085
907.208	15184
907.324	15032
907.441	14887
907.557	14842
907.674	14773
907.79	14769
907.907	14727
908.023	14773
908.139	14746
908.256	14610
908.372	14621
908.488	14575
908.604	14484
908.72	14400
908.836	14549
908.952	14423
909.068	14442
909.184	14583
909.3	14473
909.415	14541
909.531	14431
909.647	14180
909.762	14115
909.878	14180
909.993	14237
910.108	14126
910.224	14107
910.339	14153
910.454	14115
910.57	14050
910.685	14031
910.8	14157
910.915	14168
911.03	13989
911.145	13864
911.259	13826
911.374	13780
911.489	13761
911.604	13708
911.718	13704
911.833	13616
911.947	13457
912.062	13365
912.176	13483
912.291	13514
912.405	13521
912.519	13677
912.633	13795
912.748	13559
912.862	13636
912.976	13441
913.09	13278
913.204	13381
913.318	13403
913.431	13449
913.545	13487
913.659	13620
913.772	13350
913.886	13335
914	13228
914.113	13354
914.226	13358
914.34	13228
914.453	13232
914.566	13312
914.68	13122
914.793	13065
914.906	12958
915.019	12924
915.132	12890
915.245	12909
915.358	12905
915.47	12989
915.583	12947
915.696	13061
915.809	13046
915.921	13099
916.034	12935
916.146	12837
916.259	12814
916.371	12882
916.483	12909
916.595	12692
916.708	12741
916.82	12829
916.932	12757
917.044	12779
917.156	12715
917.268	12662
917.38	12662
917.491	12635
917.603	12639
917.715	12711
917.826	12684
917.938	12566
918.049	12445
918.161	12692
918.272	12791
918.384	12757
918.495	12623
918.606	12475
918.717	12357
918.828	12429
918.939	12448
919.05	12285
919.161	12357
919.272	12273
919.383	12262
919.494	12486
919.604	12601
919.715	12410
919.826	12273
919.936	12429
920.047	12403
920.157	12456
920.267	12536
920.378	12433
920.488	12399
920.598	12601
920.708	12783
920.818	12570
920.928	12544
921.038	12787
921.148	12734
921.258	12418
921.368	12342
921.477	12190
921.587	12194
921.697	12049
921.806	12205
921.916	12121
922.025	11912
922.134	11904
922.244	11843
922.353	11908
922.462	11688
922.571	11630
922.68	11532
922.789	11547
922.898	11532
923.007	11539
923.116	11482
923.224	11490
923.333	11467
923.442	11337
923.55	11372
923.659	11387
923.767	11440
923.876	11322
923.984	11433
924.092	11212
924.201	11349
924.309	11288
924.417	11296
924.525	11280
924.633	11223
924.741	12171
924.849	10995
924.956	11265
925.064	11048
925.172	10896
925.279	11067
925.387	11121
925.494	11109
925.602	11181
925.709	11079
925.816	10965
925.924	11033
926.031	11109
926.138	11033
926.245	11132
926.352	10873
926.459	11136
926.566	11143
926.673	10995
926.779	10919
926.886	10809
926.993	10717
927.099	10736
927.206	10603
927.312	10656
927.419	10774
927.525	10675
927.631	10672
927.737	10577
927.843	10561
927.95	10508
928.056	10577
928.162	10584
928.267	10592
928.373	11132
928.479	10618
928.585	10390
928.69	10554
928.796	10580
928.901	10371
929.007	10219
929.112	10382
929.218	10352
929.323	10360
929.428	10253
929.533	10500
929.638	10242
929.743	10234
929.848	10325
929.953	10295
930.058	10253
930.163	10055
930.267	10055
930.372	10204
930.477	9956
930.581	10196
930.685	10116
930.79	9926
930.894	10013
930.998	9915
931.103	10017
931.207	9717
931.311	9568
931.415	9606
931.519	9367
931.623	9351
