Data from test_V78500241_110.txt Node
Date: Fri Mar 25 14:34:29 CST 2022
User: usil
Spectrometer: V785-0024
Trigger mode: 0
Integration Time (sec): 4.000000E-1
Scans to average: 1
Nonlinearity correction enabled: false
Boxcar width: 0
Storing dark spectrum: false
XAxis mode: Wavelengths
Number of Pixels in Spectrum: 1024
>>>>>Begin Spectral Data<<<<<
801.071	29866
801.214	29627
801.356	29554
801.499	29417
801.641	29349
801.783	29254
801.926	29322
802.068	29170
802.211	29223
802.353	29029
802.496	29022
802.638	28999
802.78	28854
802.923	28923
803.065	28934
803.208	28854
803.35	28995
803.492	29048
803.635	29273
803.777	29117
803.919	29208
804.061	29531
804.204	29212
804.346	29204
804.488	29136
804.63	29109
804.773	29109
804.915	29193
805.057	29455
805.199	29292
805.341	29535
805.483	29573
805.626	29387
805.768	29638
805.91	29577
806.052	29843
806.194	29653
806.336	30030
806.478	29817
806.62	29984
806.762	30213
806.904	30540
807.046	30760
807.188	30916
807.33	31179
807.472	31552
807.614	31628
807.756	32218
807.898	32545
808.04	33249
808.182	34341
808.324	35570
808.465	37019
808.607	38522
808.749	39945
808.891	40672
809.033	40801
809.174	39739
809.316	38332
809.458	36901
809.6	35398
809.741	34120
809.883	33367
810.025	32480
810.166	31932
810.308	31666
810.45	31289
810.591	30973
810.733	30753
810.875	30403
811.016	30319
811.158	30186
811.299	30281
811.441	30220
811.582	30262
811.724	30011
811.865	29999
812.007	29946
812.148	29832
812.29	30007
812.431	29893
812.573	30057
812.714	30098
812.855	30239
812.997	30273
813.138	30391
813.279	30296
813.421	30148
813.562	29992
813.703	29988
813.845	29802
813.986	29490
814.127	29235
814.268	29277
814.41	29102
814.551	29200
814.692	29140
814.833	28942
814.974	28968
815.115	28991
815.256	28953
815.397	28888
815.539	28839
815.68	28698
815.821	28774
815.962	28755
816.103	28679
816.244	28538
816.385	28535
816.526	28493
816.666	28238
816.807	28112
816.948	28173
817.089	28169
817.23	28196
817.371	28131
817.512	28086
817.653	27994
817.793	28002
817.934	28059
818.075	27953
818.216	27983
818.356	28002
818.497	27895
818.638	27732
818.778	27705
818.919	27728
819.06	27690
819.2	27892
819.341	27937
819.481	27903
819.622	27987
819.762	28268
819.903	28200
820.043	28051
820.184	28101
820.324	27972
820.465	28021
820.605	27926
820.746	27930
820.886	27884
821.026	27884
821.167	27766
821.307	27968
821.447	27827
821.588	27762
821.728	27458
821.868	27252
822.008	27184
822.149	27173
822.289	27161
822.429	27020
822.569	26807
822.709	26807
822.849	26583
822.99	26651
823.13	26621
823.27	26602
823.41	26537
823.55	26263
823.69	26453
823.83	26568
823.97	26404
824.11	26202
824.25	26111
824.389	26176
824.529	26339
824.669	26256
824.809	26294
824.949	26275
825.089	26294
825.228	26256
825.368	25970
825.508	25913
825.648	26043
825.787	26020
825.927	26077
826.067	25909
826.206	25970
826.346	26195
826.485	26035
826.625	25955
826.765	26161
826.904	26214
827.044	25708
827.183	25704
827.323	25597
827.462	25639
827.601	25769
827.741	25620
827.88	25620
828.02	25578
828.159	25552
828.298	25556
828.437	25708
828.577	25533
828.716	25799
828.855	25548
828.994	25514
829.134	25392
829.273	25384
829.412	25278
829.551	25346
829.69	25240
829.829	25240
829.968	25346
830.107	25320
830.246	25335
830.385	25255
830.524	25168
830.663	25118
830.802	24894
830.941	24779
831.08	24913
831.219	25038
831.357	25004
831.496	25023
831.635	24859
831.774	24730
831.913	24817
832.051	24589
832.19	24585
832.329	24837
832.467	24593
832.606	24517
832.744	24566
832.883	24696
833.022	24585
833.16	24779
833.299	24692
833.437	24829
833.576	24848
833.714	24958
833.852	25000
833.991	25259
834.129	25171
834.267	25171
834.406	25099
834.544	25053
834.682	24905
834.821	24992
834.959	24958
835.097	24791
835.235	24776
835.373	24665
835.511	24639
835.65	24479
835.788	24540
835.926	24300
836.064	24068
836.202	24220
836.34	24380
836.478	24304
836.615	24235
836.753	24251
836.891	24330
837.029	24330
837.167	24296
837.305	24209
837.443	24068
837.58	24133
837.718	24102
837.856	24087
837.993	24026
838.131	24072
838.269	23965
838.406	23939
838.544	23920
838.681	23661
838.819	23828
838.956	23570
839.094	23623
839.231	23604
839.369	23676
839.506	23828
839.643	23832
839.781	23436
839.918	23372
840.055	23440
840.193	23345
840.33	23425
840.467	23429
840.604	23402
840.742	23718
840.879	23185
841.016	23349
841.153	23345
841.29	23554
841.427	23395
841.564	23303
841.701	23376
841.838	23417
841.975	23193
842.112	23223
842.249	23124
842.385	23117
842.522	23372
842.659	23254
842.796	23113
842.933	23178
843.069	23151
843.206	23178
843.343	23250
843.479	23181
843.616	23162
843.752	23075
843.889	23064
844.025	23166
844.162	23159
844.298	23265
844.435	23227
844.571	23155
844.708	23414
844.844	23680
844.98	23783
845.117	24026
845.253	24391
845.389	25187
845.525	26823
845.661	29501
845.798	32659
845.934	35254
846.07	36235
846.206	35676
846.342	33686
846.478	30391
846.614	27462
846.75	25582
846.886	24433
847.022	23783
847.158	23296
847.294	23075
847.429	22869
847.565	22850
847.701	22877
847.837	22246
847.972	22295
848.108	22360
848.244	22242
848.379	22074
848.515	22124
848.65	21983
848.786	21895
848.921	21918
849.057	22101
849.192	21987
849.328	22017
849.463	21892
849.598	21857
849.734	21751
849.869	21842
850.004	21534
850.14	21724
850.275	21694
850.41	21549
850.545	21713
850.68	21690
850.815	21622
850.95	21580
851.085	21755
851.22	21694
851.355	21587
851.49	21511
851.625	21591
851.76	21545
851.895	21492
852.03	21534
852.165	21473
852.299	21538
852.434	21717
852.569	21675
852.703	21633
852.838	21743
852.973	21709
853.107	21808
853.242	21443
853.376	21523
853.511	21397
853.645	21561
853.78	21519
853.914	21591
854.048	21545
854.183	21526
854.317	21576
854.451	21724
854.585	21485
854.72	21549
854.854	21614
854.988	21466
855.122	21496
855.256	21306
855.39	21405
855.524	21568
855.658	21481
855.792	21507
855.926	21466
856.06	21466
856.194	21507
856.327	21374
856.461	21287
856.595	21294
856.729	21230
856.862	21382
856.996	21431
857.13	21439
857.263	21336
857.397	21405
857.53	21264
857.664	21294
857.797	21313
857.931	21443
858.064	21408
858.197	21302
858.331	21249
858.464	21249
858.597	21192
858.731	21264
858.864	21237
858.997	21169
859.13	21321
859.263	21302
859.396	21310
859.529	21252
859.662	21173
859.795	21252
859.928	21332
860.061	21386
860.194	21386
860.327	21222
860.46	21222
860.592	21298
860.725	21268
860.858	21378
860.99	21256
861.123	21146
861.256	21150
861.388	21203
861.521	21876
861.653	21119
861.786	21001
861.918	21096
862.05	21226
862.183	21222
862.315	21184
862.447	21355
862.58	21237
862.712	21093
862.844	20937
862.976	21028
863.108	21081
863.24	21287
863.372	20872
863.504	20876
863.636	21051
863.768	20921
863.9	20918
864.032	20834
864.164	20800
864.296	21009
864.428	20861
864.559	20781
864.691	20876
864.823	20941
864.954	20880
865.086	20914
865.217	20826
865.349	20727
865.48	20853
865.612	20842
865.743	20899
865.875	20724
866.006	20693
866.137	20727
866.269	20724
866.4	20750
866.531	20754
866.662	20667
866.793	20651
866.924	20674
867.055	20632
867.186	20621
867.317	20587
867.448	20640
867.579	20609
867.71	20556
867.841	20514
867.972	20701
868.103	20644
868.233	20720
868.364	20651
868.495	20739
868.625	20849
868.756	21108
868.886	20910
869.017	20834
869.147	21043
869.278	21001
869.408	20921
869.539	20895
869.669	20998
869.799	20963
869.929	20948
870.06	21085
870.19	21199
870.32	21207
870.45	21169
870.58	21252
870.71	21469
870.84	21519
870.97	21317
871.1	21386
871.23	21618
871.36	21504
871.489	21397
871.619	21507
871.749	21526
871.879	21553
872.008	21720
872.138	21694
872.267	21633
872.397	21458
872.526	21435
872.656	21428
872.785	21538
872.915	21652
873.044	21759
873.173	21709
873.303	21842
873.432	21778
873.561	21808
873.69	21682
873.819	21778
873.948	21732
874.077	21808
874.206	21732
874.335	21831
874.464	21915
874.593	21998
874.722	22097
874.851	22135
874.979	22135
875.108	22196
875.237	22109
875.365	22105
875.494	22154
875.623	22272
875.751	22158
875.88	22310
876.008	22398
876.136	22459
876.265	22656
876.393	22782
876.521	22801
876.65	22774
876.778	22759
876.906	22801
877.034	22721
877.162	22771
877.29	22816
877.418	22843
877.546	22984
877.674	23041
877.802	23102
877.93	22980
878.058	23216
878.185	23216
878.313	23303
878.441	23554
878.568	23684
878.696	23958
878.824	24380
878.951	24954
879.079	25818
879.206	26670
879.333	27682
879.461	28497
879.588	29083
879.715	29064
879.842	28744
879.97	27747
880.097	26720
880.224	25757
880.351	25244
880.478	24913
880.605	24509
880.732	24353
880.859	24414
880.986	24076
881.112	24053
881.239	23897
881.366	23920
881.493	23638
881.619	23661
881.746	23771
881.872	23642
881.999	23619
882.125	23707
882.252	23608
882.378	23741
882.505	23729
882.631	23634
882.757	23665
882.883	23691
883.01	23657
883.136	23391
883.262	23311
883.388	23273
883.514	23531
883.64	23372
883.766	23356
883.892	23379
884.018	23318
884.143	23448
884.269	23505
884.395	23242
884.52	23174
884.646	23269
884.772	23132
884.897	23048
885.023	23117
885.148	23143
885.274	23216
885.399	22965
885.524	23048
885.65	22938
885.775	22843
885.9	22850
886.025	22725
886.15	22744
886.275	22554
886.4	22424
886.525	22451
886.65	22325
886.775	22390
886.9	22474
887.025	22466
887.149	22128
887.274	21991
887.399	21922
887.523	21831
887.648	21778
887.773	21606
887.897	21838
888.021	21789
888.146	21644
888.27	21583
888.395	21682
888.519	21622
888.643	21641
888.767	21694
888.891	21424
889.015	21313
889.139	21355
889.263	21116
889.387	21389
889.511	21549
889.635	21374
889.759	21161
889.883	21192
890.006	21161
890.13	21222
890.254	21062
890.377	21146
890.501	20849
890.624	20819
890.748	20910
890.871	20743
890.995	20674
891.118	20598
891.241	20651
891.364	20678
891.488	20689
891.611	20621
891.734	20609
891.857	20697
891.98	20625
892.103	20674
892.226	20522
892.349	20465
892.471	20358
892.594	20355
892.717	20396
892.839	20377
892.962	20400
893.085	20552
893.207	20370
893.33	20263
893.452	20286
893.575	20271
893.697	20286
893.819	20530
893.941	20431
894.064	20317
894.186	20161
894.308	20252
894.43	20290
894.552	20328
894.674	20218
894.796	20183
894.918	20180
895.04	20145
895.161	20199
895.283	20149
895.405	20081
895.526	20100
895.648	20073
895.769	20077
895.891	20180
896.012	20134
896.134	20138
896.255	20111
896.376	20111
896.498	20065
896.619	20081
896.74	20065
896.861	20244
896.982	20385
897.103	20473
897.224	20404
897.345	20172
897.466	20263
897.587	20240
897.708	20358
897.828	20218
897.949	20214
898.07	20145
898.19	20221
898.311	20233
898.431	20221
898.552	20237
898.672	20130
898.792	20256
898.913	20149
899.033	20035
899.153	20024
899.273	19830
899.393	19879
899.513	19978
899.633	19906
899.753	19963
899.873	19803
899.993	19894
900.113	19811
900.232	19890
900.352	19799
900.472	19761
900.591	19727
900.711	19708
900.83	19689
900.95	19830
901.069	19795
901.189	19677
901.308	19384
901.427	19274
901.546	19236
901.665	19244
901.784	19289
901.904	19061
902.023	18958
902.141	18890
902.26	18795
902.379	18890
902.498	18753
902.617	18734
902.735	18791
902.854	18665
902.973	18696
903.091	18422
903.21	18350
903.328	18315
903.446	18304
903.565	18144
903.683	18289
903.801	18057
903.919	18091
904.038	18148
904.156	17786
904.274	18015
904.392	17874
904.51	17931
904.627	17855
904.745	17954
904.863	18019
904.981	17657
905.098	17577
905.216	17524
905.334	17482
905.451	17539
905.569	17490
905.686	17520
905.803	17520
905.921	17288
906.038	17330
906.155	17356
906.272	17322
906.389	17265
906.506	16999
906.623	17162
906.74	16991
906.857	16965
906.974	17029
907.091	17151
907.208	17162
907.324	17132
907.441	16984
907.557	16767
907.674	16660
907.79	16744
907.907	16733
908.023	16668
908.139	16717
908.256	16744
908.372	16626
908.488	16649
908.604	16523
908.72	16379
908.836	16459
908.952	16375
909.068	16485
909.184	16626
909.3	16417
909.415	16558
909.531	16402
909.647	16226
909.762	16211
909.878	16128
909.993	16154
910.108	16112
910.224	16093
910.339	16090
910.454	16010
910.57	15968
910.685	15766
910.8	16124
910.915	16059
911.03	16059
911.145	15739
911.259	15755
911.374	15812
911.489	15751
911.604	15606
911.718	15538
911.833	15458
911.947	15393
912.062	15298
912.176	15507
912.291	15462
912.405	15526
912.519	15591
912.633	15671
912.748	15473
912.862	15473
912.976	15252
913.09	15211
913.204	15207
913.318	15222
913.431	15408
913.545	15435
913.659	15374
913.772	15264
913.886	15116
914	15146
914.113	15233
914.226	15226
914.34	15108
914.453	14929
914.566	15211
914.68	14990
914.793	14937
914.906	14769
915.019	14788
915.132	14727
915.245	14773
915.358	14845
915.47	14815
915.583	14773
915.696	14781
915.809	14891
915.921	14899
916.034	14651
916.146	14598
916.259	14621
916.371	14720
916.483	14693
916.595	14667
916.708	14602
916.82	14750
916.932	14598
917.044	14480
917.156	14602
917.268	14415
917.38	14400
917.491	14476
917.603	14476
917.715	14492
917.826	14526
917.938	14233
918.049	14366
918.161	14275
918.272	14461
918.384	14412
918.495	14343
918.606	14164
918.717	14103
918.828	14256
918.939	14267
919.05	14069
919.161	14115
919.272	13967
919.383	14012
919.494	14149
919.604	14358
919.715	14115
919.826	14012
919.936	14092
920.047	14130
920.157	14111
920.267	14142
920.378	14046
920.488	14039
920.598	14313
920.708	14313
920.818	14214
920.928	14252
921.038	14339
921.148	14263
921.258	14062
921.368	13932
921.477	13841
921.587	13715
921.697	13704
921.806	13822
921.916	13700
922.025	13582
922.134	13411
922.244	13453
922.353	13514
922.462	13278
922.571	13266
922.68	13103
922.789	13133
922.898	13050
923.007	13088
923.116	13088
923.224	13012
923.333	12985
923.442	12966
923.55	12795
923.659	12894
923.767	12954
923.876	12859
923.984	12894
924.092	12764
924.201	12814
924.309	12875
924.417	12837
924.525	12772
924.633	12665
924.741	13605
924.849	12597
924.956	12669
925.064	12582
925.172	12460
925.279	12513
925.387	12555
925.494	12547
925.602	12654
925.709	12616
925.816	12399
925.924	12429
926.031	12574
926.138	12433
926.245	12536
926.352	12391
926.459	12445
926.566	12521
926.673	12308
926.779	12361
926.886	12235
926.993	12171
927.099	12125
927.206	11988
927.312	12129
927.419	12140
927.525	12057
927.631	12022
927.737	11950
927.843	11973
927.95	11843
928.056	11923
928.162	11893
928.267	11935
928.373	12395
928.479	11996
928.585	11790
928.69	11859
928.796	11908
928.901	11741
929.007	11646
929.112	11813
929.218	11665
929.323	11535
929.428	11668
929.533	11684
929.638	11528
929.743	11554
929.848	11672
929.953	11611
930.058	11455
930.163	11296
930.267	11280
930.372	11493
930.477	11250
930.581	11509
930.685	11425
930.79	11181
930.894	11220
930.998	11166
931.103	11162
931.207	10968
931.311	10797
931.415	10771
931.519	10580
931.623	10569
