Data from test_V78500241_2763.txt Node
Date: Fri Mar 25 14:52:57 CST 2022
User: usil
Spectrometer: V785-0024
Trigger mode: 0
Integration Time (sec): 4.000000E-1
Scans to average: 1
Nonlinearity correction enabled: false
Boxcar width: 0
Storing dark spectrum: false
XAxis mode: Wavelengths
Number of Pixels in Spectrum: 1024
>>>>>Begin Spectral Data<<<<<
801.071	22002
801.214	21998
801.356	21679
801.499	21587
801.641	21485
801.783	21336
801.926	21298
802.068	21260
802.211	21211
802.353	21169
802.496	21013
802.638	20967
802.78	20906
802.923	20800
803.065	20648
803.208	20663
803.35	20693
803.492	20849
803.635	20811
803.777	20750
803.919	20838
804.061	21123
804.204	20697
804.346	20621
804.488	20526
804.63	20720
804.773	20454
804.915	20560
805.057	20743
805.199	20678
805.341	20640
805.483	20655
805.626	20682
805.768	20583
805.91	20598
806.052	20655
806.194	20564
806.336	20788
806.478	20659
806.62	20488
806.762	20697
806.904	20785
807.046	20998
807.188	20960
807.33	20929
807.472	20956
807.614	20952
807.756	20876
807.898	20674
808.04	20788
808.182	20769
808.324	20621
808.465	20701
808.607	20967
808.749	20960
808.891	21005
809.033	21211
809.174	20960
809.316	20853
809.458	20937
809.6	20899
809.741	21039
809.883	20990
810.025	21135
810.166	21230
810.308	21123
810.45	21058
810.591	21024
810.733	20887
810.875	20811
811.016	20663
811.158	20560
811.299	20807
811.441	20952
811.582	20895
811.724	20617
811.865	20773
812.007	20724
812.148	20621
812.29	20781
812.431	20910
812.573	21009
812.714	21055
812.855	21230
812.997	21344
813.138	21443
813.279	21405
813.421	21211
813.562	21211
813.703	21001
813.845	20979
813.986	20678
814.127	20431
814.268	20237
814.41	20355
814.551	20313
814.692	20301
814.833	20157
814.974	20210
815.115	20282
815.256	20134
815.397	20145
815.539	20092
815.68	20107
815.821	20039
815.962	20016
816.103	19925
816.244	19883
816.385	19715
816.526	19738
816.666	19540
816.807	19358
816.948	19556
817.089	19460
817.23	19449
817.371	19502
817.512	19400
817.653	19384
817.793	19358
817.934	19396
818.075	19483
818.216	19415
818.356	19415
818.497	19198
818.638	19053
818.778	19076
818.919	19091
819.06	19065
819.2	19270
819.341	19183
819.481	19282
819.622	19445
819.762	19613
819.903	19510
820.043	19575
820.184	19476
820.324	19339
820.465	19426
820.605	19422
820.746	19377
820.886	19194
821.026	19419
821.167	19320
821.307	19415
821.447	19335
821.588	19221
821.728	19129
821.868	18989
822.008	18856
822.149	18772
822.289	18795
822.429	18551
822.569	18521
822.709	18460
822.849	18296
822.99	18315
823.13	18323
823.27	18167
823.41	18106
823.55	18038
823.69	18057
823.83	18140
823.97	18133
824.11	17874
824.25	17923
824.389	17847
824.529	17908
824.669	17923
824.809	17992
824.949	18003
825.089	17920
825.228	17984
825.368	17741
825.508	17771
825.648	17714
825.787	17786
825.927	17786
826.067	17558
826.206	17570
826.346	17714
826.485	17729
826.625	17604
826.765	17805
826.904	17764
827.044	17379
827.183	17425
827.323	17372
827.462	17410
827.601	17223
827.741	17280
827.88	17436
828.02	17284
828.159	17303
828.298	17406
828.437	17410
828.577	17395
828.716	17474
828.855	17322
828.994	17220
829.134	17132
829.273	17174
829.412	17086
829.551	17037
829.69	17052
829.829	17124
829.968	17307
830.107	17181
830.246	17064
830.385	17045
830.524	16934
830.663	16942
830.802	16965
830.941	16744
831.08	16687
831.219	16767
831.357	16866
831.496	16873
831.635	16824
831.774	16618
831.913	16607
832.051	16485
832.19	16535
832.329	16421
832.467	16394
832.606	16436
832.744	16424
832.883	16352
833.022	16238
833.16	16443
833.299	16417
833.437	16341
833.576	16512
833.714	16527
833.852	16489
833.991	16542
834.129	16516
834.267	16481
834.406	16436
834.544	16497
834.682	16436
834.821	16421
834.959	16740
835.097	16443
835.235	16615
835.373	16508
835.511	16428
835.65	16447
835.788	16489
835.926	16337
836.064	16284
836.202	16230
836.34	16348
836.478	16523
836.615	16314
836.753	16386
836.891	16519
837.029	16443
837.167	16371
837.305	16322
837.443	16284
837.58	16226
837.718	16303
837.856	16230
837.993	16086
838.131	16177
838.269	16166
838.406	16246
838.544	16128
838.681	16010
838.819	15953
838.956	15816
839.094	15857
839.231	15823
839.369	15922
839.506	16291
839.643	16074
839.781	15835
839.918	15728
840.055	15781
840.193	15842
840.33	15747
840.467	15762
840.604	15835
840.742	16097
840.879	15686
841.016	15724
841.153	15720
841.29	15915
841.427	15800
841.564	15903
841.701	15911
841.838	15751
841.975	15705
842.112	15831
842.249	15614
842.385	15538
842.522	15846
842.659	15648
842.796	15580
842.933	15686
843.069	15572
843.206	15545
843.343	15633
843.479	15595
843.616	15701
843.752	15386
843.889	15374
844.025	15644
844.162	15450
844.298	15454
844.435	15397
844.571	15321
844.708	15382
844.844	15580
844.98	15618
845.117	15393
845.253	15332
845.389	15279
845.525	15325
845.661	15325
845.798	15218
845.934	15310
846.07	15127
846.206	15279
846.342	15340
846.478	15245
846.614	15013
846.75	15039
846.886	14914
847.022	15195
847.158	14956
847.294	14914
847.429	15104
847.565	14986
847.701	15214
847.837	14659
847.972	14670
848.108	14758
848.244	14834
848.379	14655
848.515	14632
848.65	14541
848.786	14488
848.921	14530
849.057	14610
849.192	14640
849.328	14552
849.463	14636
849.598	14518
849.734	14473
849.869	14377
850.004	14374
850.14	14324
850.275	14374
850.41	14210
850.545	14317
850.68	14275
850.815	14355
850.95	14244
851.085	14537
851.22	14480
851.355	14366
851.49	14290
851.625	14332
851.76	14305
851.895	14263
852.03	14123
852.165	14366
852.299	14370
852.434	14332
852.569	14381
852.703	14328
852.838	14442
852.973	14454
853.107	14469
853.242	14294
853.376	14290
853.511	14065
853.645	14195
853.78	14309
853.914	14256
854.048	14172
854.183	14092
854.317	14237
854.451	14374
854.585	14202
854.72	14149
854.854	14355
854.988	14161
855.122	14115
855.256	14012
855.39	14123
855.524	14278
855.658	14164
855.792	14214
855.926	14168
856.06	14180
856.194	14290
856.327	14077
856.461	14240
856.595	14191
856.729	14134
856.862	14313
856.996	14290
857.13	14313
857.263	14339
857.397	14290
857.53	14221
857.664	14259
857.797	14294
857.931	14221
858.064	14248
858.197	14259
858.331	14191
858.464	14084
858.597	14092
858.731	14172
858.864	14248
858.997	14149
859.13	14199
859.263	14218
859.396	14328
859.529	14183
859.662	14240
859.795	14107
859.928	14153
860.061	14351
860.194	14404
860.327	14366
860.46	14218
860.592	14248
860.725	14381
860.858	14374
860.99	14263
861.123	14065
861.256	14218
861.388	14244
861.521	14933
861.653	14119
861.786	14046
861.918	14058
862.05	14054
862.183	14164
862.315	14180
862.447	14218
862.58	14199
862.712	13913
862.844	13875
862.976	14046
863.108	14024
863.24	14518
863.372	13883
863.504	13909
863.636	14043
863.768	14081
863.9	13913
864.032	13818
864.164	13955
864.296	14027
864.428	14142
864.559	14088
864.691	14172
864.823	14100
864.954	13967
865.086	13993
865.217	13997
865.349	13944
865.48	13940
865.612	14039
865.743	14183
865.875	14016
866.006	13898
866.137	13978
866.269	13951
866.4	14088
866.531	13982
866.662	13841
866.793	13944
866.924	13791
867.055	13955
867.186	14012
867.317	13925
867.448	13856
867.579	13951
867.71	13947
867.841	13925
867.972	14001
868.103	13955
868.233	13967
868.364	13940
868.495	14153
868.625	14309
868.756	14317
868.886	14176
869.017	14206
869.147	14400
869.278	14423
869.408	14263
869.539	14248
869.669	14271
869.799	14225
869.929	14366
870.06	14396
870.19	14503
870.32	14511
870.45	14617
870.58	14556
870.71	14697
870.84	14682
870.97	14590
871.1	14583
871.23	14762
871.36	14777
871.489	14682
871.619	14853
871.749	14800
871.879	14921
872.008	14914
872.138	14830
872.267	14899
872.397	14594
872.526	14686
872.656	14602
872.785	14708
872.915	14815
873.044	14906
873.173	14807
873.303	14883
873.432	14944
873.561	15043
873.69	14944
873.819	14883
873.948	14933
874.077	14883
874.206	14849
874.335	14845
874.464	14982
874.593	15138
874.722	15104
874.851	15173
874.979	15180
875.108	15176
875.237	15119
875.365	15127
875.494	15184
875.623	15275
875.751	15108
875.88	15230
876.008	15386
876.136	15329
876.265	15633
876.393	15762
876.521	15774
876.65	15770
876.778	15705
876.906	15663
877.034	15492
877.162	15545
877.29	15477
877.418	15576
877.546	15671
877.674	15637
877.802	15606
877.93	15576
878.058	15557
878.185	15454
878.313	15614
878.441	15606
878.568	15454
878.696	15496
878.824	15564
878.951	15618
879.079	15724
879.206	16013
879.333	15739
879.461	15660
879.588	15804
879.715	15739
879.842	15861
879.97	15705
880.097	15507
880.224	15462
880.351	15477
880.478	15477
880.605	15424
880.732	15469
880.859	15701
880.986	15389
881.112	15462
881.239	15256
881.366	15313
881.493	15100
881.619	15157
881.746	15119
881.872	15058
881.999	15036
882.125	15070
882.252	15154
882.378	15138
882.505	15291
882.631	15085
882.757	14986
882.883	14902
883.01	14918
883.136	14838
883.262	14868
883.388	14705
883.514	14941
883.64	14891
883.766	14925
883.892	14880
884.018	14781
884.143	14853
884.269	15028
884.395	14610
884.52	14594
884.646	14610
884.772	14636
884.897	14564
885.023	14705
885.148	14678
885.274	14902
885.399	14640
885.524	14727
885.65	14648
885.775	14636
885.9	14716
886.025	14781
886.15	14632
886.275	14594
886.4	14434
886.525	14549
886.65	14530
886.775	14568
886.9	14693
887.025	14918
887.149	14663
887.274	14461
887.399	14484
887.523	14423
887.648	14480
887.773	14298
887.897	14552
888.021	14522
888.146	14377
888.27	14571
888.395	14541
888.519	14621
888.643	14533
888.767	14461
888.891	14305
889.015	14210
889.139	14252
889.263	14267
889.387	14351
889.511	14488
889.635	14545
889.759	14351
889.883	14313
890.006	14343
890.13	14461
890.254	14221
890.377	14267
890.501	14218
890.624	14107
890.748	14313
890.871	14107
890.995	13951
891.118	13967
891.241	14024
891.364	13955
891.488	14126
891.611	14164
891.734	14043
891.857	14065
891.98	14123
892.103	14138
892.226	14195
892.349	13898
892.471	13932
892.594	14062
892.717	13989
892.839	13982
892.962	14020
893.085	14100
893.207	14065
893.33	13898
893.452	13963
893.575	14172
893.697	14145
893.819	14221
893.941	14309
894.064	14100
894.186	14024
894.308	14012
894.43	14134
894.552	14259
894.674	14187
894.796	14069
894.918	14138
895.04	13993
895.161	14202
895.283	14218
895.405	14107
895.526	14142
895.648	14214
895.769	14225
895.891	14263
896.012	14305
896.134	14301
896.255	14206
896.376	14187
896.498	14164
896.619	14210
896.74	14248
896.861	14202
896.982	14507
897.103	14796
897.224	14446
897.345	14473
897.466	14476
897.587	14469
897.708	14632
897.828	14469
897.949	14469
898.07	14374
898.19	14476
898.311	14568
898.431	14492
898.552	14556
898.672	14602
898.792	14667
898.913	14530
899.033	14533
899.153	14389
899.273	14328
899.393	14294
899.513	14450
899.633	14419
899.753	14434
899.873	14370
899.993	14461
900.113	14381
900.232	14454
900.352	14400
900.472	14278
900.591	14252
900.711	14362
900.83	14240
900.95	14332
901.069	14362
901.189	14168
901.308	13982
901.427	13909
901.546	13947
901.665	13955
901.784	13963
901.904	13894
902.023	13750
902.141	13499
902.26	13514
902.379	13616
902.498	13415
902.617	13460
902.735	13578
902.854	13552
902.973	13525
903.091	13251
903.21	13209
903.328	13301
903.446	13164
903.565	13031
903.683	13141
903.801	12989
903.919	13091
904.038	13076
904.156	12947
904.274	12981
904.392	12844
904.51	12779
904.627	12920
904.745	12935
904.863	12932
904.981	12616
905.098	12635
905.216	12544
905.334	12608
905.451	12589
905.569	12589
905.686	12665
905.803	12692
905.921	12525
906.038	12479
906.155	12429
906.272	12338
906.389	12369
906.506	12258
906.623	12262
906.74	12209
906.857	12022
906.974	12117
907.091	12243
907.208	12315
907.324	12251
907.441	12144
907.557	11973
907.674	11958
907.79	11802
907.907	11821
908.023	11904
908.139	12019
908.256	11882
908.372	11920
908.488	11897
908.604	11748
908.72	11707
908.836	11665
908.952	11581
909.068	11634
909.184	11798
909.3	11657
909.415	11813
909.531	11630
909.647	11520
909.762	11425
909.878	11520
909.993	11551
910.108	11478
910.224	11433
910.339	11490
910.454	11387
910.57	11337
910.685	11280
910.8	11497
910.915	11532
911.03	11334
911.145	11216
911.259	11151
911.374	11083
911.489	11071
911.604	11181
911.718	10953
911.833	11022
911.947	10850
912.062	10790
912.176	10889
912.291	10957
912.405	10972
912.519	11105
912.633	11166
912.748	11060
912.862	10987
912.976	10782
913.09	10763
913.204	10740
913.318	10782
913.431	10896
913.545	10847
913.659	10881
913.772	10847
913.886	10675
914	10702
914.113	10786
914.226	10892
914.34	10782
914.453	10615
914.566	10755
914.68	10588
914.793	10622
914.906	10485
915.019	10413
915.132	10322
915.245	10470
915.358	10413
915.47	10402
915.583	10558
915.696	10550
915.809	10580
915.921	10538
916.034	10398
916.146	10424
916.259	10428
916.371	10481
916.483	10558
916.595	10341
916.708	10390
916.82	10329
916.932	10329
917.044	10405
917.156	10333
917.268	10234
917.38	10200
917.491	10272
917.603	10291
917.715	10440
917.826	10512
917.938	10291
918.049	10116
918.161	10287
918.272	10443
918.384	10352
918.495	10238
918.606	10272
918.717	10051
918.828	10185
918.939	10192
919.05	10017
919.161	10150
919.272	9895
919.383	10036
919.494	10162
919.604	10303
919.715	10249
919.826	9968
919.936	10173
920.047	10249
920.157	10192
920.267	10352
920.378	10204
920.488	10158
920.598	10428
920.708	10538
920.818	10371
920.928	10394
921.038	10565
921.148	10459
921.258	10204
921.368	10090
921.477	10059
921.587	10021
921.697	9937
921.806	10074
921.916	9934
922.025	9812
922.134	9778
922.244	9648
922.353	9789
922.462	9682
922.571	9572
922.68	9473
922.789	9466
922.898	9523
923.007	9389
923.116	9443
923.224	9401
923.333	9329
923.442	9272
923.55	9275
923.659	9367
923.767	9294
923.876	9275
923.984	9416
924.092	9207
924.201	9313
924.309	9264
924.417	9230
924.525	9245
924.633	9176
924.741	9979
924.849	9017
924.956	9203
925.064	9100
925.172	9028
925.279	8982
925.387	9154
925.494	9062
925.602	9176
925.709	9085
925.816	9085
925.924	9104
926.031	9157
926.138	9131
926.245	9066
926.352	8990
926.459	9116
926.566	9195
926.673	9055
926.779	8952
926.886	8925
926.993	8788
927.099	8792
927.206	8796
927.312	8731
927.419	8834
927.525	8826
927.631	8769
927.737	8667
927.843	8610
927.95	8602
928.056	8648
928.162	8720
928.267	8769
928.373	9310
928.479	8746
928.585	8598
928.69	8708
928.796	8731
928.901	8632
929.007	8533
929.112	8693
929.218	8625
929.323	8560
929.428	8499
929.533	8629
929.638	8385
929.743	8469
929.848	8568
929.953	8568
930.058	8446
930.163	8305
930.267	8301
930.372	8343
930.477	8164
930.581	8530
930.685	8358
930.79	8233
930.894	8237
930.998	8279
931.103	8309
931.207	7997
931.311	7902
931.415	7852
931.519	7704
931.623	7655
