Data from test_V78500241_2073.txt Node
Date: Fri Mar 25 14:48:08 CST 2022
User: usil
Spectrometer: V785-0024
Trigger mode: 0
Integration Time (sec): 4.000000E-1
Scans to average: 1
Nonlinearity correction enabled: false
Boxcar width: 0
Storing dark spectrum: false
XAxis mode: Wavelengths
Number of Pixels in Spectrum: 1024
>>>>>Begin Spectral Data<<<<<
801.071	22086
801.214	22036
801.356	21823
801.499	21641
801.641	21583
801.783	21549
801.926	21572
802.068	21462
802.211	21416
802.353	21256
802.496	21104
802.638	20918
802.78	21013
802.923	20845
803.065	20811
803.208	20773
803.35	20849
803.492	20921
803.635	20826
803.777	20727
803.919	20933
804.061	21161
804.204	20891
804.346	20724
804.488	20720
804.63	20735
804.773	20689
804.915	20762
805.057	20769
805.199	20655
805.341	20788
805.483	20819
805.626	20845
805.768	20788
805.91	20701
806.052	20663
806.194	20663
806.336	20948
806.478	20682
806.62	20670
806.762	20815
806.904	21028
807.046	21135
807.188	20998
807.33	21104
807.472	21077
807.614	21020
807.756	21024
807.898	20925
808.04	20815
808.182	20705
808.324	20796
808.465	20872
808.607	20956
808.749	21123
808.891	21192
809.033	21192
809.174	21146
809.316	21127
809.458	21165
809.6	21138
809.741	21188
809.883	21192
810.025	21359
810.166	21199
810.308	21184
810.45	21298
810.591	21165
810.733	21055
810.875	20883
811.016	20792
811.158	20845
811.299	20944
811.441	21032
811.582	21127
811.724	20941
811.865	20910
812.007	20925
812.148	20842
812.29	20925
812.431	21024
812.573	21249
812.714	21272
812.855	21287
812.997	21454
813.138	21599
813.279	21469
813.421	21298
813.562	21272
813.703	21184
813.845	21051
813.986	20769
814.127	20655
814.268	20499
814.41	20533
814.551	20442
814.692	20590
814.833	20404
814.974	20492
815.115	20393
815.256	20317
815.397	20282
815.539	20412
815.68	20195
815.821	20122
815.962	20202
816.103	20248
816.244	19955
816.385	19879
816.526	19784
816.666	19811
816.807	19521
816.948	19613
817.089	19651
817.23	19655
817.371	19582
817.512	19647
817.653	19620
817.793	19449
817.934	19426
818.075	19556
818.216	19605
818.356	19559
818.497	19434
818.638	19282
818.778	19202
818.919	19263
819.06	19346
819.2	19369
819.341	19460
819.481	19441
819.622	19685
819.762	19822
819.903	19693
820.043	19533
820.184	19457
820.324	19575
820.465	19510
820.605	19632
820.746	19575
820.886	19453
821.026	19426
821.167	19346
821.307	19559
821.447	19521
821.588	19381
821.728	19126
821.868	19156
822.008	18951
822.149	18993
822.289	18901
822.429	18738
822.569	18642
822.709	18578
822.849	18479
822.99	18544
823.13	18426
823.27	18418
823.41	18323
823.55	18232
823.69	18292
823.83	18258
823.97	18220
824.11	18060
824.25	18087
824.389	17912
824.529	18007
824.669	18049
824.809	18098
824.949	18144
825.089	18095
825.228	18026
825.368	17836
825.508	17950
825.648	17901
825.787	17843
825.927	17863
826.067	17722
826.206	17840
826.346	17813
826.485	17707
826.625	17737
826.765	17923
826.904	17775
827.044	17691
827.183	17478
827.323	17512
827.462	17539
827.601	17452
827.741	17444
827.88	17444
828.02	17417
828.159	17433
828.298	17573
828.437	17623
828.577	17474
828.716	17672
828.855	17391
828.994	17315
829.134	17231
829.273	17326
829.412	17132
829.551	17277
829.69	17208
829.829	17303
829.968	17307
830.107	17269
830.246	17250
830.385	17178
830.524	17189
830.663	17071
830.802	17033
830.941	16885
831.08	16793
831.219	17006
831.357	16942
831.496	17025
831.635	16892
831.774	16755
831.913	16752
832.051	16611
832.19	16626
832.329	16713
832.467	16641
832.606	16474
832.744	16508
832.883	16535
833.022	16519
833.16	16546
833.299	16596
833.437	16641
833.576	16577
833.714	16561
833.852	16672
833.991	16577
834.129	16694
834.267	16683
834.406	16523
834.544	16668
834.682	16637
834.821	16550
834.959	16782
835.097	16637
835.235	16721
835.373	16679
835.511	16645
835.65	16599
835.788	16451
835.926	16284
836.064	16299
836.202	16344
836.34	16542
836.478	16618
836.615	16405
836.753	16470
836.891	16653
837.029	16554
837.167	16538
837.305	16447
837.443	16398
837.58	16348
837.718	16436
837.856	16432
837.993	16424
838.131	16478
838.269	16348
838.406	16333
838.544	16303
838.681	16135
838.819	16093
838.956	16074
839.094	15968
839.231	15903
839.369	16093
839.506	16299
839.643	16177
839.781	16025
839.918	15892
840.055	16006
840.193	15926
840.33	15865
840.467	15945
840.604	15926
840.742	16169
840.879	15797
841.016	15857
841.153	15854
841.29	16044
841.427	15987
841.564	16032
841.701	15918
841.838	16017
841.975	15888
842.112	15903
842.249	15816
842.385	15686
842.522	15934
842.659	15766
842.796	15625
842.933	15728
843.069	15618
843.206	15705
843.343	15800
843.479	15641
843.616	15778
843.752	15580
843.889	15564
844.025	15679
844.162	15500
844.298	15572
844.435	15584
844.571	15519
844.708	15587
844.844	15675
844.98	15629
845.117	15576
845.253	15386
845.389	15435
845.525	15477
845.661	15344
845.798	15355
845.934	15435
846.07	15241
846.206	15382
846.342	15511
846.478	15279
846.614	15142
846.75	15116
846.886	15032
847.022	15180
847.158	15097
847.294	15058
847.429	15085
847.565	15032
847.701	15275
847.837	14807
847.972	14811
848.108	14895
848.244	14971
848.379	14663
848.515	14724
848.65	14724
848.786	14724
848.921	14670
849.057	14792
849.192	14800
849.328	14629
849.463	14735
849.598	14663
849.734	14640
849.869	14552
850.004	14564
850.14	14507
850.275	14537
850.41	14339
850.545	14465
850.68	14415
850.815	14469
850.95	14613
851.085	14663
851.22	14594
851.355	14423
851.49	14476
851.625	14393
851.76	14404
851.895	14374
852.03	14377
852.165	14427
852.299	14446
852.434	14571
852.569	14571
852.703	14495
852.838	14526
852.973	14705
853.107	14549
853.242	14575
853.376	14366
853.511	14221
853.645	14256
853.78	14457
853.914	14370
854.048	14286
854.183	14252
854.317	14370
854.451	14522
854.585	14286
854.72	14263
854.854	14374
854.988	14267
855.122	14404
855.256	14111
855.39	14267
855.524	14412
855.658	14427
855.792	14328
855.926	14473
856.06	14381
856.194	14469
856.327	14404
856.461	14282
856.595	14339
856.729	14298
856.862	14473
856.996	14320
857.13	14438
857.263	14434
857.397	14480
857.53	14404
857.664	14370
857.797	14434
857.931	14507
858.064	14476
858.197	14541
858.331	14229
858.464	14317
858.597	14199
858.731	14347
858.864	14278
858.997	14381
859.13	14431
859.263	14415
859.396	14370
859.529	14309
859.662	14339
859.795	14317
859.928	14351
860.061	14552
860.194	14545
860.327	14347
860.46	14355
860.592	14423
860.725	14514
860.858	14579
860.99	14412
861.123	14320
861.256	14263
861.388	14343
861.521	15070
861.653	14271
861.786	14149
861.918	14233
862.05	14206
862.183	14275
862.315	14370
862.447	14336
862.58	14263
862.712	14164
862.844	14126
862.976	14149
863.108	14233
863.24	14480
863.372	13959
863.504	14100
863.636	14084
863.768	14229
863.9	14149
864.032	14008
864.164	14012
864.296	14168
864.428	14271
864.559	14313
864.691	14263
864.823	14100
864.954	14252
865.086	14195
865.217	14050
865.349	14001
865.48	14145
865.612	14130
865.743	14320
865.875	14050
866.006	14069
866.137	14088
866.269	14008
866.4	14096
866.531	13997
866.662	14084
866.793	14073
866.924	14062
867.055	14187
867.186	14092
867.317	14134
867.448	14077
867.579	13947
867.71	14016
867.841	14153
867.972	14084
868.103	14065
868.233	14187
868.364	14096
868.495	14278
868.625	14309
868.756	14469
868.886	14259
869.017	14347
869.147	14442
869.278	14549
869.408	14381
869.539	14358
869.669	14473
869.799	14408
869.929	14476
870.06	14450
870.19	14651
870.32	14613
870.45	14697
870.58	14845
870.71	14792
870.84	14804
870.97	14765
871.1	14750
871.23	14941
871.36	14921
871.489	14842
871.619	14967
871.749	14990
871.879	15005
872.008	15077
872.138	15051
872.267	14830
872.397	14708
872.526	14739
872.656	14815
872.785	14811
872.915	14967
873.044	15055
873.173	14979
873.303	15070
873.432	15089
873.561	15116
873.69	15055
873.819	14918
873.948	15135
874.077	15066
874.206	15001
874.335	15093
874.464	15146
874.593	15351
874.722	15222
874.851	15344
874.979	15264
875.108	15389
875.237	15329
875.365	15173
875.494	15332
875.623	15443
875.751	15252
875.88	15439
876.008	15485
876.136	15572
876.265	15720
876.393	15907
876.521	15751
876.65	15823
876.778	15743
876.906	15770
877.034	15652
877.162	15766
877.29	15717
877.418	15701
877.546	15705
877.674	15709
877.802	15793
877.93	15603
878.058	15720
878.185	15610
878.313	15717
878.441	15743
878.568	15625
878.696	15656
878.824	15759
878.951	15759
879.079	15937
879.206	16044
879.333	15930
879.461	15747
879.588	15915
879.715	15888
879.842	16059
879.97	15934
880.097	15618
880.224	15622
880.351	15625
880.478	15625
880.605	15538
880.732	15545
880.859	15785
880.986	15629
881.112	15606
881.239	15504
881.366	15340
881.493	15363
881.619	15176
881.746	15302
881.872	15211
881.999	15093
882.125	15207
882.252	15226
882.378	15336
882.505	15408
882.631	15165
882.757	15055
882.883	15138
883.01	15097
883.136	14891
883.262	14887
883.388	14914
883.514	15097
883.64	15188
883.766	14963
883.892	14842
884.018	14868
884.143	14998
884.269	15100
884.395	14800
884.52	14682
884.646	14762
884.772	14705
884.897	14682
885.023	14899
885.148	14956
885.274	14902
885.399	14838
885.524	14765
885.65	14743
885.775	14807
885.9	14773
886.025	14868
886.15	14838
886.275	14716
886.4	14606
886.525	14705
886.65	14796
886.775	14606
886.9	14937
887.025	15013
887.149	14754
887.274	14560
887.399	14533
887.523	14648
887.648	14598
887.773	14484
887.897	14625
888.021	14640
888.146	14488
888.27	14762
888.395	14746
888.519	14746
888.643	14590
888.767	14648
888.891	14545
889.015	14454
889.139	14507
889.263	14366
889.387	14651
889.511	14659
889.635	14598
889.759	14389
889.883	14408
890.006	14488
890.13	14492
890.254	14393
890.377	14271
890.501	14233
890.624	14214
890.748	14332
890.871	14168
890.995	14088
891.118	13997
891.241	14187
891.364	14233
891.488	14168
891.611	14164
891.734	14225
891.857	14214
891.98	14168
892.103	14252
892.226	14157
892.349	14176
892.471	14054
892.594	14092
892.717	14172
892.839	14111
892.962	14153
893.085	14298
893.207	14248
893.33	13974
893.452	14081
893.575	14298
893.697	14183
893.819	14336
893.941	14252
894.064	14389
894.186	14142
894.308	14016
894.43	14248
894.552	14328
894.674	14298
894.796	14012
894.918	14107
895.04	14195
895.161	14301
895.283	14301
895.405	14263
895.526	14233
895.648	14210
895.769	14256
895.891	14423
896.012	14374
896.134	14351
896.255	14389
896.376	14240
896.498	14336
896.619	14298
896.74	14271
896.861	14400
896.982	14701
897.103	14842
897.224	14640
897.345	14514
897.466	14518
897.587	14537
897.708	14701
897.828	14663
897.949	14594
898.07	14469
898.19	14552
898.311	14720
898.431	14465
898.552	14686
898.672	14686
898.792	14754
898.913	14716
899.033	14587
899.153	14598
899.273	14343
899.393	14465
899.513	14461
899.633	14579
899.753	14579
899.873	14469
899.993	14503
900.113	14473
900.232	14480
900.352	14434
900.472	14415
900.591	14362
900.711	14374
900.83	14263
900.95	14434
901.069	14492
901.189	14415
901.308	14161
901.427	14103
901.546	14008
901.665	14115
901.784	14069
901.904	13875
902.023	13776
902.141	13677
902.26	13647
902.379	13719
902.498	13624
902.617	13590
902.735	13616
902.854	13658
902.973	13559
903.091	13419
903.21	13415
903.328	13358
903.446	13362
903.565	13202
903.683	13228
903.801	13099
903.919	13103
904.038	13114
904.156	13034
904.274	13118
904.392	13012
904.51	13065
904.627	13065
904.745	13015
904.863	13065
904.981	12817
905.098	12719
905.216	12703
905.334	12768
905.451	12692
905.569	12688
905.686	12760
905.803	12677
905.921	12517
906.038	12601
906.155	12513
906.272	12361
906.389	12471
906.506	12296
906.623	12239
906.74	12330
906.857	12038
906.974	12197
907.091	12376
907.208	12395
907.324	12277
907.441	12190
907.557	12049
907.674	12083
907.79	12011
907.907	12003
908.023	12026
908.139	12003
908.256	11920
908.372	11916
908.488	11863
908.604	11817
908.72	11798
908.836	11832
908.952	11741
909.068	11794
909.184	11874
909.3	11779
909.415	11813
909.531	11790
909.647	11649
909.762	11642
909.878	11512
909.993	11558
910.108	11551
910.224	11577
910.339	11581
910.454	11448
910.57	11398
910.685	11311
910.8	11596
910.915	11490
911.03	11383
911.145	11280
911.259	11212
911.374	11284
911.489	11140
911.604	11151
911.718	11071
911.833	11083
911.947	10927
912.062	10816
912.176	10976
912.291	11033
912.405	11045
912.519	11155
912.633	11208
912.748	11109
912.862	11052
912.976	10892
913.09	10812
913.204	10869
913.318	10984
913.431	11086
913.545	11064
913.659	10999
913.772	10900
913.886	10858
914	10729
914.113	10847
914.226	10938
914.34	10854
914.453	10748
914.566	10847
914.68	10687
914.793	10664
914.906	10542
915.019	10474
915.132	10443
915.245	10531
915.358	10519
915.47	10603
915.583	10596
915.696	10641
915.809	10668
915.921	10702
916.034	10440
916.146	10527
916.259	10432
916.371	10508
916.483	10527
916.595	10474
916.708	10470
916.82	10535
916.932	10527
917.044	10375
917.156	10478
917.268	10325
917.38	10314
917.491	10394
917.603	10394
917.715	10402
917.826	10489
917.938	10348
918.049	10200
918.161	10329
918.272	10478
918.384	10508
918.495	10379
918.606	10249
918.717	10131
918.828	10265
918.939	10223
919.05	10162
919.161	10249
919.272	9987
919.383	10101
919.494	10280
919.604	10386
919.715	10314
919.826	10143
919.936	10219
920.047	10337
920.157	10192
920.267	10474
920.378	10306
920.488	10284
920.598	10432
920.708	10641
920.818	10485
920.928	10398
921.038	10634
921.148	10573
921.258	10280
921.368	10196
921.477	10109
921.587	10059
921.697	9991
921.806	10162
921.916	10006
922.025	9873
922.134	9911
922.244	9743
922.353	9907
922.462	9690
922.571	9724
922.68	9504
922.789	9492
922.898	9447
923.007	9443
923.116	9545
923.224	9481
923.333	9466
923.442	9412
923.55	9348
923.659	9500
923.767	9473
923.876	9351
923.984	9405
924.092	9298
924.201	9424
924.309	9424
924.417	9363
924.525	9294
924.633	9336
924.741	10257
924.849	9108
924.956	9294
925.064	9131
925.172	8975
925.279	9119
925.387	9165
925.494	9195
925.602	9260
925.709	9249
925.816	9108
925.924	9119
926.031	9260
926.138	9127
926.245	9169
926.352	9100
926.459	9207
926.566	9241
926.673	9058
926.779	9001
926.886	9058
926.993	8864
927.099	8864
927.206	8845
927.312	8807
927.419	8883
927.525	8899
927.631	8918
927.737	8762
927.843	8712
927.95	8655
928.056	8720
928.162	8796
928.267	8762
928.373	9473
928.479	8918
928.585	8621
928.69	8785
928.796	8845
928.901	8648
929.007	8571
929.112	8686
929.218	8651
929.323	8629
929.428	8598
929.533	8689
929.638	8560
929.743	8556
929.848	8594
929.953	8495
930.058	8564
930.163	8396
930.267	8343
930.372	8469
930.477	8294
930.581	8571
930.685	8461
930.79	8301
930.894	8377
930.998	8221
931.103	8427
931.207	8065
931.311	8058
931.415	7894
931.519	7826
931.623	7772
