Data from test_V78500241_81.txt Node
Date: Fri Mar 25 14:34:17 CST 2022
User: usil
Spectrometer: V785-0024
Trigger mode: 0
Integration Time (sec): 4.000000E-1
Scans to average: 1
Nonlinearity correction enabled: false
Boxcar width: 0
Storing dark spectrum: false
XAxis mode: Wavelengths
Number of Pixels in Spectrum: 1024
>>>>>Begin Spectral Data<<<<<
801.071	28793
801.214	28687
801.356	28611
801.499	28538
801.641	28413
801.783	28166
801.926	28295
802.068	28211
802.211	28215
802.353	28147
802.496	27907
802.638	27918
802.78	27998
802.923	27819
803.065	27816
803.208	27816
803.35	27747
803.492	28101
803.635	28097
803.777	27953
803.919	27991
804.061	28265
804.204	28013
804.346	27956
804.488	27800
804.63	27816
804.773	27679
804.915	28017
805.057	28063
805.199	27892
805.341	27960
805.483	28067
805.626	27960
805.768	27975
805.91	27956
806.052	28059
806.194	27968
806.336	28036
806.478	27956
806.62	28021
806.762	28139
806.904	28211
807.046	28470
807.188	28280
807.33	28508
807.472	28379
807.614	28261
807.756	28287
807.898	28200
808.04	28150
808.182	28143
808.324	28211
808.465	28257
808.607	28440
808.749	28466
808.891	28603
809.033	28569
809.174	28531
809.316	28573
809.458	28546
809.6	28535
809.741	28630
809.883	28588
810.025	28603
810.166	28668
810.308	28797
810.45	28877
810.591	28675
810.733	28584
810.875	28443
811.016	28341
811.158	28382
811.299	28459
811.441	28447
811.582	28542
811.724	28440
811.865	28413
812.007	28325
812.148	28352
812.29	28569
812.431	28588
812.573	28790
812.714	28809
812.855	28972
812.997	29105
813.138	29174
813.279	29162
813.421	28854
813.562	28850
813.703	28565
813.845	28668
813.986	28325
814.127	28226
814.268	28051
814.41	28029
814.551	27975
814.692	28006
814.833	27804
814.974	27869
815.115	27937
815.256	27667
815.397	27724
815.539	27876
815.68	27705
815.821	27865
815.962	27629
816.103	27709
816.244	27625
816.385	27610
816.526	27515
816.666	27348
816.807	27081
816.948	27287
817.089	27283
817.23	27218
817.371	27116
817.512	27066
817.653	27214
817.793	27001
817.934	27009
818.075	27104
818.216	27020
818.356	27077
818.497	26975
818.638	26739
818.778	26807
818.919	26727
819.06	26956
819.2	26940
819.341	27051
819.481	26914
819.622	26986
819.762	27355
819.903	27348
820.043	27070
820.184	27226
820.324	27055
820.465	27085
820.605	27070
820.746	27116
820.886	26914
821.026	27123
821.167	26910
821.307	26861
821.447	26925
821.588	26769
821.728	26864
821.868	26549
822.008	26366
822.149	26339
822.289	26415
822.429	26119
822.569	25963
822.709	26081
822.849	25875
822.99	25913
823.13	25860
823.27	25833
823.41	25674
823.55	25514
823.69	25594
823.83	25590
823.97	25567
824.11	25453
824.25	25453
824.389	25449
824.529	25510
824.669	25392
824.809	25483
824.949	25434
825.089	25518
825.228	25457
825.368	25171
825.508	25304
825.648	25099
825.787	25175
825.927	25293
826.067	25099
826.206	25251
826.346	25133
826.485	25255
826.625	25259
826.765	25171
826.904	25194
827.044	24894
827.183	24962
827.323	24829
827.462	24890
827.601	24894
827.741	24798
827.88	24954
828.02	24749
828.159	24738
828.298	24795
828.437	24920
828.577	24764
828.716	24981
828.855	24852
828.994	24665
829.134	24513
829.273	24566
829.412	24437
829.551	24441
829.69	24494
829.829	24502
829.968	24623
830.107	24540
830.246	24585
830.385	24464
830.524	24467
830.663	24365
830.802	24178
830.941	24106
831.08	24007
831.219	24216
831.357	24148
831.496	24445
831.635	24129
831.774	24106
831.913	23996
832.051	23859
832.19	23946
832.329	23832
832.467	23634
832.606	23695
832.744	23684
832.883	23756
833.022	23665
833.16	23649
833.299	23927
833.437	23707
833.576	23760
833.714	23718
833.852	23802
833.991	23824
834.129	23832
834.267	23843
834.406	23680
834.544	23809
834.682	23703
834.821	23608
834.959	23767
835.097	23592
835.235	23752
835.373	23722
835.511	23714
835.65	23459
835.788	23543
835.926	23444
836.064	23288
836.202	23387
836.34	23589
836.478	23619
836.615	23425
836.753	23592
836.891	23615
837.029	23551
837.167	23433
837.305	23379
837.443	23463
837.58	23280
837.718	23524
837.856	23486
837.993	23356
838.131	23341
838.269	23212
838.406	23307
838.544	23162
838.681	22957
838.819	23064
838.956	22881
839.094	22752
839.231	22831
839.369	22892
839.506	23193
839.643	22946
839.781	22793
839.918	22744
840.055	22721
840.193	22634
840.33	22630
840.467	22569
840.604	22717
840.742	22717
840.879	22607
841.016	22493
841.153	22519
841.29	22653
841.427	22565
841.564	22702
841.701	22691
841.838	22580
841.975	22481
842.112	22512
842.249	22329
842.385	22310
842.522	22557
842.659	22265
842.796	22238
842.933	22344
843.069	22409
843.206	22226
843.343	22363
843.479	22325
843.616	22303
843.752	22093
843.889	22147
844.025	22276
844.162	22105
844.298	22215
844.435	22078
844.571	22154
844.708	22150
844.844	22204
844.98	22215
845.117	22276
845.253	21994
845.389	22002
845.525	22032
845.661	21930
845.798	21778
845.934	21926
846.07	21736
846.206	21842
846.342	21823
846.478	21766
846.614	21500
846.75	21450
846.886	21523
847.022	21526
847.158	21492
847.294	21561
847.429	21466
847.565	21408
847.701	21698
847.837	21260
847.972	21214
848.108	21363
848.244	21382
848.379	21146
848.515	20960
848.65	20990
848.786	21058
848.921	21043
849.057	21264
849.192	21047
849.328	21119
849.463	21032
849.598	20956
849.734	20944
849.869	20906
850.004	20727
850.14	20804
850.275	20762
850.41	20735
850.545	20769
850.68	20773
850.815	20735
850.95	20724
851.085	20952
851.22	20811
851.355	20735
851.49	20705
851.625	20670
851.76	20613
851.895	20545
852.03	20735
852.165	20708
852.299	20792
852.434	20777
852.569	20804
852.703	20712
852.838	20682
852.973	20880
853.107	20944
853.242	20689
853.376	20583
853.511	20366
853.645	20537
853.78	20792
853.914	20689
854.048	20465
854.183	20492
854.317	20598
854.451	20807
854.585	20556
854.72	20408
854.854	20609
854.988	20617
855.122	20492
855.256	20434
855.39	20480
855.524	20708
855.658	20636
855.792	20621
855.926	20560
856.06	20590
856.194	20667
856.327	20617
856.461	20454
856.595	20602
856.729	20511
856.862	20602
856.996	20640
857.13	20579
857.263	20571
857.397	20571
857.53	20617
857.664	20629
857.797	20541
857.931	20503
858.064	20651
858.197	20689
858.331	20457
858.464	20427
858.597	20454
858.731	20442
858.864	20526
858.997	20465
859.13	20408
859.263	20408
859.396	20541
859.529	20370
859.662	20431
859.795	20362
859.928	20408
860.061	20541
860.194	20552
860.327	20400
860.46	20457
860.592	20495
860.725	20560
860.858	20522
860.99	20446
861.123	20374
861.256	20419
861.388	20294
861.521	21058
861.653	20259
861.786	20233
861.918	20366
862.05	20488
862.183	20507
862.315	20511
862.447	20655
862.58	20427
862.712	20248
862.844	20305
862.976	20374
863.108	20298
863.24	20625
863.372	20103
863.504	20145
863.636	20054
863.768	20286
863.9	20115
864.032	20084
864.164	20107
864.296	20126
864.428	20305
864.559	20298
864.691	20149
864.823	20111
864.954	20115
865.086	20130
865.217	20164
865.349	20016
865.48	19978
865.612	20050
865.743	20092
865.875	20043
866.006	20073
866.137	20069
866.269	20073
866.4	20058
866.531	19997
866.662	19974
866.793	20069
866.924	19967
867.055	19959
867.186	19917
867.317	20001
867.448	19921
867.579	19860
867.71	19890
867.841	19852
867.972	19974
868.103	19932
868.233	20122
868.364	20024
868.495	20035
868.625	20233
868.756	20267
868.886	20115
869.017	20218
869.147	20358
869.278	20328
869.408	20252
869.539	20149
869.669	20225
869.799	20180
869.929	20225
870.06	20225
870.19	20568
870.32	20473
870.45	20541
870.58	20537
870.71	20617
870.84	20609
870.97	20629
871.1	20549
871.23	20720
871.36	20788
871.489	20727
871.619	20727
871.749	20762
871.879	20838
872.008	20910
872.138	20826
872.267	20826
872.397	20754
872.526	20556
872.656	20655
872.785	20689
872.915	20838
873.044	20933
873.173	20800
873.303	20830
873.432	20895
873.561	20823
873.69	20914
873.819	20815
873.948	20872
874.077	20868
874.206	20823
874.335	20807
874.464	20872
874.593	21085
874.722	21020
874.851	21009
874.979	20986
875.108	21096
875.237	20975
875.365	20902
875.494	21104
875.623	21131
875.751	21001
875.88	21230
876.008	21176
876.136	21260
876.265	21485
876.393	21576
876.521	21488
876.65	21542
876.778	21534
876.906	21424
877.034	21367
877.162	21408
877.29	21332
877.418	21431
877.546	21481
877.674	21466
877.802	21469
877.93	21382
878.058	21344
878.185	21230
878.313	21382
878.441	21485
878.568	21279
878.696	21504
878.824	21401
878.951	21534
879.079	21583
879.206	21682
879.333	21629
879.461	21389
879.588	21538
879.715	21561
879.842	21618
879.97	21583
880.097	21279
880.224	21260
880.351	21241
880.478	21393
880.605	21226
880.732	21317
880.859	21561
880.986	21252
881.112	21275
881.239	21093
881.366	20994
881.493	20910
881.619	20857
881.746	20883
881.872	20883
881.999	20819
882.125	20796
882.252	20971
882.378	20868
882.505	20914
882.631	20659
882.757	20571
882.883	20735
883.01	20724
883.136	20465
883.262	20438
883.388	20469
883.514	20629
883.64	20716
883.766	20461
883.892	20374
884.018	20404
884.143	20530
884.269	20663
884.395	20366
884.52	20271
884.646	20374
884.772	20168
884.897	20107
885.023	20298
885.148	20339
885.274	20423
885.399	20412
885.524	20130
885.65	20286
885.775	20305
885.9	20218
886.025	20286
886.15	20267
886.275	20210
886.4	20077
886.525	20172
886.65	20100
886.775	20088
886.9	20339
887.025	20305
887.149	20305
887.274	20008
887.399	19940
887.523	19963
887.648	20005
887.773	19845
887.897	20119
888.021	19955
888.146	19978
888.27	20027
888.395	20050
888.519	20046
888.643	19967
888.767	20039
888.891	19799
889.015	19681
889.139	19879
889.263	19727
889.387	19864
889.511	19894
889.635	19951
889.759	19677
889.883	19662
890.006	19791
890.13	19902
890.254	19700
890.377	19643
890.501	19540
890.624	19510
890.748	19704
890.871	19415
890.995	19464
891.118	19304
891.241	19308
891.364	19365
891.488	19358
891.611	19453
891.734	19415
891.857	19434
891.98	19297
892.103	19499
892.226	19343
892.349	19270
892.471	19137
892.594	19232
892.717	19422
892.839	19171
892.962	19362
893.085	19365
893.207	19266
893.33	19259
893.452	19278
893.575	19301
893.697	19247
893.819	19438
893.941	19426
894.064	19400
894.186	19175
894.308	19175
894.43	19297
894.552	19282
894.674	19384
894.796	19171
894.918	19217
895.04	19324
895.161	19343
895.283	19247
895.405	19251
895.526	19400
895.648	19148
895.769	19278
895.891	19255
896.012	19308
896.134	19350
896.255	19293
896.376	19304
896.498	19373
896.619	19316
896.74	19362
896.861	19400
896.982	19689
897.103	19685
897.224	19715
897.345	19548
897.466	19483
897.587	19765
897.708	19670
897.828	19609
897.949	19483
898.07	19354
898.19	19415
898.311	19567
898.431	19472
898.552	19571
898.672	19693
898.792	19586
898.913	19499
899.033	19411
899.153	19358
899.273	19244
899.393	19213
899.513	19331
899.633	19240
899.753	19270
899.873	19213
899.993	19377
900.113	19263
900.232	19244
900.352	19175
900.472	19168
900.591	18928
900.711	19099
900.83	18973
900.95	19175
901.069	19209
901.189	18973
901.308	18745
901.427	18722
901.546	18703
901.665	18703
901.784	18661
901.904	18509
902.023	18597
902.141	18167
902.26	18228
902.379	18239
902.498	18121
902.617	18133
902.735	18213
902.854	18136
902.973	18079
903.091	17855
903.21	17885
903.328	17779
903.446	17741
903.565	17638
903.683	17748
903.801	17547
903.919	17604
904.038	17585
904.156	17429
904.274	17562
904.392	17455
904.51	17455
904.627	17280
904.745	17452
904.863	17395
904.981	17216
905.098	17155
905.216	17041
905.334	17124
905.451	17090
905.569	17022
905.686	17178
905.803	17064
905.921	16892
906.038	16946
906.155	16740
906.272	16740
906.389	16717
906.506	16508
906.623	16542
906.74	16573
906.857	16436
906.974	16550
907.091	16565
907.208	16729
907.324	16649
907.441	16569
907.557	16329
907.674	16276
907.79	16234
907.907	16295
908.023	16310
908.139	16219
908.256	16219
908.372	16086
908.488	16150
908.604	16048
908.72	15915
908.836	15922
908.952	15918
909.068	16029
909.184	16010
909.3	15880
909.415	15876
909.531	15899
909.647	15705
909.762	15713
909.878	15641
909.993	15743
910.108	15660
910.224	15603
910.339	15553
910.454	15500
910.57	15507
910.685	15378
910.8	15603
910.915	15584
911.03	15462
911.145	15260
911.259	15298
911.374	15367
911.489	15237
911.604	15097
911.718	14963
911.833	14994
911.947	14887
912.062	14769
912.176	14952
912.291	14933
912.405	14990
912.519	15169
912.633	15169
912.748	14982
912.862	14963
912.976	14815
913.09	14750
913.204	14773
913.318	14769
913.431	14842
913.545	14830
913.659	14883
913.772	14823
913.886	14651
914	14655
914.113	14667
914.226	14754
914.34	14682
914.453	14499
914.566	14674
914.68	14514
914.793	14469
914.906	14309
915.019	14278
915.132	14180
915.245	14233
915.358	14256
915.47	14210
915.583	14286
915.696	14275
915.809	14366
915.921	14446
916.034	14229
916.146	14054
916.259	14176
916.371	14168
916.483	14088
916.595	14092
916.708	14103
916.82	13993
916.932	14081
917.044	14081
917.156	14088
917.268	13997
917.38	14043
917.491	13803
917.603	13917
917.715	14039
917.826	13928
917.938	13909
918.049	13757
918.161	13826
918.272	14035
918.384	14012
918.495	13814
918.606	13776
918.717	13647
918.828	13723
918.939	13700
919.05	13567
919.161	13594
919.272	13468
919.383	13578
919.494	13647
919.604	13799
919.715	13723
919.826	13563
919.936	13616
920.047	13620
920.157	13616
920.267	13780
920.378	13639
920.488	13548
920.598	13795
920.708	13932
920.818	13685
920.928	13731
921.038	13936
921.148	13902
921.258	13525
921.368	13518
921.477	13324
921.587	13255
921.697	13259
921.806	13407
921.916	13190
922.025	13042
922.134	13046
922.244	13031
922.353	13027
922.462	12924
922.571	12863
922.68	12688
922.789	12642
922.898	12707
923.007	12654
923.116	12620
923.224	12665
923.333	12662
923.442	12540
923.55	12479
923.659	12513
923.767	12650
923.876	12445
923.984	12532
924.092	12353
924.201	12471
924.309	12422
924.417	12380
924.525	12376
924.633	12376
924.741	13247
924.849	12163
924.956	12334
925.064	12140
925.172	12114
925.279	12167
925.387	12140
925.494	12201
925.602	12216
925.709	12148
925.816	12091
925.924	12175
926.031	12171
926.138	11992
926.245	12144
926.352	12026
926.459	12155
926.566	12106
926.673	11999
926.779	11832
926.886	11916
926.993	11722
927.099	11756
927.206	11748
927.312	11684
927.419	11722
927.525	11653
927.631	11779
927.737	11592
927.843	11592
927.95	11524
928.056	11532
928.162	11581
928.267	11630
928.373	12095
928.479	11585
928.585	11395
928.69	11455
928.796	11532
928.901	11425
929.007	11341
929.112	11421
929.218	11364
929.323	11280
929.428	11273
929.533	11372
929.638	11292
929.743	11303
929.848	11239
929.953	11189
930.058	11117
930.163	10923
930.267	11048
930.372	11197
930.477	10938
930.581	11181
930.685	10987
930.79	10915
930.894	10896
930.998	10847
931.103	10972
931.207	10603
931.311	10577
931.415	10451
931.519	10325
931.623	10238
