Data from test_V78500241_1080.txt Node
Date: Fri Mar 25 14:41:14 CST 2022
User: usil
Spectrometer: V785-0024
Trigger mode: 0
Integration Time (sec): 4.000000E-1
Scans to average: 1
Nonlinearity correction enabled: false
Boxcar width: 0
Storing dark spectrum: false
XAxis mode: Wavelengths
Number of Pixels in Spectrum: 1024
>>>>>Begin Spectral Data<<<<<
801.071	22755
801.214	22683
801.356	22478
801.499	22310
801.641	22135
801.783	22059
801.926	22131
802.068	21979
802.211	21941
802.353	21732
802.496	21625
802.638	21629
802.78	21656
802.923	21549
803.065	21507
803.208	21519
803.35	21408
803.492	21652
803.635	21641
803.777	21389
803.919	21629
804.061	21888
804.204	21629
804.346	21321
804.488	21374
804.63	21496
804.773	21313
804.915	21408
805.057	21469
805.199	21325
805.341	21488
805.483	21530
805.626	21469
805.768	21420
805.91	21507
806.052	21367
806.194	21325
806.336	21572
806.478	21580
806.62	21359
806.762	21519
806.904	21610
807.046	21915
807.188	21717
807.33	21827
807.472	21842
807.614	21808
807.756	21709
807.898	21701
808.04	21698
808.182	21759
808.324	21823
808.465	21918
808.607	22055
808.749	22173
808.891	22363
809.033	22436
809.174	22314
809.316	22181
809.458	22025
809.6	21956
809.741	21994
809.883	22010
810.025	22029
810.166	22162
810.308	22135
810.45	21945
810.591	21899
810.733	21705
810.875	21781
811.016	21500
811.158	21564
811.299	21713
811.441	21835
811.582	21774
811.724	21614
811.865	21663
812.007	21526
812.148	21644
812.29	21500
812.431	21903
812.573	21884
812.714	22051
812.855	22090
812.997	22086
813.138	22299
813.279	22143
813.421	22097
813.562	22074
813.703	21899
813.845	21743
813.986	21492
814.127	21252
814.268	21195
814.41	21294
814.551	21169
814.692	21081
814.833	21100
814.974	21085
815.115	21233
815.256	20975
815.397	20868
815.539	20937
815.68	20914
815.821	20720
815.962	20895
816.103	20811
816.244	20636
816.385	20648
816.526	20556
816.666	20404
816.807	20328
816.948	20298
817.089	20484
817.23	20313
817.371	20301
817.512	20278
817.653	20225
817.793	20183
817.934	20339
818.075	20347
818.216	20225
818.356	20195
818.497	20145
818.638	19875
818.778	19974
818.919	20054
819.06	20103
819.2	20039
819.341	20130
819.481	20164
819.622	20286
819.762	20549
819.903	20446
820.043	20339
820.184	20294
820.324	20259
820.465	20377
820.605	20370
820.746	20206
820.886	20081
821.026	20218
821.167	20210
821.307	20202
821.447	20122
821.588	20077
821.728	19947
821.868	19902
822.008	19693
822.149	19693
822.289	19594
822.429	19510
822.569	19415
822.709	19464
822.849	19099
822.99	19270
823.13	19179
823.27	19114
823.41	18935
823.55	18932
823.69	18985
823.83	18981
823.97	18962
824.11	18741
824.25	18779
824.389	18734
824.529	18840
824.669	18779
824.809	18821
824.949	18833
825.089	18901
825.228	18741
825.368	18604
825.508	18490
825.648	18570
825.787	18604
825.927	18566
826.067	18441
826.206	18372
826.346	18601
826.485	18528
826.625	18460
826.765	18578
826.904	18460
827.044	18342
827.183	18376
827.323	18163
827.462	18342
827.601	18194
827.741	18155
827.88	18262
828.02	18178
828.159	18174
828.298	18205
828.437	18277
828.577	18155
828.716	18369
828.855	18194
828.994	17996
829.134	18038
829.273	18003
829.412	17988
829.551	17851
829.69	17901
829.829	17988
829.968	18053
830.107	18026
830.246	18015
830.385	17901
830.524	17786
830.663	17710
830.802	17623
830.941	17619
831.08	17493
831.219	17589
831.357	17592
831.496	17767
831.635	17414
831.774	17505
831.913	17509
832.051	17398
832.19	17376
832.329	17379
832.467	17174
832.606	17360
832.744	17124
832.883	17258
833.022	17231
833.16	17315
833.299	17330
833.437	17318
833.576	17318
833.714	17277
833.852	17417
833.991	17360
834.129	17448
834.267	17376
834.406	17296
834.544	17429
834.682	17379
834.821	17406
834.959	17558
835.097	17322
835.235	17421
835.373	17387
835.511	17474
835.65	17326
835.788	17216
835.926	17025
836.064	17056
836.202	17128
836.34	17292
836.478	17292
836.615	17155
836.753	17318
836.891	17181
837.029	17337
837.167	17185
837.305	17105
837.443	17155
837.58	16949
837.718	17178
837.856	17079
837.993	16987
838.131	17242
838.269	16972
838.406	17048
838.544	16953
838.681	16828
838.819	16748
838.956	16599
839.094	16523
839.231	16672
839.369	16771
839.506	17048
839.643	16919
839.781	16653
839.918	16558
840.055	16626
840.193	16630
840.33	16535
840.467	16618
840.604	16797
840.742	16877
840.879	16527
841.016	16561
841.153	16436
841.29	16691
841.427	16558
841.564	16649
841.701	16573
841.838	16550
841.975	16561
842.112	16470
842.249	16398
842.385	16409
842.522	16485
842.659	16402
842.796	16356
842.933	16447
843.069	16379
843.206	16310
843.343	16493
843.479	16413
843.616	16344
843.752	16177
843.889	16147
844.025	16291
844.162	16200
844.298	16310
844.435	16200
844.571	16116
844.708	16310
844.844	16356
844.98	16295
845.117	16325
845.253	16192
845.389	16143
845.525	16158
845.661	16413
845.798	16356
845.934	16626
846.07	16615
846.206	16561
846.342	16558
846.478	16363
846.614	16112
846.75	15869
846.886	15854
847.022	15835
847.158	15869
847.294	15732
847.429	15766
847.565	15739
847.701	15960
847.837	15523
847.972	15458
848.108	15561
848.244	15591
848.379	15519
848.515	15344
848.65	15302
848.786	15401
848.921	15405
849.057	15378
849.192	15359
849.328	15370
849.463	15363
849.598	15294
849.734	15184
849.869	15241
850.004	15135
850.14	15157
850.275	15085
850.41	15093
850.545	15043
850.68	15173
850.815	15112
850.95	15085
851.085	15264
851.22	15211
851.355	15085
851.49	15085
851.625	15047
851.76	15142
851.895	15013
852.03	14967
852.165	15051
852.299	15154
852.434	15226
852.569	15142
852.703	15146
852.838	15211
852.973	15176
853.107	15241
853.242	15108
853.376	14887
853.511	14857
853.645	14883
853.78	15085
853.914	15043
854.048	14963
854.183	14948
854.317	14921
854.451	15135
854.585	14925
854.72	15020
854.854	14990
854.988	14804
855.122	14849
855.256	14845
855.39	14941
855.524	15017
855.658	15020
855.792	15020
855.926	15062
856.06	15043
856.194	15055
856.327	14975
856.461	14883
856.595	14906
856.729	14929
856.862	15051
856.996	14990
857.13	14956
857.263	15032
857.397	15074
857.53	14956
857.664	14998
857.797	15047
857.931	15077
858.064	14952
858.197	15093
858.331	14960
858.464	14796
858.597	14956
858.731	14944
858.864	14891
858.997	14921
859.13	14982
859.263	14979
859.396	15093
859.529	14902
859.662	14815
859.795	14910
859.928	14975
860.061	15062
860.194	15135
860.327	14963
860.46	14899
860.592	15077
860.725	15051
860.858	15081
860.99	14990
861.123	14880
861.256	14899
861.388	14933
861.521	15618
861.653	14895
861.786	14663
861.918	14754
862.05	14834
862.183	14967
862.315	14975
862.447	14956
862.58	14929
862.712	14739
862.844	14617
862.976	14724
863.108	14773
863.24	15135
863.372	14556
863.504	14765
863.636	14648
863.768	14777
863.9	14697
864.032	14678
864.164	14758
864.296	14716
864.428	14788
864.559	14785
864.691	14868
864.823	14792
864.954	14708
865.086	14712
865.217	14686
865.349	14659
865.48	14705
865.612	14834
865.743	14815
865.875	14701
866.006	14651
866.137	14705
866.269	14705
866.4	14621
866.531	14689
866.662	14720
866.793	14731
866.924	14632
867.055	14777
867.186	14613
867.317	14617
867.448	14602
867.579	14655
867.71	14545
867.841	14617
867.972	14739
868.103	14610
868.233	14750
868.364	14724
868.495	14777
868.625	14918
868.756	14963
868.886	14807
869.017	14883
869.147	14952
869.278	15013
869.408	15013
869.539	14937
869.669	15100
869.799	15051
869.929	15039
870.06	14990
870.19	15310
870.32	15176
870.45	15306
870.58	15264
870.71	15443
870.84	15408
870.97	15382
871.1	15321
871.23	15542
871.36	15572
871.489	15450
871.619	15553
871.749	15504
871.879	15564
872.008	15648
872.138	15545
872.267	15553
872.397	15496
872.526	15321
872.656	15291
872.785	15412
872.915	15557
873.044	15610
873.173	15526
873.303	15587
873.432	15530
873.561	15701
873.69	15564
873.819	15526
873.948	15629
874.077	15530
874.206	15599
874.335	15629
874.464	15705
874.593	15873
874.722	15751
874.851	15964
874.979	15857
875.108	15994
875.237	15915
875.365	15892
875.494	15922
875.623	15956
875.751	15869
875.88	15926
876.008	16044
876.136	16101
876.265	16299
876.393	16398
876.521	16390
876.65	16303
876.778	16386
876.906	16238
877.034	16238
877.162	16329
877.29	16268
877.418	16318
877.546	16352
877.674	16409
877.802	16405
877.93	16306
878.058	16249
878.185	16276
878.313	16325
878.441	16337
878.568	16333
878.696	16375
878.824	16466
878.951	16432
879.079	16596
879.206	16812
879.333	16725
879.461	16622
879.588	16664
879.715	16729
879.842	16812
879.97	16599
880.097	16379
880.224	16219
880.351	16348
880.478	16238
880.605	16276
880.732	16188
880.859	16489
880.986	16329
881.112	16291
881.239	16090
881.366	16006
881.493	15907
881.619	15899
881.746	15861
881.872	15892
881.999	15816
882.125	15762
882.252	15873
882.378	15968
882.505	16139
882.631	15827
882.757	15644
882.883	15686
883.01	15743
883.136	15660
883.262	15614
883.388	15557
883.514	15694
883.64	15705
883.766	15644
883.892	15389
884.018	15526
884.143	15644
884.269	15789
884.395	15504
884.52	15367
884.646	15500
884.772	15241
884.897	15260
885.023	15306
885.148	15519
885.274	15515
885.399	15443
885.524	15435
885.65	15408
885.775	15386
885.9	15348
886.025	15435
886.15	15458
886.275	15340
886.4	15283
886.525	15279
886.65	15287
886.775	15283
886.9	15473
887.025	15507
887.149	15389
887.274	15207
887.399	15112
887.523	15127
887.648	15097
887.773	15138
887.897	15272
888.021	15249
888.146	15020
888.27	15146
888.395	15199
888.519	15188
888.643	15203
888.767	15260
888.891	15146
889.015	15005
889.139	15047
889.263	15032
889.387	15138
889.511	15119
889.635	15119
889.759	14960
889.883	15005
890.006	15047
890.13	15081
890.254	14910
890.377	14895
890.501	14815
890.624	14769
890.748	14872
890.871	14762
890.995	14739
891.118	14659
891.241	14777
891.364	14712
891.488	14777
891.611	14712
891.734	14655
891.857	14777
891.98	14762
892.103	14807
892.226	14667
892.349	14651
892.471	14511
892.594	14689
892.717	14667
892.839	14739
892.962	14621
893.085	14754
893.207	14678
893.33	14575
893.452	14629
893.575	14663
893.697	14697
893.819	14800
893.941	14842
894.064	14834
894.186	14632
894.308	14648
894.43	14773
894.552	14918
894.674	14842
894.796	14716
894.918	14682
895.04	14670
895.161	14800
895.283	14754
895.405	14754
895.526	14762
895.648	14731
895.769	14823
895.891	14906
896.012	14853
896.134	14758
896.255	14876
896.376	14842
896.498	14823
896.619	14826
896.74	14804
896.861	14910
896.982	15192
897.103	15192
897.224	15150
897.345	15142
897.466	14998
897.587	15127
897.708	15165
897.828	15051
897.949	15028
898.07	15058
898.19	15074
898.311	15131
898.431	15043
898.552	15176
898.672	15207
898.792	15165
898.913	15165
899.033	15108
899.153	15020
899.273	14910
899.393	14918
899.513	15058
899.633	14956
899.753	15100
899.873	15055
899.993	15005
900.113	14979
900.232	14998
900.352	14941
900.472	14902
900.591	14826
900.711	14845
900.83	14857
900.95	15047
901.069	15047
901.189	14849
901.308	14739
901.427	14419
901.546	14469
901.665	14552
901.784	14613
901.904	14457
902.023	14332
902.141	14195
902.26	14172
902.379	14191
902.498	14035
902.617	13967
902.735	14084
902.854	14065
902.973	14084
903.091	13833
903.21	13871
903.328	13769
903.446	13734
903.565	13639
903.683	13696
903.801	13518
903.919	13662
904.038	13628
904.156	13487
904.274	13499
904.392	13468
904.51	13422
904.627	13453
904.745	13483
904.863	13499
904.981	13282
905.098	13118
905.216	13217
905.334	13141
905.451	13149
905.569	13091
905.686	13156
905.803	13171
905.921	12875
906.038	12981
906.155	12977
906.272	12871
906.389	12878
906.506	12776
906.623	12764
906.74	12764
906.857	12620
906.974	12639
907.091	12779
907.208	12867
907.324	12772
907.441	12597
907.557	12528
907.674	12498
907.79	12395
907.907	12395
908.023	12464
908.139	12445
908.256	12498
908.372	12407
908.488	12399
908.604	12277
908.72	12201
908.836	12262
908.952	12266
909.068	12262
909.184	12346
909.3	12197
909.415	12262
909.531	12258
909.647	11961
909.762	12041
909.878	11958
909.993	11980
910.108	12049
910.224	11950
910.339	12057
910.454	11859
910.57	11916
910.685	11775
910.8	12034
910.915	12007
911.03	11840
911.145	11710
911.259	11722
911.374	11646
911.489	11676
911.604	11547
911.718	11429
911.833	11448
911.947	11337
912.062	11288
912.176	11452
912.291	11452
912.405	11429
912.519	11604
912.633	11661
912.748	11448
912.862	11436
912.976	11299
913.09	11185
913.204	11296
913.318	11391
913.431	11379
913.545	11326
913.659	11387
913.772	11284
913.886	11223
914	11143
914.113	11280
914.226	11280
914.34	11174
914.453	11170
914.566	11277
914.68	11143
914.793	11174
914.906	10934
915.019	10885
915.132	10873
915.245	10965
915.358	10835
915.47	10877
915.583	11010
915.696	10957
915.809	11075
915.921	11018
916.034	10934
916.146	10839
916.259	10816
916.371	11006
916.483	10911
916.595	10782
916.708	10869
916.82	10900
916.932	10828
917.044	10771
917.156	10774
917.268	10714
917.38	10725
917.491	10683
917.603	10744
917.715	10786
917.826	10854
917.938	10714
918.049	10592
918.161	10752
918.272	10892
918.384	10831
918.495	10744
918.606	10596
918.717	10512
918.828	10588
918.939	10618
919.05	10497
919.161	10611
919.272	10360
919.383	10481
919.494	10656
919.604	10809
919.715	10592
919.826	10421
919.936	10615
920.047	10706
920.157	10592
920.267	10774
920.378	10694
920.488	10622
920.598	10831
920.708	10881
920.818	10831
920.928	10812
921.038	10957
921.148	10866
921.258	10615
921.368	10615
921.477	10489
921.587	10379
921.697	10284
921.806	10481
921.916	10405
922.025	10166
922.134	10223
922.244	10071
922.353	10166
922.462	10185
922.571	9968
922.68	9895
922.789	9838
922.898	9888
923.007	9838
923.116	9850
923.224	9819
923.333	9747
923.442	9736
923.55	9759
923.659	9804
923.767	9759
923.876	9732
923.984	9770
924.092	9610
924.201	9732
924.309	9599
924.417	9728
924.525	9622
924.633	9622
924.741	10489
924.849	9450
924.956	9682
925.064	9420
925.172	9401
925.279	9416
925.387	9420
925.494	9462
925.602	9568
925.709	9580
925.816	9466
925.924	9458
926.031	9580
926.138	9447
926.245	9519
926.352	9405
926.459	9496
926.566	9660
926.673	9393
926.779	9325
926.886	9279
926.993	9123
927.099	9169
927.206	9176
927.312	9188
927.419	9268
927.525	9169
927.631	9203
927.737	9097
927.843	9039
927.95	8971
928.056	9036
928.162	9104
928.267	9104
928.373	9728
928.479	9142
928.585	8948
928.69	9039
928.796	9066
928.901	9077
929.007	8857
929.112	9001
929.218	8986
929.323	8914
929.428	8899
929.533	9001
929.638	8762
929.743	8872
929.848	8872
929.953	8906
930.058	8830
930.163	8629
930.267	8689
930.372	8788
930.477	8644
930.581	8853
930.685	8682
930.79	8526
930.894	8606
930.998	8568
931.103	8712
931.207	8404
931.311	8282
931.415	8271
931.519	8084
931.623	8073
