Data from test_V78500241_2709.txt Node
Date: Fri Mar 25 14:52:34 CST 2022
User: usil
Spectrometer: V785-0024
Trigger mode: 0
Integration Time (sec): 4.000000E-1
Scans to average: 1
Nonlinearity correction enabled: false
Boxcar width: 0
Storing dark spectrum: false
XAxis mode: Wavelengths
Number of Pixels in Spectrum: 1024
>>>>>Begin Spectral Data<<<<<
801.071	21937
801.214	21869
801.356	21682
801.499	21549
801.641	21511
801.783	21203
801.926	21367
802.068	21169
802.211	21195
802.353	21180
802.496	20982
802.638	21005
802.78	20804
802.923	20689
803.065	20705
803.208	20689
803.35	20826
803.492	20872
803.635	20891
803.777	20674
803.919	20792
804.061	21036
804.204	20716
804.346	20708
804.488	20545
804.63	20682
804.773	20568
804.915	20693
805.057	20731
805.199	20503
805.341	20663
805.483	20845
805.626	20762
805.768	20602
805.91	20712
806.052	20568
806.194	20602
806.336	20678
806.478	20670
806.62	20598
806.762	20686
806.904	20861
807.046	20952
807.188	20994
807.33	20944
807.472	20994
807.614	20815
807.756	20834
807.898	20686
808.04	20640
808.182	20602
808.324	20674
808.465	20754
808.607	21039
808.749	21070
808.891	21047
809.033	21116
809.174	21085
809.316	20941
809.458	21055
809.6	20868
809.741	21028
809.883	20971
810.025	21089
810.166	21089
810.308	21096
810.45	21074
810.591	21123
810.733	20785
810.875	20754
811.016	20655
811.158	20621
811.299	20918
811.441	20819
811.582	20796
811.724	20838
811.865	20811
812.007	20743
812.148	20667
812.29	20781
812.431	20830
812.573	21226
812.714	21211
812.855	21272
812.997	21272
813.138	21435
813.279	21355
813.421	21256
813.562	21180
813.703	21036
813.845	20956
813.986	20556
814.127	20225
814.268	20412
814.41	20267
814.551	20385
814.692	20347
814.833	20317
814.974	20149
815.115	20252
815.256	20210
815.397	20206
815.539	20115
815.68	19986
815.821	19909
815.962	20012
816.103	19993
816.244	19864
816.385	19753
816.526	19772
816.666	19651
816.807	19453
816.948	19518
817.089	19578
817.23	19472
817.371	19407
817.512	19434
817.653	19377
817.793	19316
817.934	19327
818.075	19605
818.216	19369
818.356	19358
818.497	19183
818.638	18996
818.778	19072
818.919	19126
819.06	19042
819.2	19202
819.341	19304
819.481	19350
819.622	19518
819.762	19594
819.903	19578
820.043	19407
820.184	19422
820.324	19422
820.465	19316
820.605	19411
820.746	19327
820.886	19282
821.026	19415
821.167	19464
821.307	19411
821.447	19396
821.588	19274
821.728	19118
821.868	18928
822.008	18791
822.149	18776
822.289	18897
822.429	18608
822.569	18525
822.709	18475
822.849	18285
822.99	18437
823.13	18262
823.27	18384
823.41	18174
823.55	17992
823.69	18140
823.83	18243
823.97	18064
824.11	17942
824.25	17866
824.389	18022
824.529	18022
824.669	17889
824.809	18026
824.949	17977
825.089	17973
825.228	17885
825.368	17714
825.508	17741
825.648	17752
825.787	17904
825.927	17783
826.067	17691
826.206	17646
826.346	17687
826.485	17680
826.625	17653
826.765	17859
826.904	17699
827.044	17421
827.183	17341
827.323	17452
827.462	17497
827.601	17318
827.741	17360
827.88	17433
828.02	17307
828.159	17353
828.298	17379
828.437	17478
828.577	17436
828.716	17547
828.855	17318
828.994	17174
829.134	17136
829.273	17128
829.412	17060
829.551	17174
829.69	17159
829.829	17242
829.968	17223
830.107	17185
830.246	17265
830.385	17079
830.524	17022
830.663	16892
830.802	16885
830.941	16710
831.08	16850
831.219	16839
831.357	16866
831.496	17056
831.635	16786
831.774	16801
831.913	16653
832.051	16550
832.19	16546
832.329	16630
832.467	16706
832.606	16504
832.744	16462
832.883	16519
833.022	16428
833.16	16436
833.299	16573
833.437	16527
833.576	16466
833.714	16584
833.852	16519
833.991	16615
834.129	16641
834.267	16565
834.406	16470
834.544	16561
834.682	16596
834.821	16561
834.959	16660
835.097	16546
835.235	16653
835.373	16508
835.511	16565
835.65	16481
835.788	16459
835.926	16333
836.064	16219
836.202	16207
836.34	16348
836.478	16516
836.615	16478
836.753	16440
836.891	16432
837.029	16440
837.167	16371
837.305	16356
837.443	16379
837.58	16314
837.718	16409
837.856	16333
837.993	16246
838.131	16284
838.269	16143
838.406	16318
838.544	16207
838.681	16055
838.819	15975
838.956	15781
839.094	15808
839.231	15998
839.369	16010
839.506	16185
839.643	16078
839.781	15941
839.918	15831
840.055	15823
840.193	15930
840.33	15835
840.467	15907
840.604	15903
840.742	16139
840.879	15633
841.016	15781
841.153	15671
841.29	16051
841.427	15865
841.564	15808
841.701	15922
841.838	15960
841.975	15637
842.112	15663
842.249	15728
842.385	15682
842.522	15892
842.659	15701
842.796	15591
842.933	15644
843.069	15595
843.206	15591
843.343	15720
843.479	15644
843.616	15766
843.752	15473
843.889	15481
844.025	15610
844.162	15447
844.298	15591
844.435	15469
844.571	15420
844.708	15526
844.844	15580
844.98	15542
845.117	15492
845.253	15378
845.389	15310
845.525	15408
845.661	15264
845.798	15268
845.934	15252
846.07	15157
846.206	15287
846.342	15317
846.478	15237
846.614	15058
846.75	14960
846.886	15005
847.022	15028
847.158	15173
847.294	14998
847.429	15024
847.565	15013
847.701	15283
847.837	14937
847.972	14731
848.108	14910
848.244	14845
848.379	14663
848.515	14651
848.65	14590
848.786	14556
848.921	14746
849.057	14815
849.192	14739
849.328	14682
849.463	14670
849.598	14488
849.734	14564
849.869	14434
850.004	14313
850.14	14423
850.275	14457
850.41	14259
850.545	14408
850.68	14393
850.815	14366
850.95	14305
851.085	14556
851.22	14484
851.355	14396
851.49	14237
851.625	14374
851.76	14389
851.895	14278
852.03	14210
852.165	14301
852.299	14366
852.434	14495
852.569	14454
852.703	14514
852.838	14427
852.973	14507
853.107	14518
853.242	14256
853.376	14339
853.511	14180
853.645	14199
853.78	14351
853.914	14233
854.048	14206
854.183	14191
854.317	14187
854.451	14499
854.585	14244
854.72	14187
854.854	14347
854.988	14183
855.122	14271
855.256	14115
855.39	14263
855.524	14324
855.658	14282
855.792	14263
855.926	14362
856.06	14210
856.194	14446
856.327	14282
856.461	14233
856.595	14187
856.729	14149
856.862	14339
856.996	14324
857.13	14199
857.263	14324
857.397	14377
857.53	14233
857.664	14252
857.797	14351
857.931	14396
858.064	14347
858.197	14259
858.331	14195
858.464	14138
858.597	14043
858.731	14202
858.864	14244
858.997	14202
859.13	14362
859.263	14343
859.396	14454
859.529	14176
859.662	14229
859.795	14199
859.928	14305
860.061	14377
860.194	14362
860.327	14248
860.46	14256
860.592	14408
860.725	14385
860.858	14431
860.99	14199
861.123	14320
861.256	14134
861.388	14328
861.521	14823
861.653	14115
861.786	14142
861.918	14100
862.05	14195
862.183	14259
862.315	14180
862.447	14180
862.58	14248
862.712	13978
862.844	13875
862.976	14180
863.108	14096
863.24	14454
863.372	13909
863.504	14024
863.636	14062
863.768	14039
863.9	14001
864.032	13944
864.164	13978
864.296	14092
864.428	14107
864.559	14161
864.691	14191
864.823	14115
864.954	14149
865.086	14043
865.217	13970
865.349	13974
865.48	14039
865.612	14016
865.743	14130
865.875	14031
866.006	13955
866.137	13944
866.269	13986
866.4	14031
866.531	13986
866.662	13932
866.793	13902
866.924	14100
867.055	14046
867.186	13902
867.317	13951
867.448	14039
867.579	14050
867.71	13913
867.841	13902
867.972	13963
868.103	13856
868.233	14020
868.364	13997
868.495	14016
868.625	14263
868.756	14423
868.886	14183
869.017	14172
869.147	14461
869.278	14461
869.408	14252
869.539	14244
869.669	14343
869.799	14275
869.929	14309
870.06	14434
870.19	14533
870.32	14552
870.45	14625
870.58	14606
870.71	14788
870.84	14731
870.97	14648
871.1	14549
871.23	14845
871.36	14845
871.489	14720
871.619	14823
871.749	14891
871.879	14899
872.008	15009
872.138	14876
872.267	14800
872.397	14705
872.526	14758
872.656	14705
872.785	14625
872.915	14887
873.044	14967
873.173	14921
873.303	14971
873.432	15066
873.561	14960
873.69	14853
873.819	14944
873.948	14933
874.077	14902
874.206	14853
874.335	15032
874.464	15100
874.593	15207
874.722	15146
874.851	15306
874.979	15176
875.108	15233
875.237	15226
875.365	15093
875.494	15192
875.623	15230
875.751	15100
875.88	15355
876.008	15332
876.136	15370
876.265	15622
876.393	15800
876.521	15762
876.65	15755
876.778	15660
876.906	15614
877.034	15595
877.162	15622
877.29	15568
877.418	15690
877.546	15606
877.674	15690
877.802	15709
877.93	15595
878.058	15580
878.185	15625
878.313	15652
878.441	15663
878.568	15549
878.696	15564
878.824	15686
878.951	15709
879.079	15854
879.206	15983
879.333	15869
879.461	15732
879.588	15793
879.715	15781
879.842	15827
879.97	15736
880.097	15496
880.224	15504
880.351	15507
880.478	15454
880.605	15507
880.732	15428
880.859	15705
880.986	15507
881.112	15534
881.239	15488
881.366	15192
881.493	15089
881.619	15203
881.746	15180
881.872	15161
881.999	15104
882.125	15093
882.252	15146
882.378	15081
882.505	15233
882.631	15085
882.757	14994
882.883	14933
883.01	14853
883.136	14891
883.262	14830
883.388	14819
883.514	15043
883.64	15032
883.766	14823
883.892	14769
884.018	14853
884.143	14899
884.269	14925
884.395	14731
884.52	14644
884.646	14682
884.772	14602
884.897	14629
885.023	14716
885.148	14754
885.274	14743
885.399	14746
885.524	14712
885.65	14644
885.775	14758
885.9	14625
886.025	14785
886.15	14735
886.275	14629
886.4	14613
886.525	14648
886.65	14556
886.775	14533
886.9	14788
887.025	14914
887.149	14678
887.274	14469
887.399	14484
887.523	14587
887.648	14347
887.773	14393
887.897	14457
888.021	14568
888.146	14552
888.27	14632
888.395	14632
888.519	14545
888.643	14465
888.767	14530
888.891	14427
889.015	14309
889.139	14404
889.263	14461
889.387	14564
889.511	14564
889.635	14450
889.759	14305
889.883	14294
890.006	14419
890.13	14503
890.254	14191
890.377	14355
890.501	14206
890.624	14187
890.748	14248
890.871	14138
890.995	14050
891.118	14012
891.241	14126
891.364	14149
891.488	14164
891.611	13997
891.734	14081
891.857	14092
891.98	14100
892.103	14126
892.226	14111
892.349	14100
892.471	13955
892.594	14027
892.717	14130
892.839	14088
892.962	14077
893.085	14199
893.207	14084
893.33	13959
893.452	13898
893.575	14050
893.697	13986
893.819	14221
893.941	14332
894.064	14275
894.186	14016
894.308	13993
894.43	14229
894.552	14309
894.674	14256
894.796	14153
894.918	14050
895.04	14065
895.161	14233
895.283	14210
895.405	14062
895.526	14103
895.648	14183
895.769	14313
895.891	14237
896.012	14320
896.134	14218
896.255	14218
896.376	14202
896.498	14183
896.619	14275
896.74	14172
896.861	14313
896.982	14549
897.103	14693
897.224	14446
897.345	14530
897.466	14461
897.587	14404
897.708	14640
897.828	14503
897.949	14408
898.07	14408
898.19	14450
898.311	14625
898.431	14533
898.552	14625
898.672	14670
898.792	14731
898.913	14579
899.033	14522
899.153	14454
899.273	14320
899.393	14305
899.513	14396
899.633	14530
899.753	14450
899.873	14431
899.993	14442
900.113	14412
900.232	14476
900.352	14476
900.472	14248
900.591	14282
900.711	14298
900.83	14225
900.95	14336
901.069	14408
901.189	14240
901.308	14077
901.427	13967
901.546	14024
901.665	14005
901.784	14069
901.904	13902
902.023	13837
902.141	13582
902.26	13559
902.379	13647
902.498	13540
902.617	13521
902.735	13518
902.854	13483
902.973	13552
903.091	13369
903.21	13285
903.328	13194
903.446	13194
903.565	13072
903.683	13038
903.801	12932
903.919	13004
904.038	13129
904.156	12924
904.274	13023
904.392	12916
904.51	12958
904.627	12935
904.745	13034
904.863	12947
904.981	12688
905.098	12612
905.216	12601
905.334	12635
905.451	12665
905.569	12620
905.686	12684
905.803	12597
905.921	12490
906.038	12540
906.155	12464
906.272	12315
906.389	12395
906.506	12296
906.623	12220
906.74	12235
906.857	12117
906.974	12155
907.091	12254
907.208	12334
907.324	12228
907.441	12136
907.557	12041
907.674	11920
907.79	11920
907.907	11836
908.023	12053
908.139	12026
908.256	11950
908.372	11923
908.488	11817
908.604	11699
908.72	11699
908.836	11745
908.952	11623
909.068	11718
909.184	11809
909.3	11767
909.415	11802
909.531	11733
909.647	11562
909.762	11543
909.878	11497
909.993	11558
910.108	11444
910.224	11482
910.339	11467
910.454	11379
910.57	11303
910.685	11334
910.8	11520
910.915	11615
911.03	11406
911.145	11208
911.259	11147
911.374	11109
911.489	11083
911.604	11155
911.718	10892
911.833	10908
911.947	10873
912.062	10858
912.176	10953
912.291	10930
912.405	10980
912.519	11090
912.633	11220
912.748	11018
912.862	11006
912.976	10858
913.09	10706
913.204	10778
913.318	10809
913.431	10866
913.545	10938
913.659	10965
913.772	10828
913.886	10725
914	10740
914.113	10793
914.226	10900
914.34	10790
914.453	10607
914.566	10816
914.68	10714
914.793	10554
914.906	10497
915.019	10447
915.132	10390
915.245	10310
915.358	10497
915.47	10462
915.583	10474
915.696	10436
915.809	10569
915.921	10603
916.034	10447
916.146	10360
916.259	10375
916.371	10474
916.483	10440
916.595	10371
916.708	10474
916.82	10318
916.932	10382
917.044	10386
917.156	10367
917.268	10303
917.38	10310
917.491	10185
917.603	10287
917.715	10428
917.826	10421
917.938	10348
918.049	10192
918.161	10276
918.272	10382
918.384	10363
918.495	10261
918.606	10162
918.717	10105
918.828	10227
918.939	10154
919.05	10097
919.161	10143
919.272	9975
919.383	9994
919.494	10192
919.604	10390
919.715	10181
919.826	10181
919.936	10135
920.047	10314
920.157	10242
920.267	10356
920.378	10257
920.488	10238
920.598	10398
920.708	10527
920.818	10363
920.928	10405
921.038	10550
921.148	10531
921.258	10188
921.368	10196
921.477	10105
921.587	10021
921.697	9953
921.806	10097
921.916	9937
922.025	9789
922.134	9751
922.244	9724
922.353	9766
922.462	9648
922.571	9599
922.68	9504
922.789	9367
922.898	9408
923.007	9401
923.116	9511
923.224	9424
923.333	9439
923.442	9294
923.55	9321
923.659	9348
923.767	9416
923.876	9260
923.984	9382
924.092	9214
924.201	9245
924.309	9313
924.417	9351
924.525	9310
924.633	9218
924.741	9949
924.849	9100
924.956	9233
925.064	9131
925.172	8975
925.279	9043
925.387	9047
925.494	9074
925.602	9264
925.709	9275
925.816	9005
925.924	9127
926.031	9142
926.138	9066
926.245	9142
926.352	9028
926.459	9157
926.566	9138
926.673	9058
926.779	8929
926.886	8937
926.993	8853
927.099	8838
927.206	8815
927.312	8727
927.419	8880
927.525	8823
927.631	8906
927.737	8701
927.843	8697
927.95	8571
928.056	8674
928.162	8678
928.267	8689
928.373	9336
928.479	8849
928.585	8541
928.69	8659
928.796	8701
928.901	8621
929.007	8473
929.112	8648
929.218	8602
929.323	8549
929.428	8503
929.533	8724
929.638	8484
929.743	8454
929.848	8613
929.953	8541
930.058	8465
930.163	8237
930.267	8412
930.372	8423
930.477	8225
930.581	8522
930.685	8423
930.79	8202
930.894	8301
930.998	8240
931.103	8393
931.207	8001
931.311	7997
931.415	7932
931.519	7753
931.623	7780
