Data from test_V78500241_95.txt Node
Date: Fri Mar 25 14:34:23 CST 2022
User: usil
Spectrometer: V785-0024
Trigger mode: 0
Integration Time (sec): 4.000000E-1
Scans to average: 1
Nonlinearity correction enabled: false
Boxcar width: 0
Storing dark spectrum: false
XAxis mode: Wavelengths
Number of Pixels in Spectrum: 1024
>>>>>Begin Spectral Data<<<<<
801.071	28934
801.214	28812
801.356	28668
801.499	28588
801.641	28459
801.783	28413
801.926	28440
802.068	28413
802.211	28234
802.353	28329
802.496	28116
802.638	27956
802.78	27960
802.923	27907
803.065	27892
803.208	27797
803.35	28063
803.492	28029
803.635	28139
803.777	27918
803.919	28078
804.061	28421
804.204	28188
804.346	27934
804.488	27838
804.63	27876
804.773	27926
804.915	27956
805.057	28135
805.199	28025
805.341	28105
805.483	28322
805.626	28310
805.768	28090
805.91	28154
806.052	28204
806.194	28036
806.336	28371
806.478	28147
806.62	28238
806.762	28284
806.904	28504
807.046	28801
807.188	28656
807.33	28664
807.472	28725
807.614	28774
807.756	28698
807.898	28752
808.04	28744
808.182	28801
808.324	29208
808.465	29311
808.607	29752
808.749	29969
808.891	30167
809.033	30197
809.174	29935
809.316	29771
809.458	29562
809.6	29261
809.741	29284
809.883	29003
810.025	29284
810.166	29239
810.308	29018
810.45	29033
810.591	28839
810.733	28717
810.875	28596
811.016	28516
811.158	28519
811.299	28748
811.441	28793
811.582	28672
811.724	28599
811.865	28451
812.007	28607
812.148	28622
812.29	28489
812.431	28683
812.573	28850
812.714	28953
812.855	29003
812.997	29143
813.138	29383
813.279	29124
813.421	29212
813.562	29018
813.703	28809
813.845	28717
813.986	28394
814.127	28287
814.268	28162
814.41	28124
814.551	27979
814.692	28131
814.833	27880
814.974	27998
815.115	27937
815.256	28036
815.397	27945
815.539	27861
815.68	27831
815.821	27736
815.962	27778
816.103	27770
816.244	27564
816.385	27519
816.526	27329
816.666	27317
816.807	27093
816.948	27222
817.089	27317
817.23	27203
817.371	27192
817.512	27077
817.653	27131
817.793	27184
817.934	27184
818.075	27256
818.216	27192
818.356	27116
818.497	27077
818.638	26769
818.778	26883
818.919	26788
819.06	26895
819.2	27013
819.341	27135
819.481	27058
819.622	27188
819.762	27363
819.903	27397
820.043	27237
820.184	27218
820.324	27150
820.465	27188
820.605	27283
820.746	27142
820.886	27089
821.026	27085
821.167	27062
821.307	26975
821.447	26990
821.588	26956
821.728	26834
821.868	26530
822.008	26541
822.149	26461
822.289	26450
822.429	26305
822.569	26221
822.709	26138
822.849	26024
822.99	25970
823.13	25795
823.27	25807
823.41	25693
823.55	25605
823.69	25715
823.83	25696
823.97	25689
824.11	25556
824.25	25403
824.389	25457
824.529	25571
824.669	25419
824.809	25518
824.949	25556
825.089	25559
825.228	25495
825.368	25255
825.508	25202
825.648	25255
825.787	25259
825.927	25346
826.067	25247
826.206	25274
826.346	25343
826.485	25327
826.625	25221
826.765	25354
826.904	25206
827.044	24916
827.183	24951
827.323	24935
827.462	25023
827.601	24977
827.741	24916
827.88	24859
828.02	24772
828.159	24886
828.298	24886
828.437	24932
828.577	24798
828.716	25107
828.855	24859
828.994	24627
829.134	24646
829.273	24673
829.412	24475
829.551	24486
829.69	24498
829.829	24684
829.968	24692
830.107	24570
830.246	24589
830.385	24403
830.524	24513
830.663	24384
830.802	24247
830.941	24148
831.08	24148
831.219	24182
831.357	24353
831.496	24182
831.635	24117
831.774	24068
831.913	24060
832.051	23904
832.19	23920
832.329	23847
832.467	23821
832.606	23764
832.744	23737
832.883	23756
833.022	23790
833.16	23779
833.299	23771
833.437	23737
833.576	23927
833.714	23889
833.852	23908
833.991	23866
834.129	24095
834.267	23885
834.406	23851
834.544	23889
834.682	23821
834.821	23722
834.959	24015
835.097	23729
835.235	23878
835.373	23680
835.511	23687
835.65	23554
835.788	23604
835.926	23402
836.064	23372
836.202	23353
836.34	23516
836.478	23657
836.615	23615
836.753	23596
836.891	23619
837.029	23604
837.167	23364
837.305	23448
837.443	23322
837.58	23341
837.718	23509
837.856	23356
837.993	23364
838.131	23467
838.269	23239
838.406	23261
838.544	23250
838.681	23044
838.819	23086
838.956	22850
839.094	22801
839.231	22915
839.369	22938
839.506	23132
839.643	23037
839.781	22797
839.918	22698
840.055	22752
840.193	22687
840.33	22706
840.467	22725
840.604	22672
840.742	22927
840.879	22554
841.016	22672
841.153	22550
841.29	22805
841.427	22721
841.564	22687
841.701	22641
841.838	22679
841.975	22618
842.112	22462
842.249	22527
842.385	22413
842.522	22573
842.659	22402
842.796	22421
842.933	22443
843.069	22223
843.206	22337
843.343	22500
843.479	22493
843.616	22356
843.752	22299
843.889	22200
844.025	22181
844.162	22185
844.298	22276
844.435	22196
844.571	22173
844.708	22059
844.844	22356
844.98	22405
845.117	22371
845.253	22246
845.389	22116
845.525	22561
845.661	22908
845.798	23090
845.934	23505
846.07	23512
846.206	23604
846.342	23368
846.478	22862
846.614	22310
846.75	21968
846.886	21800
847.022	21895
847.158	21785
847.294	21679
847.429	21656
847.565	21568
847.701	21766
847.837	21317
847.972	21203
848.108	21374
848.244	21329
848.379	21230
848.515	21192
848.65	21112
848.786	21169
848.921	21077
849.057	21218
849.192	21116
849.328	21055
849.463	21112
849.598	21032
849.734	20990
849.869	20937
850.004	20876
850.14	20826
850.275	20743
850.41	20705
850.545	20845
850.68	20785
850.815	20754
850.95	20811
851.085	20944
851.22	20880
851.355	20773
851.49	20758
851.625	20762
851.76	20712
851.895	20743
852.03	20674
852.165	20792
852.299	20842
852.434	20864
852.569	20906
852.703	20724
852.838	20902
852.973	20914
853.107	20887
853.242	20689
853.376	20609
853.511	20461
853.645	20640
853.78	20629
853.914	20587
854.048	20590
854.183	20663
854.317	20705
854.451	20838
854.585	20606
854.72	20598
854.854	20678
854.988	20541
855.122	20670
855.256	20514
855.39	20648
855.524	20655
855.658	20556
855.792	20442
855.926	20636
856.06	20636
856.194	20773
856.327	20636
856.461	20495
856.595	20552
856.729	20537
856.862	20724
856.996	20621
857.13	20629
857.263	20667
857.397	20663
857.53	20568
857.664	20632
857.797	20571
857.931	20655
858.064	20571
858.197	20503
858.331	20533
858.464	20537
858.597	20450
858.731	20514
858.864	20473
858.997	20450
859.13	20495
859.263	20541
859.396	20537
859.529	20568
859.662	20419
859.795	20488
859.928	20560
860.061	20648
860.194	20739
860.327	20522
860.46	20450
860.592	20579
860.725	20590
860.858	20568
860.99	20526
861.123	20457
861.256	20336
861.388	20427
861.521	21203
861.653	20294
861.786	20450
861.918	20347
862.05	20450
862.183	20526
862.315	20499
862.447	20621
862.58	20609
862.712	20305
862.844	20176
862.976	20374
863.108	20324
863.24	20617
863.372	20145
863.504	20130
863.636	20229
863.768	20271
863.9	20183
864.032	20069
864.164	20195
864.296	20248
864.428	20237
864.559	20275
864.691	20107
864.823	20195
864.954	20195
865.086	20138
865.217	20115
865.349	20024
865.48	20115
865.612	20096
865.743	20161
865.875	20103
866.006	20077
866.137	20149
866.269	20035
866.4	20065
866.531	19944
866.662	19951
866.793	20058
866.924	19932
867.055	19997
867.186	19913
867.317	19978
867.448	19967
867.579	19955
867.71	19951
867.841	19967
867.972	19974
868.103	20050
868.233	20084
868.364	20005
868.495	20073
868.625	20259
868.756	20328
868.886	20138
869.017	20240
869.147	20275
869.278	20377
869.408	20225
869.539	20259
869.669	20377
869.799	20248
869.929	20366
870.06	20385
870.19	20454
870.32	20434
870.45	20518
870.58	20594
870.71	20674
870.84	20701
870.97	20590
871.1	20629
871.23	20804
871.36	20895
871.489	20743
871.619	20857
871.749	20826
871.879	20857
872.008	20941
872.138	20864
872.267	20880
872.397	20754
872.526	20621
872.656	20587
872.785	20739
872.915	20708
873.044	20864
873.173	20929
873.303	20933
873.432	20952
873.561	20952
873.69	20887
873.819	20994
873.948	21085
874.077	20929
874.206	20823
874.335	20937
874.464	21032
874.593	21108
874.722	21058
874.851	21093
874.979	21169
875.108	21230
875.237	21169
875.365	21039
875.494	21192
875.623	21222
875.751	21123
875.88	21173
876.008	21325
876.136	21382
876.265	21580
876.393	21797
876.521	21800
876.65	21591
876.778	21504
876.906	21534
877.034	21504
877.162	21469
877.29	21557
877.418	21530
877.546	21618
877.674	21603
877.802	21545
877.93	21599
878.058	21420
878.185	21564
878.313	21641
878.441	21538
878.568	21545
878.696	21686
878.824	21679
878.951	21823
879.079	22105
879.206	22173
879.333	22299
879.461	22352
879.588	22554
879.715	22546
879.842	22500
879.97	22276
880.097	21941
880.224	21850
880.351	21705
880.478	21595
880.605	21523
880.732	21545
880.859	21800
880.986	21568
881.112	21526
881.239	21492
881.366	21507
881.493	21302
881.619	21116
881.746	21287
881.872	21135
881.999	21017
882.125	21089
882.252	21207
882.378	21047
882.505	21306
882.631	21127
882.757	20929
882.883	21001
883.01	20952
883.136	20823
883.262	20804
883.388	20727
883.514	20804
883.64	20891
883.766	20849
883.892	20708
884.018	20674
884.143	21009
884.269	20990
884.395	20613
884.52	20564
884.646	20598
884.772	20518
884.897	20469
885.023	20594
885.148	20648
885.274	20663
885.399	20663
885.524	20560
885.65	20587
885.775	20606
885.9	20495
886.025	20609
886.15	20564
886.275	20431
886.4	20320
886.525	20347
886.65	20237
886.775	20290
886.9	20465
887.025	20583
887.149	20355
887.274	20233
887.399	19993
887.523	20187
887.648	20069
887.773	20065
887.897	20206
888.021	20161
888.146	19967
888.27	20092
888.395	20278
888.519	20202
888.643	20202
888.767	20267
888.891	20065
889.015	19909
889.139	19944
889.263	19795
889.387	20027
889.511	20020
889.635	20100
889.759	19906
889.883	19928
890.006	19967
890.13	19925
890.254	19788
890.377	19841
890.501	19613
890.624	19635
890.748	19624
890.871	19624
890.995	19487
891.118	19521
891.241	19559
891.364	19506
891.488	19613
891.611	19396
891.734	19464
891.857	19438
891.98	19400
892.103	19548
892.226	19457
892.349	19453
892.471	19232
892.594	19320
892.717	19350
892.839	19282
892.962	19392
893.085	19434
893.207	19362
893.33	19190
893.452	19202
893.575	19381
893.697	19400
893.819	19563
893.941	19563
894.064	19480
894.186	19293
894.308	19221
894.43	19438
894.552	19426
894.674	19354
894.796	19320
894.918	19335
895.04	19255
895.161	19388
895.283	19358
895.405	19324
895.526	19392
895.648	19316
895.769	19392
895.891	19308
896.012	19533
896.134	19388
896.255	19381
896.376	19335
896.498	19407
896.619	19476
896.74	19331
896.861	19377
896.982	19685
897.103	19944
897.224	19685
897.345	19655
897.466	19635
897.587	19674
897.708	19814
897.828	19696
897.949	19578
898.07	19434
898.19	19624
898.311	19655
898.431	19464
898.552	19651
898.672	19658
898.792	19639
898.913	19438
899.033	19392
899.153	19324
899.273	19346
899.393	19350
899.513	19236
899.633	19320
899.753	19358
899.873	19369
899.993	19358
900.113	19297
900.232	19335
900.352	19190
900.472	19168
900.591	19145
900.711	19179
900.83	19072
900.95	19221
901.069	19274
901.189	19110
901.308	18688
901.427	18863
901.546	18791
901.665	18734
901.784	18734
901.904	18623
902.023	18555
902.141	18353
902.26	18311
902.379	18323
902.498	18391
902.617	18159
902.735	18228
902.854	18197
902.973	18194
903.091	17958
903.21	17878
903.328	17882
903.446	17859
903.565	17657
903.683	17726
903.801	17627
903.919	17577
904.038	17634
904.156	17452
904.274	17566
904.392	17440
904.51	17421
904.627	17391
904.745	17452
904.863	17463
904.981	17269
905.098	17067
905.216	17136
905.334	17185
905.451	17048
905.569	17052
905.686	17208
905.803	17056
905.921	16930
906.038	16881
906.155	16934
906.272	16790
906.389	16786
906.506	16664
906.623	16702
906.74	16550
906.857	16523
906.974	16584
907.091	16554
907.208	16721
907.324	16584
907.441	16577
907.557	16421
907.674	16318
907.79	16306
907.907	16219
908.023	16246
908.139	16344
908.256	16185
908.372	16124
908.488	16166
908.604	16048
908.72	16032
908.836	16002
908.952	15960
909.068	15979
909.184	16025
909.3	15915
909.415	16017
909.531	15907
909.647	15732
909.762	15652
909.878	15739
909.993	15587
910.108	15686
910.224	15686
910.339	15633
910.454	15553
910.57	15519
910.685	15332
910.8	15736
910.915	15656
911.03	15469
911.145	15237
911.259	15249
911.374	15291
911.489	15192
911.604	15161
911.718	15032
911.833	14986
911.947	14941
912.062	14800
912.176	15036
912.291	15058
912.405	15032
912.519	15062
912.633	15112
912.748	14960
912.862	14891
912.976	14891
913.09	14773
913.204	14800
913.318	14769
913.431	14952
913.545	14883
913.659	14868
913.772	14788
913.886	14632
914	14670
914.113	14762
914.226	14830
914.34	14739
914.453	14575
914.566	14720
914.68	14552
914.793	14526
914.906	14415
915.019	14374
915.132	14298
915.245	14309
915.358	14374
915.47	14221
915.583	14332
915.696	14347
915.809	14393
915.921	14469
916.034	14278
916.146	14256
916.259	14176
916.371	14298
916.483	14248
916.595	14149
916.708	14195
916.82	14233
916.932	14111
917.044	14096
917.156	14065
917.268	13970
917.38	14024
917.491	14084
917.603	13868
917.715	14027
917.826	14054
917.938	13936
918.049	13883
918.161	13951
918.272	14069
918.384	14005
918.495	13864
918.606	13791
918.717	13723
918.828	13772
918.939	13723
919.05	13689
919.161	13715
919.272	13525
919.383	13556
919.494	13727
919.604	13883
919.715	13807
919.826	13651
919.936	13624
920.047	13700
920.157	13670
920.267	13921
920.378	13643
920.488	13708
920.598	13799
920.708	13970
920.818	13795
920.928	13791
921.038	14008
921.148	14012
921.258	13567
921.368	13476
921.477	13441
921.587	13377
921.697	13327
921.806	13384
921.916	13331
922.025	13133
922.134	13133
922.244	13008
922.353	13152
922.462	12924
922.571	12947
922.68	12753
922.789	12673
922.898	12669
923.007	12582
923.116	12741
923.224	12707
923.333	12639
923.442	12608
923.55	12506
923.659	12578
923.767	12612
923.876	12456
923.984	12604
924.092	12471
924.201	12589
924.309	12429
924.417	12467
924.525	12395
924.633	12342
924.741	13331
924.849	12167
924.956	12388
925.064	12209
925.172	12091
925.279	12228
925.387	12205
925.494	12224
925.602	12239
925.709	12323
925.816	12049
925.924	12102
926.031	12178
926.138	12095
926.245	12201
926.352	12034
926.459	12079
926.566	12235
926.673	12117
926.779	11961
926.886	11965
926.993	11790
927.099	11817
927.206	11722
927.312	11668
927.419	11813
927.525	11775
927.631	11771
927.737	11676
927.843	11649
927.95	11543
928.056	11577
928.162	11623
928.267	11592
928.373	12205
928.479	11657
928.585	11429
928.69	11600
928.796	11627
928.901	11516
929.007	11292
929.112	11455
929.218	11402
929.323	11261
929.428	11383
929.533	11440
929.638	11239
929.743	11273
929.848	11326
929.953	11341
930.058	11197
930.163	11033
930.267	11075
930.372	11174
930.477	11037
930.581	11246
930.685	11128
930.79	10915
930.894	10923
930.998	10835
931.103	10968
931.207	10702
931.311	10599
931.415	10615
931.519	10329
931.623	10276
