Data from test_V78500241_2942.txt Node
Date: Fri Mar 25 14:54:11 CST 2022
User: usil
Spectrometer: V785-0024
Trigger mode: 0
Integration Time (sec): 4.000000E-1
Scans to average: 1
Nonlinearity correction enabled: false
Boxcar width: 0
Storing dark spectrum: false
XAxis mode: Wavelengths
Number of Pixels in Spectrum: 1024
>>>>>Begin Spectral Data<<<<<
801.071	22120
801.214	21972
801.356	21816
801.499	21717
801.641	21462
801.783	21370
801.926	21542
802.068	21469
802.211	21431
802.353	21260
802.496	21043
802.638	20861
802.78	20807
802.923	20800
803.065	20781
803.208	20705
803.35	20788
803.492	20861
803.635	20975
803.777	20777
803.919	20796
804.061	21157
804.204	20864
804.346	20682
804.488	20644
804.63	20823
804.773	20663
804.915	20777
805.057	20834
805.199	20693
805.341	20762
805.483	20872
805.626	20785
805.768	20651
805.91	20811
806.052	20686
806.194	20613
806.336	20861
806.478	20651
806.62	20689
806.762	20796
806.904	20902
807.046	21096
807.188	20994
807.33	21020
807.472	21081
807.614	21013
807.756	20864
807.898	20861
808.04	20807
808.182	20682
808.324	20788
808.465	20796
808.607	21051
808.749	20979
808.891	21222
809.033	21222
809.174	21218
809.316	20982
809.458	21112
809.6	21119
809.741	21199
809.883	21119
810.025	21264
810.166	21192
810.308	21291
810.45	21211
810.591	21138
810.733	21043
810.875	20830
811.016	20762
811.158	20655
811.299	20883
811.441	20998
811.582	20899
811.724	20933
811.865	20838
812.007	20883
812.148	20758
812.29	20777
812.431	21135
812.573	21214
812.714	21241
812.855	21283
812.997	21412
813.138	21603
813.279	21485
813.421	21283
813.562	21275
813.703	21089
813.845	20921
813.986	20712
814.127	20579
814.268	20400
814.41	20362
814.551	20438
814.692	20507
814.833	20434
814.974	20381
815.115	20305
815.256	20271
815.397	20324
815.539	20305
815.68	20138
815.821	20062
815.962	20035
816.103	20073
816.244	19921
816.385	19837
816.526	19852
816.666	19685
816.807	19567
816.948	19658
817.089	19624
817.23	19537
817.371	19415
817.512	19468
817.653	19487
817.793	19502
817.934	19381
818.075	19407
818.216	19525
818.356	19396
818.497	19365
818.638	19213
818.778	19232
818.919	19152
819.06	19187
819.2	19266
819.341	19426
819.481	19377
819.622	19578
819.762	19643
819.903	19616
820.043	19548
820.184	19552
820.324	19457
820.465	19472
820.605	19529
820.746	19537
820.886	19339
821.026	19381
821.167	19434
821.307	19449
821.447	19495
821.588	19244
821.728	19103
821.868	19110
822.008	18856
822.149	18901
822.289	18954
822.429	18612
822.569	18601
822.709	18623
822.849	18388
822.99	18433
823.13	18376
823.27	18289
823.41	18178
823.55	18129
823.69	18159
823.83	18155
823.97	18117
824.11	17984
824.25	17916
824.389	17927
824.529	17908
824.669	17961
824.809	17980
824.949	18041
825.089	18045
825.228	17897
825.368	17798
825.508	17741
825.648	17752
825.787	17668
825.927	17752
826.067	17737
826.206	17638
826.346	17786
826.485	17783
826.625	17687
826.765	17756
826.904	17824
827.044	17528
827.183	17463
827.323	17398
827.462	17471
827.601	17429
827.741	17452
827.88	17414
828.02	17353
828.159	17383
828.298	17429
828.437	17459
828.577	17364
828.716	17520
828.855	17436
828.994	17242
829.134	17197
829.273	17189
829.412	17178
829.551	17136
829.69	17124
829.829	17155
829.968	17311
830.107	17185
830.246	17166
830.385	17105
830.524	17010
830.663	17075
830.802	16892
830.941	16809
831.08	16809
831.219	16866
831.357	16889
831.496	17094
831.635	16786
831.774	16713
831.913	16767
832.051	16596
832.19	16592
832.329	16569
832.467	16466
832.606	16409
832.744	16455
832.883	16542
833.022	16466
833.16	16493
833.299	16436
833.437	16489
833.576	16577
833.714	16580
833.852	16500
833.991	16554
834.129	16653
834.267	16588
834.406	16565
834.544	16626
834.682	16519
834.821	16512
834.959	16656
835.097	16523
835.235	16653
835.373	16588
835.511	16516
835.65	16485
835.788	16462
835.926	16200
836.064	16253
836.202	16154
836.34	16409
836.478	16519
836.615	16348
836.753	16421
836.891	16485
837.029	16474
837.167	16421
837.305	16314
837.443	16409
837.58	16303
837.718	16348
837.856	16276
837.993	16131
838.131	16284
838.269	16242
838.406	16215
838.544	16131
838.681	16090
838.819	15983
838.956	15797
839.094	15755
839.231	15937
839.369	15899
839.506	16188
839.643	16074
839.781	15865
839.918	15808
840.055	15842
840.193	15861
840.33	15736
840.467	15823
840.604	15838
840.742	16131
840.879	15724
841.016	15724
841.153	15622
841.29	15918
841.427	15770
841.564	15846
841.701	15850
841.838	15781
841.975	15686
842.112	15739
842.249	15641
842.385	15568
842.522	15774
842.659	15671
842.796	15606
842.933	15644
843.069	15466
843.206	15549
843.343	15610
843.479	15656
843.616	15580
843.752	15424
843.889	15405
844.025	15561
844.162	15336
844.298	15530
844.435	15378
844.571	15249
844.708	15538
844.844	15595
844.98	15644
845.117	15447
845.253	15325
845.389	15268
845.525	15428
845.661	15298
845.798	15173
845.934	15218
846.07	15119
846.206	15199
846.342	15363
846.478	15241
846.614	15028
846.75	15001
846.886	14979
847.022	15074
847.158	14948
847.294	14948
847.429	15001
847.565	15032
847.701	15173
847.837	14727
847.972	14640
848.108	14804
848.244	14705
848.379	14655
848.515	14598
848.65	14450
848.786	14629
848.921	14556
849.057	14674
849.192	14724
849.328	14632
849.463	14549
849.598	14511
849.734	14533
849.869	14381
850.004	14355
850.14	14408
850.275	14355
850.41	14282
850.545	14336
850.68	14248
850.815	14389
850.95	14259
851.085	14575
851.22	14362
851.355	14313
851.49	14233
851.625	14309
851.76	14381
851.895	14256
852.03	14248
852.165	14282
852.299	14385
852.434	14393
852.569	14347
852.703	14336
852.838	14320
852.973	14450
853.107	14503
853.242	14343
853.376	14225
853.511	14001
853.645	14202
853.78	14355
853.914	14218
854.048	14221
854.183	14172
854.317	14263
854.451	14339
854.585	14176
854.72	14103
854.854	14294
854.988	14180
855.122	14248
855.256	14103
855.39	14077
855.524	14267
855.658	14168
855.792	14119
855.926	14286
856.06	14168
856.194	14381
856.327	14244
856.461	14130
856.595	14202
856.729	14168
856.862	14218
856.996	14183
857.13	14229
857.263	14271
857.397	14309
857.53	14183
857.664	14286
857.797	14233
857.931	14275
858.064	14157
858.197	14328
858.331	14210
858.464	14161
858.597	14115
858.731	14221
858.864	14218
858.997	14145
859.13	14347
859.263	14218
859.396	14282
859.529	14221
859.662	14145
859.795	14126
859.928	14278
860.061	14339
860.194	14358
860.327	14229
860.46	14142
860.592	14336
860.725	14218
860.858	14290
860.99	14164
861.123	14176
861.256	14149
861.388	14149
861.521	14864
861.653	14050
861.786	13970
861.918	14103
862.05	14088
862.183	14084
862.315	14115
862.447	14233
862.58	14164
862.712	13909
862.844	13989
862.976	14115
863.108	13947
863.24	14275
863.372	13909
863.504	13947
863.636	13894
863.768	14065
863.9	14031
864.032	13917
864.164	14020
864.296	13993
864.428	14046
864.559	14123
864.691	14012
864.823	14035
864.954	14005
865.086	14035
865.217	13970
865.349	13947
865.48	13898
865.612	13955
865.743	14088
865.875	13982
866.006	13925
866.137	14016
866.269	13986
866.4	13928
866.531	13944
866.662	13837
866.793	13860
866.924	13879
867.055	13986
867.186	13993
867.317	13955
867.448	13871
867.579	13921
867.71	13860
867.841	13845
867.972	13970
868.103	14016
868.233	14012
868.364	13970
868.495	14107
868.625	14161
868.756	14259
868.886	14126
869.017	14210
869.147	14267
869.278	14332
869.408	14282
869.539	14164
869.669	14282
869.799	14225
869.929	14336
870.06	14393
870.19	14598
870.32	14583
870.45	14533
870.58	14644
870.71	14765
870.84	14659
870.97	14575
871.1	14522
871.23	14720
871.36	14712
871.489	14689
871.619	14739
871.749	14914
871.879	14800
872.008	15024
872.138	14788
872.267	14739
872.397	14773
872.526	14602
872.656	14560
872.785	14621
872.915	14872
873.044	15009
873.173	14804
873.303	14891
873.432	14944
873.561	14929
873.69	14887
873.819	14800
873.948	14963
874.077	14842
874.206	14804
874.335	14830
874.464	14918
874.593	15233
874.722	15176
874.851	15123
874.979	15097
875.108	15142
875.237	15066
875.365	15077
875.494	15043
875.623	15169
875.751	15085
875.88	15264
876.008	15207
876.136	15511
876.265	15671
876.393	15831
876.521	15709
876.65	15656
876.778	15587
876.906	15507
877.034	15526
877.162	15534
877.29	15492
877.418	15682
877.546	15698
877.674	15637
877.802	15462
877.93	15694
878.058	15526
878.185	15534
878.313	15545
878.441	15534
878.568	15466
878.696	15504
878.824	15648
878.951	15641
879.079	15854
879.206	15854
879.333	15736
879.461	15724
879.588	15717
879.715	15884
879.842	15850
879.97	15690
880.097	15412
880.224	15466
880.351	15424
880.478	15462
880.605	15450
880.732	15473
880.859	15717
880.986	15450
881.112	15507
881.239	15336
881.366	15123
881.493	15135
881.619	15013
881.746	15127
881.872	15028
881.999	15036
882.125	14986
882.252	15233
882.378	15264
882.505	15199
882.631	15058
882.757	14910
882.883	14925
883.01	14990
883.136	14906
883.262	14754
883.388	14739
883.514	14956
883.64	14921
883.766	14834
883.892	14678
884.018	14785
884.143	14880
884.269	15055
884.395	14686
884.52	14613
884.646	14659
884.772	14514
884.897	14549
885.023	14610
885.148	14788
885.274	14800
885.399	14823
885.524	14613
885.65	14720
885.775	14636
885.9	14682
886.025	14705
886.15	14663
886.275	14587
886.4	14541
886.525	14625
886.65	14541
886.775	14579
886.9	14716
887.025	14853
887.149	14556
887.274	14522
887.399	14499
887.523	14396
887.648	14465
887.773	14374
887.897	14530
888.021	14590
888.146	14473
888.27	14598
888.395	14617
888.519	14480
888.643	14564
888.767	14583
888.891	14324
889.015	14317
889.139	14431
889.263	14374
889.387	14381
889.511	14484
889.635	14488
889.759	14298
889.883	14259
890.006	14393
890.13	14457
890.254	14324
890.377	14294
890.501	14103
890.624	14138
890.748	14233
890.871	14100
890.995	14012
891.118	13932
891.241	13951
891.364	13970
891.488	14233
891.611	14062
891.734	13951
891.857	14111
891.98	13997
892.103	14031
892.226	14077
892.349	13963
892.471	13906
892.594	13879
892.717	13989
892.839	13967
892.962	14062
893.085	14073
893.207	13970
893.33	13822
893.452	14069
893.575	14062
893.697	14043
893.819	14130
893.941	14130
894.064	14134
894.186	13917
894.308	14077
894.43	14126
894.552	14202
894.674	14172
894.796	13986
894.918	14107
895.04	14168
895.161	14176
895.283	14157
895.405	14058
895.526	14149
895.648	14168
895.769	14172
895.891	14180
896.012	14343
896.134	14259
896.255	14157
896.376	14077
896.498	14183
896.619	14244
896.74	14240
896.861	14248
896.982	14396
897.103	14659
897.224	14518
897.345	14457
897.466	14374
897.587	14518
897.708	14518
897.828	14495
897.949	14404
898.07	14362
898.19	14370
898.311	14541
898.431	14415
898.552	14476
898.672	14575
898.792	14659
898.913	14594
899.033	14503
899.153	14320
899.273	14305
899.393	14336
899.513	14400
899.633	14442
899.753	14309
899.873	14404
899.993	14408
900.113	14431
900.232	14454
900.352	14423
900.472	14351
900.591	14172
900.711	14313
900.83	14180
900.95	14286
901.069	14336
901.189	14218
901.308	13989
901.427	13925
901.546	13928
901.665	13921
901.784	14027
901.904	13765
902.023	13674
902.141	13537
902.26	13544
902.379	13605
902.498	13529
902.617	13453
902.735	13632
902.854	13510
902.973	13434
903.091	13228
903.21	13213
903.328	13228
903.446	13228
903.565	13107
903.683	13145
903.801	13019
903.919	13088
904.038	13023
904.156	12958
904.274	12981
904.392	12814
904.51	12981
904.627	12837
904.745	12973
904.863	12989
904.981	12749
905.098	12502
905.216	12620
905.334	12642
905.451	12582
905.569	12620
905.686	12623
905.803	12604
905.921	12467
906.038	12494
906.155	12490
906.272	12357
906.389	12365
906.506	12209
906.623	12209
906.74	12182
906.857	12079
906.974	12076
907.091	12292
907.208	12323
907.324	12201
907.441	12144
907.557	11961
907.674	12007
907.79	11874
907.907	11843
908.023	11889
908.139	11958
908.256	11954
908.372	11828
908.488	11824
908.604	11680
908.72	11676
908.836	11714
908.952	11611
909.068	11726
909.184	11790
909.3	11722
909.415	11798
909.531	11657
909.647	11410
909.762	11452
909.878	11421
909.993	11471
910.108	11512
910.224	11452
910.339	11372
910.454	11376
910.57	11376
910.685	11273
910.8	11505
910.915	11520
911.03	11360
911.145	11102
911.259	11151
911.374	11143
911.489	11109
911.604	11102
911.718	10942
911.833	10923
911.947	10793
912.062	10736
912.176	10908
912.291	10999
912.405	10957
912.519	11147
912.633	11113
912.748	10987
912.862	10965
912.976	10885
913.09	10729
913.204	10706
913.318	10812
913.431	10850
913.545	10904
913.659	10984
913.772	10691
913.886	10672
914	10615
914.113	10820
914.226	10854
914.34	10771
914.453	10550
914.566	10786
914.68	10694
914.793	10687
914.906	10470
915.019	10459
915.132	10287
915.245	10398
915.358	10402
915.47	10455
915.583	10409
915.696	10535
915.809	10641
915.921	10596
916.034	10432
916.146	10348
916.259	10405
916.371	10527
916.483	10474
916.595	10257
916.708	10451
916.82	10371
916.932	10344
917.044	10352
917.156	10360
917.268	10211
917.38	10280
917.491	10265
917.603	10276
917.715	10432
917.826	10424
917.938	10173
918.049	10116
918.161	10306
918.272	10542
918.384	10470
918.495	10371
918.606	10150
918.717	10029
918.828	10147
918.939	10246
919.05	10021
919.161	10055
919.272	9926
919.383	9956
919.494	10234
919.604	10352
919.715	10211
919.826	10093
919.936	10169
920.047	10215
920.157	10223
920.267	10451
920.378	10204
920.488	10185
920.598	10314
920.708	10417
920.818	10295
920.928	10344
921.038	10565
921.148	10459
921.258	10181
921.368	10135
921.477	10105
921.587	10032
921.697	9861
921.806	10032
921.916	9911
922.025	9759
922.134	9732
922.244	9717
922.353	9778
922.462	9614
922.571	9576
922.68	9435
922.789	9447
922.898	9424
923.007	9329
923.116	9534
923.224	9393
923.333	9401
923.442	9332
923.55	9233
923.659	9325
923.767	9401
923.876	9291
923.984	9363
924.092	9199
924.201	9268
924.309	9298
924.417	9279
924.525	9203
924.633	9272
924.741	10158
924.849	9020
924.956	9138
925.064	9070
925.172	8941
925.279	9055
925.387	9112
925.494	9093
925.602	9260
925.709	9203
925.816	8948
925.924	9066
926.031	9214
926.138	9108
926.245	9108
926.352	9036
926.459	9108
926.566	9233
926.673	8994
926.779	8956
926.886	8952
926.993	8842
927.099	8766
927.206	8758
927.312	8766
927.419	8845
927.525	8762
927.631	8804
927.737	8731
927.843	8693
927.95	8556
928.056	8682
928.162	8739
928.267	8777
928.373	9344
928.479	8792
928.585	8552
928.69	8693
928.796	8655
928.901	8606
929.007	8549
929.112	8606
929.218	8560
929.323	8503
929.428	8450
929.533	8644
929.638	8408
929.743	8446
929.848	8545
929.953	8545
930.058	8431
930.163	8294
930.267	8279
930.372	8415
930.477	8252
930.581	8522
930.685	8370
930.79	8244
930.894	8244
930.998	8153
931.103	8286
931.207	7982
931.311	8008
931.415	7898
931.519	7772
931.623	7780
