Data from test_V78500241_1483.txt Node
Date: Fri Mar 25 14:44:02 CST 2022
User: usil
Spectrometer: V785-0024
Trigger mode: 0
Integration Time (sec): 4.000000E-1
Scans to average: 1
Nonlinearity correction enabled: false
Boxcar width: 0
Storing dark spectrum: false
XAxis mode: Wavelengths
Number of Pixels in Spectrum: 1024
>>>>>Begin Spectral Data<<<<<
801.071	22493
801.214	22242
801.356	21983
801.499	21899
801.641	21827
801.783	21781
801.926	21884
802.068	21701
802.211	21663
802.353	21572
802.496	21382
802.638	21207
802.78	21291
802.923	21203
803.065	21108
803.208	21131
803.35	21077
803.492	21226
803.635	21294
803.777	21036
803.919	21226
804.061	21454
804.204	21291
804.346	21017
804.488	20986
804.63	20967
804.773	20929
804.915	20990
805.057	21161
805.199	21055
805.341	21119
805.483	21070
805.626	21119
805.768	20914
805.91	21051
806.052	20910
806.194	20998
806.336	21241
806.478	21013
806.62	21039
806.762	21093
806.904	21344
807.046	21488
807.188	21492
807.33	21359
807.472	21321
807.614	21329
807.756	21424
807.898	21291
808.04	21291
808.182	21226
808.324	21313
808.465	21275
808.607	21549
808.749	21595
808.891	21759
809.033	21895
809.174	21778
809.316	21564
809.458	21618
809.6	21526
809.741	21564
809.883	21595
810.025	21690
810.166	21743
810.308	21633
810.45	21690
810.591	21492
810.733	21507
810.875	21332
811.016	21260
811.158	21180
811.299	21214
811.441	21405
811.582	21507
811.724	21310
811.865	21138
812.007	21291
812.148	21340
812.29	21294
812.431	21306
812.573	21545
812.714	21739
812.855	21827
812.997	21705
813.138	21949
813.279	21819
813.421	21869
813.562	21599
813.703	21428
813.845	21473
813.986	21119
814.127	20929
814.268	20800
814.41	20826
814.551	20849
814.692	20902
814.833	20568
814.974	20689
815.115	20682
815.256	20629
815.397	20579
815.539	20530
815.68	20518
815.821	20488
815.962	20590
816.103	20415
816.244	20271
816.385	20206
816.526	20263
816.666	20138
816.807	20054
816.948	20016
817.089	20012
817.23	20062
817.371	19860
817.512	19902
817.653	19898
817.793	19852
817.934	19928
818.075	20027
818.216	19970
818.356	19906
818.497	19772
818.638	19552
818.778	19563
818.919	19632
819.06	19537
819.2	19651
819.341	19719
819.481	19833
819.622	19883
819.762	20050
819.903	20088
820.043	19932
820.184	19898
820.324	19879
820.465	20005
820.605	19936
820.746	19849
820.886	19860
821.026	19841
821.167	19803
821.307	19906
821.447	19856
821.588	19765
821.728	19544
821.868	19480
822.008	19316
822.149	19346
822.289	19263
822.429	19129
822.569	18996
822.709	19038
822.849	18817
822.99	18825
823.13	18734
823.27	18829
823.41	18494
823.55	18536
823.69	18715
823.83	18684
823.97	18456
824.11	18433
824.25	18365
824.389	18388
824.529	18365
824.669	18388
824.809	18353
824.949	18384
825.089	18429
825.228	18300
825.368	18209
825.508	18243
825.648	18228
825.787	18251
825.927	18201
826.067	18117
826.206	17999
826.346	18159
826.485	18205
826.625	18125
826.765	18148
826.904	18125
827.044	17863
827.183	17851
827.323	17779
827.462	17931
827.601	17824
827.741	17874
827.88	17821
828.02	17741
828.159	17775
828.298	17878
828.437	17866
828.577	17897
828.716	17904
828.855	17767
828.994	17551
829.134	17493
829.273	17741
829.412	17490
829.551	17478
829.69	17528
829.829	17668
829.968	17707
830.107	17596
830.246	17592
830.385	17505
830.524	17490
830.663	17417
830.802	17334
830.941	17231
831.08	17296
831.219	17330
831.357	17318
831.496	17490
831.635	17159
831.774	17231
831.913	17159
832.051	17060
832.19	17056
832.329	16934
832.467	16866
832.606	16847
832.744	16930
832.883	16949
833.022	16843
833.16	16900
833.299	16900
833.437	16938
833.576	16949
833.714	17048
833.852	17094
833.991	16999
834.129	17098
834.267	16930
834.406	16942
834.544	17033
834.682	16991
834.821	16930
834.959	17090
835.097	16919
835.235	17033
835.373	17102
835.511	17033
835.65	16942
835.788	16850
835.926	16710
836.064	16672
836.202	16710
836.34	16843
836.478	16942
836.615	16839
836.753	16930
836.891	16942
837.029	16915
837.167	16873
837.305	16778
837.443	16698
837.58	16683
837.718	16740
837.856	16812
837.993	16812
838.131	16854
838.269	16710
838.406	16656
838.544	16577
838.681	16443
838.819	16405
838.956	16226
839.094	16249
839.231	16344
839.369	16489
839.506	16637
839.643	16531
839.781	16272
839.918	16200
840.055	16287
840.193	16265
840.33	16135
840.467	16207
840.604	16329
840.742	16558
840.879	16044
841.016	16147
841.153	16105
841.29	16352
841.427	16363
841.564	16268
841.701	16219
841.838	16257
841.975	16120
842.112	16265
842.249	16082
842.385	16036
842.522	16188
842.659	15953
842.796	15979
842.933	16059
843.069	15998
843.206	16025
843.343	16082
843.479	16154
843.616	16071
843.752	15835
843.889	15915
844.025	16051
844.162	15770
844.298	15903
844.435	15884
844.571	15755
844.708	15911
844.844	16051
844.98	15949
845.117	15960
845.253	15770
845.389	15724
845.525	15869
845.661	15911
845.798	15785
845.934	15903
846.07	15812
846.206	15892
846.342	15911
846.478	15759
846.614	15496
846.75	15378
846.886	15351
847.022	15564
847.158	15386
847.294	15359
847.429	15367
847.565	15389
847.701	15663
847.837	15154
847.972	15066
848.108	15294
848.244	15188
848.379	15165
848.515	15013
848.65	14960
848.786	14937
848.921	15062
849.057	15100
849.192	15138
849.328	15135
849.463	15009
849.598	14906
849.734	14948
849.869	14796
850.004	14727
850.14	14861
850.275	14750
850.41	14773
850.545	14724
850.68	14705
850.815	14731
850.95	14796
851.085	14902
851.22	14918
851.355	14648
851.49	14655
851.625	14667
851.76	14640
851.895	14674
852.03	14724
852.165	14773
852.299	14773
852.434	14834
852.569	14826
852.703	14727
852.838	14819
852.973	14921
853.107	14952
853.242	14727
853.376	14678
853.511	14484
853.645	14575
853.78	14651
853.914	14678
854.048	14610
854.183	14545
854.317	14632
854.451	14811
854.585	14602
854.72	14537
854.854	14735
854.988	14560
855.122	14530
855.256	14465
855.39	14644
855.524	14693
855.658	14743
855.792	14541
855.926	14602
856.06	14682
856.194	14724
856.327	14610
856.461	14610
856.595	14598
856.729	14629
856.862	14765
856.996	14663
857.13	14758
857.263	14758
857.397	14689
857.53	14602
857.664	14670
857.797	14762
857.931	14777
858.064	14552
858.197	14746
858.331	14629
858.464	14560
858.597	14530
858.731	14556
858.864	14594
858.997	14545
859.13	14640
859.263	14621
859.396	14819
859.529	14636
859.662	14663
859.795	14613
859.928	14663
860.061	14682
860.194	14754
860.327	14670
860.46	14655
860.592	14712
860.725	14796
860.858	14758
860.99	14625
861.123	14499
861.256	14602
861.388	14727
861.521	15195
861.653	14537
861.786	14488
861.918	14480
862.05	14476
862.183	14514
862.315	14644
862.447	14594
862.58	14583
862.712	14396
862.844	14396
862.976	14438
863.108	14423
863.24	14842
863.372	14267
863.504	14404
863.636	14381
863.768	14404
863.9	14438
864.032	14218
864.164	14355
864.296	14454
864.428	14469
864.559	14488
864.691	14423
864.823	14434
864.954	14526
865.086	14499
865.217	14336
865.349	14263
865.48	14400
865.612	14408
865.743	14568
865.875	14415
866.006	14427
866.137	14465
866.269	14431
866.4	14358
866.531	14362
866.662	14252
866.793	14385
866.924	14286
867.055	14370
867.186	14385
867.317	14389
867.448	14278
867.579	14282
867.71	14199
867.841	14366
867.972	14339
868.103	14290
868.233	14317
868.364	14389
868.495	14389
868.625	14583
868.756	14655
868.886	14549
869.017	14552
869.147	14708
869.278	14792
869.408	14598
869.539	14629
869.669	14617
869.799	14697
869.929	14678
870.06	14712
870.19	15005
870.32	14902
870.45	14910
870.58	15047
870.71	15036
870.84	15195
870.97	15017
871.1	15070
871.23	15142
871.36	15252
871.489	15135
871.619	15070
871.749	15180
871.879	15230
872.008	15230
872.138	15176
872.267	15093
872.397	15055
872.526	15093
872.656	14990
872.785	15070
872.915	15260
873.044	15359
873.173	15233
873.303	15211
873.432	15336
873.561	15287
873.69	15321
873.819	15241
873.948	15268
874.077	15260
874.206	15249
874.335	15348
874.464	15386
874.593	15553
874.722	15473
874.851	15625
874.979	15606
875.108	15690
875.237	15492
875.365	15545
875.494	15481
875.623	15599
875.751	15618
875.88	15591
876.008	15816
876.136	15781
876.265	15930
876.393	16063
876.521	16055
876.65	15968
876.778	16010
876.906	16017
877.034	15956
877.162	16044
877.29	15937
877.418	16025
877.546	15968
877.674	16010
877.802	15994
877.93	15876
878.058	15911
878.185	16017
878.313	16002
878.441	15964
878.568	15869
878.696	16040
878.824	16116
878.951	16135
879.079	16265
879.206	16440
879.333	16177
879.461	16135
879.588	16219
879.715	16246
879.842	16325
879.97	16219
880.097	15979
880.224	15819
880.351	15918
880.478	15854
880.605	15797
880.732	15880
880.859	16135
880.986	15831
881.112	15907
881.239	15762
881.366	15644
881.493	15614
881.619	15507
881.746	15485
881.872	15382
881.999	15523
882.125	15481
882.252	15633
882.378	15576
882.505	15549
882.631	15481
882.757	15245
882.883	15363
883.01	15363
883.136	15245
883.262	15138
883.388	15214
883.514	15374
883.64	15294
883.766	15306
883.892	15195
884.018	15100
884.143	15321
884.269	15473
884.395	15116
884.52	15085
884.646	15020
884.772	14990
884.897	14925
885.023	15055
885.148	15123
885.274	15161
885.399	15017
885.524	15028
885.65	15108
885.775	15028
885.9	15077
886.025	15070
886.15	15093
886.275	14979
886.4	14918
886.525	14971
886.65	14948
886.775	14975
886.9	15097
887.025	15207
887.149	14872
887.274	14880
887.399	14815
887.523	14796
887.648	14743
887.773	14739
887.897	14781
888.021	14883
888.146	14811
888.27	14895
888.395	14902
888.519	14899
888.643	14880
888.767	14933
888.891	14750
889.015	14731
889.139	14800
889.263	14701
889.387	14765
889.511	14887
889.635	14800
889.759	14785
889.883	14606
890.006	14705
890.13	14777
890.254	14625
890.377	14590
890.501	14484
890.624	14438
890.748	14530
890.871	14450
890.995	14404
891.118	14324
891.241	14374
891.364	14408
891.488	14507
891.611	14355
891.734	14298
891.857	14503
891.98	14438
892.103	14393
892.226	14381
892.349	14427
892.471	14275
892.594	14358
892.717	14320
892.839	14393
892.962	14427
893.085	14438
893.207	14412
893.33	14199
893.452	14187
893.575	14446
893.697	14351
893.819	14549
893.941	14545
894.064	14431
894.186	14313
894.308	14256
894.43	14530
894.552	14670
894.674	14514
894.796	14332
894.918	14408
895.04	14389
895.161	14507
895.283	14446
895.405	14408
895.526	14377
895.648	14454
895.769	14473
895.891	14545
896.012	14492
896.134	14590
896.255	14533
896.376	14533
896.498	14571
896.619	14495
896.74	14488
896.861	14621
896.982	14971
897.103	15043
897.224	14857
897.345	14857
897.466	14716
897.587	14815
897.708	14933
897.828	14849
897.949	14765
898.07	14701
898.19	14746
898.311	14883
898.431	14853
898.552	14834
898.672	15074
898.792	14990
898.913	14857
899.033	14849
899.153	14777
899.273	14731
899.393	14777
899.513	14796
899.633	14724
899.753	14765
899.873	14621
899.993	14811
900.113	14750
900.232	14826
900.352	14678
900.472	14674
900.591	14549
900.711	14594
900.83	14583
900.95	14705
901.069	14686
901.189	14457
901.308	14301
901.427	14210
901.546	14195
901.665	14317
901.784	14263
901.904	14161
902.023	14001
902.141	13875
902.26	13845
902.379	13955
902.498	13795
902.617	13746
902.735	13868
902.854	13822
902.973	13788
903.091	13666
903.21	13483
903.328	13548
903.446	13502
903.565	13514
903.683	13510
903.801	13331
903.919	13392
904.038	13422
904.156	13209
904.274	13346
904.392	13171
904.51	13213
904.627	13171
904.745	13282
904.863	13263
904.981	13076
905.098	12871
905.216	12935
905.334	12844
905.451	12878
905.569	12810
905.686	12947
905.803	12954
905.921	12673
906.038	12863
906.155	12753
906.272	12635
906.389	12703
906.506	12559
906.623	12536
906.74	12502
906.857	12429
906.974	12399
907.091	12570
907.208	12650
907.324	12502
907.441	12399
907.557	12220
907.674	12190
907.79	12201
907.907	12270
908.023	12292
908.139	12304
908.256	12216
908.372	12178
908.488	12190
908.604	12064
908.72	11965
908.836	12011
908.952	11958
909.068	12030
909.184	12209
909.3	12060
909.415	12095
909.531	12022
909.647	11874
909.762	11855
909.878	11786
909.993	11794
910.108	11733
910.224	11726
910.339	11752
910.454	11680
910.57	11551
910.685	11570
910.8	11893
910.915	11756
911.03	11672
911.145	11455
911.259	11444
911.374	11478
911.489	11528
911.604	11376
911.718	11280
911.833	11269
911.947	11185
912.062	11006
912.176	11170
912.291	11220
912.405	11223
912.519	11383
912.633	11383
912.748	11296
912.862	11166
912.976	11056
913.09	11037
913.204	11018
913.318	11105
913.431	11227
913.545	11193
913.659	11178
913.772	11041
913.886	11048
914	11006
914.113	11098
914.226	11143
914.34	11014
914.453	10881
914.566	10995
914.68	10862
914.793	10881
914.906	10691
915.019	10736
915.132	10694
915.245	10683
915.358	10725
915.47	10759
915.583	10698
915.696	10816
915.809	10900
915.921	10847
916.034	10683
916.146	10706
916.259	10603
916.371	10801
916.483	10820
916.595	10664
916.708	10687
916.82	10630
916.932	10546
917.044	10653
917.156	10607
917.268	10512
917.38	10531
917.491	10577
917.603	10542
917.715	10599
917.826	10668
917.938	10493
918.049	10402
918.161	10466
918.272	10740
918.384	10752
918.495	10577
918.606	10538
918.717	10356
918.828	10451
918.939	10451
919.05	10299
919.161	10402
919.272	10295
919.383	10348
919.494	10485
919.604	10626
919.715	10440
919.826	10398
919.936	10413
920.047	10527
920.157	10481
920.267	10615
920.378	10386
920.488	10516
920.598	10664
920.708	10694
920.818	10706
920.928	10542
921.038	10740
921.148	10767
921.258	10474
921.368	10341
921.477	10291
921.587	10310
921.697	10086
921.806	10276
921.916	10188
922.025	10002
922.134	9998
922.244	9953
922.353	10040
922.462	9892
922.571	9778
922.68	9629
922.789	9637
922.898	9690
923.007	9618
923.116	9717
923.224	9629
923.333	9549
923.442	9584
923.55	9576
923.659	9603
923.767	9618
923.876	9545
923.984	9625
924.092	9549
924.201	9553
924.309	9492
924.417	9523
924.525	9492
924.633	9454
924.741	10382
924.849	9294
924.956	9416
925.064	9264
925.172	9260
925.279	9256
925.387	9268
925.494	9363
925.602	9523
925.709	9336
925.816	9233
925.924	9287
926.031	9458
926.138	9279
926.245	9291
926.352	9230
926.459	9344
926.566	9443
926.673	9317
926.779	9233
926.886	9157
926.993	9020
927.099	9036
927.206	9036
927.312	8960
927.419	9093
927.525	9013
927.631	9104
927.737	8937
927.843	8864
927.95	8762
928.056	8868
928.162	8906
928.267	9028
928.373	9584
928.479	9047
928.585	8716
928.69	8902
928.796	8921
928.901	8853
929.007	8640
929.112	8773
929.218	8811
929.323	8750
929.428	8777
929.533	8914
929.638	8693
929.743	8720
929.848	8766
929.953	8720
930.058	8598
930.163	8560
930.267	8488
930.372	8640
930.477	8522
930.581	8758
930.685	8514
930.79	8473
930.894	8495
930.998	8495
931.103	8541
931.207	8229
931.311	8202
931.415	8096
931.519	7951
931.623	7921
