Data from test_V78500241_1931.txt Node
Date: Fri Mar 25 14:47:09 CST 2022
User: usil
Spectrometer: V785-0024
Trigger mode: 0
Integration Time (sec): 4.000000E-1
Scans to average: 1
Nonlinearity correction enabled: false
Boxcar width: 0
Storing dark spectrum: false
XAxis mode: Wavelengths
Number of Pixels in Spectrum: 1024
>>>>>Begin Spectral Data<<<<<
801.071	22029
801.214	21884
801.356	21751
801.499	21637
801.641	21488
801.783	21454
801.926	21386
802.068	21439
802.211	21287
802.353	21310
802.496	21104
802.638	21100
802.78	20937
802.923	20811
803.065	20807
803.208	20720
803.35	20785
803.492	20842
803.635	20979
803.777	20921
803.919	20876
804.061	21157
804.204	20769
804.346	20788
804.488	20644
804.63	20629
804.773	20686
804.915	20724
805.057	20887
805.199	20663
805.341	20712
805.483	20788
805.626	20853
805.768	20636
805.91	20735
806.052	20746
806.194	20526
806.336	20861
806.478	20735
806.62	20571
806.762	20716
806.904	20899
807.046	21036
807.188	20982
807.33	21024
807.472	21077
807.614	20899
807.756	20925
807.898	20777
808.04	20602
808.182	20678
808.324	20758
808.465	20781
808.607	20998
808.749	21051
808.891	21218
809.033	21230
809.174	21131
809.316	21074
809.458	21066
809.6	20982
809.741	21104
809.883	21089
810.025	21214
810.166	21211
810.308	21161
810.45	21150
810.591	21070
810.733	20971
810.875	20891
811.016	20720
811.158	20716
811.299	20880
811.441	20895
811.582	20880
811.724	20716
811.865	20864
812.007	20788
812.148	20823
812.29	20815
812.431	21051
812.573	21131
812.714	21154
812.855	21336
812.997	21416
813.138	21496
813.279	21553
813.421	21211
813.562	21226
813.703	21135
813.845	20971
813.986	20739
814.127	20648
814.268	20408
814.41	20434
814.551	20351
814.692	20313
814.833	20442
814.974	20355
815.115	20347
815.256	20180
815.397	20210
815.539	20202
815.68	20210
815.821	20024
815.962	20035
816.103	20024
816.244	19906
816.385	19940
816.526	19753
816.666	19795
816.807	19552
816.948	19700
817.089	19719
817.23	19571
817.371	19575
817.512	19476
817.653	19438
817.793	19533
817.934	19525
818.075	19556
818.216	19529
818.356	19525
818.497	19308
818.638	19251
818.778	19293
818.919	19171
819.06	19232
819.2	19301
819.341	19346
819.481	19392
819.622	19468
819.762	19742
819.903	19628
820.043	19533
820.184	19559
820.324	19521
820.465	19575
820.605	19468
820.746	19464
820.886	19388
821.026	19499
821.167	19350
821.307	19476
821.447	19441
821.588	19297
821.728	19129
821.868	19046
822.008	18886
822.149	18996
822.289	18863
822.429	18620
822.569	18502
822.709	18517
822.849	18327
822.99	18475
823.13	18384
823.27	18410
823.41	18182
823.55	18239
823.69	18216
823.83	18205
823.97	18125
824.11	18034
824.25	17882
824.389	17965
824.529	17969
824.669	18095
824.809	18148
824.949	18098
825.089	18034
825.228	18030
825.368	17737
825.508	17722
825.648	17805
825.787	17790
825.927	17756
826.067	17760
826.206	17630
826.346	17790
826.485	17847
826.625	17775
826.765	17885
826.904	17737
827.044	17543
827.183	17459
827.323	17444
827.462	17524
827.601	17535
827.741	17455
827.88	17395
828.02	17296
828.159	17406
828.298	17406
828.437	17490
828.577	17448
828.716	17646
828.855	17421
828.994	17212
829.134	17159
829.273	17197
829.412	17174
829.551	17094
829.69	17250
829.829	17227
829.968	17315
830.107	17273
830.246	17181
830.385	17113
830.524	17128
830.663	16972
830.802	16961
830.941	16793
831.08	16812
831.219	16824
831.357	16767
831.496	17056
831.635	16889
831.774	16820
831.913	16675
832.051	16679
832.19	16630
832.329	16706
832.467	16592
832.606	16474
832.744	16599
832.883	16493
833.022	16538
833.16	16531
833.299	16599
833.437	16519
833.576	16672
833.714	16558
833.852	16645
833.991	16561
834.129	16630
834.267	16706
834.406	16607
834.544	16656
834.682	16538
834.821	16630
834.959	16759
835.097	16489
835.235	16668
835.373	16733
835.511	16634
835.65	16565
835.788	16481
835.926	16329
836.064	16360
836.202	16337
836.34	16538
836.478	16542
836.615	16531
836.753	16504
836.891	16550
837.029	16546
837.167	16417
837.305	16455
837.443	16424
837.58	16306
837.718	16413
837.856	16421
837.993	16447
838.131	16348
838.269	16371
838.406	16306
838.544	16341
838.681	16188
838.819	16120
838.956	15865
839.094	15903
839.231	15968
839.369	16265
839.506	16306
839.643	16116
839.781	15983
839.918	15880
840.055	15934
840.193	15857
840.33	15907
840.467	15983
840.604	15972
840.742	16238
840.879	15774
841.016	15876
841.153	15930
841.29	16029
841.427	16017
841.564	15926
841.701	16032
841.838	15876
841.975	15884
842.112	15808
842.249	15823
842.385	15743
842.522	15907
842.659	15720
842.796	15637
842.933	15823
843.069	15747
843.206	15652
843.343	15759
843.479	15663
843.616	15838
843.752	15519
843.889	15363
844.025	15728
844.162	15428
844.298	15610
844.435	15584
844.571	15603
844.708	15572
844.844	15644
844.98	15717
845.117	15614
845.253	15447
845.389	15412
845.525	15397
845.661	15370
845.798	15340
845.934	15317
846.07	15237
846.206	15405
846.342	15386
846.478	15291
846.614	15176
846.75	15009
846.886	15085
847.022	15150
847.158	15123
847.294	15104
847.429	15142
847.565	15051
847.701	15340
847.837	14880
847.972	14727
848.108	14910
848.244	14864
848.379	14777
848.515	14697
848.65	14640
848.786	14708
848.921	14773
849.057	14804
849.192	14754
849.328	14727
849.463	14701
849.598	14712
849.734	14655
849.869	14560
850.004	14480
850.14	14419
850.275	14484
850.41	14343
850.545	14389
850.68	14476
850.815	14476
850.95	14419
851.085	14579
851.22	14442
851.355	14533
851.49	14362
851.625	14400
851.76	14461
851.895	14355
852.03	14347
852.165	14385
852.299	14339
852.434	14412
852.569	14594
852.703	14461
852.838	14488
852.973	14590
853.107	14590
853.242	14400
853.376	14366
853.511	14168
853.645	14294
853.78	14377
853.914	14339
854.048	14282
854.183	14275
854.317	14298
854.451	14511
854.585	14225
854.72	14206
854.854	14389
854.988	14248
855.122	14286
855.256	14195
855.39	14286
855.524	14427
855.658	14381
855.792	14298
855.926	14427
856.06	14419
856.194	14442
856.327	14313
856.461	14286
856.595	14267
856.729	14298
856.862	14469
856.996	14511
857.13	14484
857.263	14476
857.397	14469
857.53	14381
857.664	14374
857.797	14431
857.931	14461
858.064	14393
858.197	14503
858.331	14332
858.464	14317
858.597	14233
858.731	14366
858.864	14339
858.997	14336
859.13	14332
859.263	14389
859.396	14518
859.529	14381
859.662	14320
859.795	14332
859.928	14442
860.061	14442
860.194	14590
860.327	14465
860.46	14385
860.592	14434
860.725	14469
860.858	14495
860.99	14339
861.123	14187
861.256	14290
861.388	14469
861.521	15165
861.653	14218
861.786	14271
861.918	14180
862.05	14358
862.183	14362
862.315	14320
862.447	14351
862.58	14317
862.712	14218
862.844	14092
862.976	14252
863.108	14115
863.24	14575
863.372	14039
863.504	14145
863.636	14054
863.768	14187
863.9	14199
864.032	14100
864.164	14092
864.296	14054
864.428	14248
864.559	14214
864.691	14286
864.823	14187
864.954	14259
865.086	14149
865.217	14138
865.349	14233
865.48	14065
865.612	14237
865.743	14305
865.875	14039
866.006	14115
866.137	14221
866.269	14119
866.4	14202
866.531	14043
866.662	13989
866.793	14145
866.924	14100
867.055	14142
867.186	14100
867.317	14065
867.448	14027
867.579	14058
867.71	14126
867.841	14103
867.972	14111
868.103	14100
868.233	14176
868.364	14092
868.495	14084
868.625	14290
868.756	14434
868.886	14339
869.017	14385
869.147	14579
869.278	14488
869.408	14423
869.539	14351
869.669	14423
869.799	14415
869.929	14469
870.06	14412
870.19	14777
870.32	14663
870.45	14735
870.58	14777
870.71	14891
870.84	14914
870.97	14708
871.1	14796
871.23	14895
871.36	14887
871.489	14880
871.619	14998
871.749	14956
871.879	14979
872.008	15119
872.138	14937
872.267	15005
872.397	14853
872.526	14842
872.656	14670
872.785	14804
872.915	15005
873.044	15058
873.173	15028
873.303	15066
873.432	15192
873.561	15066
873.69	15108
873.819	15028
873.948	15043
874.077	14982
874.206	14895
874.335	15039
874.464	15169
874.593	15401
874.722	15279
874.851	15389
874.979	15351
875.108	15359
875.237	15355
875.365	15218
875.494	15313
875.623	15447
875.751	15336
875.88	15405
876.008	15355
876.136	15488
876.265	15850
876.393	15903
876.521	15770
876.65	15804
876.778	15819
876.906	15724
877.034	15629
877.162	15732
877.29	15660
877.418	15709
877.546	15660
877.674	15705
877.802	15736
877.93	15869
878.058	15675
878.185	15755
878.313	15698
878.441	15770
878.568	15595
878.696	15770
878.824	15804
878.951	15835
879.079	15869
879.206	16044
879.333	15903
879.461	15797
879.588	15785
879.715	15899
879.842	15972
879.97	15747
880.097	15618
880.224	15648
880.351	15587
880.478	15629
880.605	15610
880.732	15549
880.859	15823
880.986	15595
881.112	15656
881.239	15428
881.366	15443
881.493	15397
881.619	15241
881.746	15252
881.872	15268
881.999	15272
882.125	15203
882.252	15332
882.378	15154
882.505	15412
882.631	15119
882.757	15055
882.883	15043
883.01	15135
883.136	15055
883.262	14929
883.388	14838
883.514	15176
883.64	15108
883.766	15047
883.892	14830
884.018	14895
884.143	14918
884.269	15089
884.395	14796
884.52	14720
884.646	14788
884.772	14697
884.897	14606
885.023	14868
885.148	14937
885.274	14864
885.399	14921
885.524	14811
885.65	14758
885.775	14845
885.9	14758
886.025	14902
886.15	14807
886.275	14796
886.4	14632
886.525	14712
886.65	14762
886.775	14636
886.9	14872
887.025	14929
887.149	14769
887.274	14651
887.399	14705
887.523	14579
887.648	14461
887.773	14503
887.897	14621
888.021	14819
888.146	14575
888.27	14724
888.395	14743
888.519	14602
888.643	14689
888.767	14644
888.891	14495
889.015	14427
889.139	14484
889.263	14438
889.387	14590
889.511	14731
889.635	14571
889.759	14366
889.883	14488
890.006	14571
890.13	14636
890.254	14381
890.377	14385
890.501	14252
890.624	14286
890.748	14366
890.871	14229
890.995	14145
891.118	14100
891.241	14180
891.364	14145
891.488	14328
891.611	14157
891.734	14157
891.857	14240
891.98	14130
892.103	14191
892.226	14256
892.349	14157
892.471	14084
892.594	14103
892.717	14237
892.839	14172
892.962	14237
893.085	14244
893.207	14256
893.33	14119
893.452	14103
893.575	14180
893.697	14145
893.819	14309
893.941	14400
894.064	14324
894.186	14123
894.308	14115
894.43	14320
894.552	14332
894.674	14271
894.796	14142
894.918	14157
895.04	14183
895.161	14336
895.283	14237
895.405	14309
895.526	14324
895.648	14225
895.769	14313
895.891	14377
896.012	14355
896.134	14320
896.255	14252
896.376	14237
896.498	14275
896.619	14278
896.74	14423
896.861	14446
896.982	14659
897.103	14800
897.224	14594
897.345	14594
897.466	14480
897.587	14533
897.708	14629
897.828	14606
897.949	14552
898.07	14415
898.19	14552
898.311	14716
898.431	14465
898.552	14651
898.672	14773
898.792	14731
898.913	14674
899.033	14606
899.153	14446
899.273	14492
899.393	14473
899.513	14564
899.633	14518
899.753	14530
899.873	14469
899.993	14587
900.113	14537
900.232	14670
900.352	14438
900.472	14457
900.591	14301
900.711	14347
900.83	14412
900.95	14457
901.069	14423
901.189	14358
901.308	14065
901.427	14008
901.546	14020
901.665	14107
901.784	14050
901.904	13928
902.023	13871
902.141	13655
902.26	13597
902.379	13765
902.498	13620
902.617	13590
902.735	13639
902.854	13590
902.973	13514
903.091	13377
903.21	13381
903.328	13301
903.446	13282
903.565	13194
903.683	13225
903.801	13168
903.919	13259
904.038	13160
904.156	13031
904.274	13126
904.392	13034
904.51	12996
904.627	12966
904.745	13107
904.863	13110
904.981	12817
905.098	12639
905.216	12730
905.334	12791
905.451	12711
905.569	12658
905.686	12734
905.803	12677
905.921	12429
906.038	12582
906.155	12555
906.272	12380
906.389	12407
906.506	12239
906.623	12270
906.74	12319
906.857	12182
906.974	12186
907.091	12380
907.208	12475
907.324	12395
907.441	12228
907.557	12091
907.674	12045
907.79	11935
907.907	11992
908.023	12095
908.139	12026
908.256	11996
908.372	11935
908.488	11870
908.604	11817
908.72	11752
908.836	11786
908.952	11893
909.068	11794
909.184	11954
909.3	11847
909.415	11866
909.531	11832
909.647	11619
909.762	11577
909.878	11554
909.993	11703
910.108	11535
910.224	11505
910.339	11657
910.454	11532
910.57	11398
910.685	11326
910.8	11707
910.915	11589
911.03	11452
911.145	11292
911.259	11322
911.374	11288
911.489	11212
911.604	11166
911.718	11025
911.833	11037
911.947	10949
912.062	10896
912.176	11022
912.291	11018
912.405	11029
912.519	11181
912.633	11288
912.748	11189
912.862	11079
912.976	10957
913.09	10824
913.204	10805
913.318	10911
913.431	10987
913.545	10995
913.659	11075
913.772	10930
913.886	10774
914	10786
914.113	10957
914.226	10915
914.34	10835
914.453	10736
914.566	10900
914.68	10729
914.793	10710
914.906	10626
915.019	10519
915.132	10550
915.245	10451
915.358	10523
915.47	10531
915.583	10561
915.696	10607
915.809	10607
915.921	10656
916.034	10569
916.146	10489
916.259	10440
916.371	10618
916.483	10596
916.595	10447
916.708	10459
916.82	10432
916.932	10466
917.044	10424
917.156	10413
917.268	10360
917.38	10295
917.491	10322
917.603	10382
917.715	10443
917.826	10455
917.938	10360
918.049	10257
918.161	10390
918.272	10573
918.384	10531
918.495	10417
918.606	10268
918.717	10166
918.828	10185
918.939	10276
919.05	10166
919.161	10207
919.272	10055
919.383	9960
919.494	10352
919.604	10497
919.715	10325
919.826	10204
919.936	10238
920.047	10291
920.157	10291
920.267	10436
920.378	10356
920.488	10246
920.598	10409
920.708	10546
920.818	10462
920.928	10459
921.038	10569
921.148	10603
921.258	10261
921.368	10162
921.477	10196
921.587	10067
921.697	9987
921.806	10101
921.916	10010
922.025	9774
922.134	9812
922.244	9812
922.353	9899
922.462	9743
922.571	9675
922.68	9534
922.789	9576
922.898	9488
923.007	9500
923.116	9625
923.224	9473
923.333	9500
923.442	9344
923.55	9428
923.659	9386
923.767	9485
923.876	9397
923.984	9454
924.092	9332
924.201	9428
924.309	9447
924.417	9363
924.525	9321
924.633	9329
924.741	10303
924.849	9173
924.956	9294
925.064	9226
925.172	9123
925.279	9119
925.387	9279
925.494	9195
925.602	9359
925.709	9230
925.816	9157
925.924	9207
926.031	9313
926.138	9249
926.245	9207
926.352	9100
926.459	9253
926.566	9249
926.673	9138
926.779	8986
926.886	9017
926.993	8853
927.099	8948
927.206	8830
927.312	8823
927.419	8963
927.525	8876
927.631	8929
927.737	8731
927.843	8746
927.95	8678
928.056	8792
928.162	8804
928.267	8853
928.373	9473
928.479	8891
928.585	8629
928.69	8819
928.796	8792
928.901	8773
929.007	8594
929.112	8663
929.218	8655
929.323	8651
929.428	8648
929.533	8777
929.638	8579
929.743	8629
929.848	8640
929.953	8598
930.058	8613
930.163	8377
930.267	8518
930.372	8549
930.477	8419
930.581	8644
930.685	8514
930.79	8298
930.894	8381
930.998	8336
931.103	8476
931.207	8123
931.311	8081
931.415	8050
931.519	7837
931.623	7860
