Data from test_V78500241_2577.txt Node
Date: Fri Mar 25 14:51:39 CST 2022
User: usil
Spectrometer: V785-0024
Trigger mode: 0
Integration Time (sec): 4.000000E-1
Scans to average: 1
Nonlinearity correction enabled: false
Boxcar width: 0
Storing dark spectrum: false
XAxis mode: Wavelengths
Number of Pixels in Spectrum: 1024
>>>>>Begin Spectral Data<<<<<
801.071	22135
801.214	21888
801.356	21641
801.499	21618
801.641	21428
801.783	21382
801.926	21397
802.068	21367
802.211	21268
802.353	21131
802.496	20910
802.638	20891
802.78	20785
802.923	20800
803.065	20686
803.208	20644
803.35	20750
803.492	20876
803.635	20769
803.777	20758
803.919	20811
804.061	21032
804.204	20781
804.346	20663
804.488	20537
804.63	20621
804.773	20564
804.915	20743
805.057	20727
805.199	20727
805.341	20800
805.483	20727
805.626	20670
805.768	20568
805.91	20594
806.052	20754
806.194	20583
806.336	20750
806.478	20575
806.62	20583
806.762	20746
806.904	20834
807.046	21058
807.188	20967
807.33	21135
807.472	20956
807.614	20811
807.756	20902
807.898	20762
808.04	20716
808.182	20788
808.324	20750
808.465	20731
808.607	20861
808.749	21051
808.891	21127
809.033	21108
809.174	21085
809.316	20887
809.458	21161
809.6	21028
809.741	21154
809.883	21058
810.025	21195
810.166	21119
810.308	21142
810.45	21085
810.591	21146
810.733	20963
810.875	20765
811.016	20655
811.158	20552
811.299	20785
811.441	20952
811.582	20887
811.724	20727
811.865	20811
812.007	20754
812.148	20731
812.29	20777
812.431	21009
812.573	21154
812.714	21188
812.855	21195
812.997	21317
813.138	21622
813.279	21348
813.421	21275
813.562	21192
813.703	20937
813.845	20921
813.986	20564
814.127	20518
814.268	20431
814.41	20400
814.551	20309
814.692	20473
814.833	20244
814.974	20210
815.115	20290
815.256	20176
815.397	20187
815.539	20233
815.68	20054
815.821	19959
815.962	20130
816.103	19989
816.244	19845
816.385	19738
816.526	19830
816.666	19635
816.807	19487
816.948	19521
817.089	19586
817.23	19647
817.371	19506
817.512	19453
817.653	19506
817.793	19324
817.934	19445
818.075	19453
818.216	19441
818.356	19506
818.497	19327
818.638	19080
818.778	19084
818.919	19168
819.06	19126
819.2	19335
819.341	19388
819.481	19327
819.622	19438
819.762	19704
819.903	19658
820.043	19624
820.184	19476
820.324	19377
820.465	19548
820.605	19362
820.746	19339
820.886	19346
821.026	19312
821.167	19407
821.307	19422
821.447	19396
821.588	19331
821.728	19114
821.868	19069
822.008	18837
822.149	18837
822.289	18856
822.429	18696
822.569	18410
822.709	18578
822.849	18350
822.99	18270
823.13	18247
823.27	18300
823.41	18300
823.55	18030
823.69	18102
823.83	18224
823.97	18026
824.11	17897
824.25	17904
824.389	17866
824.529	17958
824.669	17939
824.809	18026
824.949	17878
825.089	17977
825.228	17939
825.368	17714
825.508	17691
825.648	17676
825.787	17771
825.927	17821
826.067	17668
826.206	17745
826.346	17775
826.485	17767
826.625	17638
826.765	17878
826.904	17672
827.044	17421
827.183	17467
827.323	17490
827.462	17372
827.601	17486
827.741	17417
827.88	17360
828.02	17356
828.159	17303
828.298	17433
828.437	17493
828.577	17296
828.716	17543
828.855	17417
828.994	17128
829.134	17162
829.273	17178
829.412	17162
829.551	17109
829.69	17102
829.829	17143
829.968	17216
830.107	17231
830.246	17197
830.385	16991
830.524	17033
830.663	16999
830.802	16831
830.941	16816
831.08	16752
831.219	16801
831.357	16835
831.496	16949
831.635	16908
831.774	16778
831.913	16588
832.051	16637
832.19	16596
832.329	16443
832.467	16447
832.606	16497
832.744	16421
832.883	16432
833.022	16478
833.16	16516
833.299	16546
833.437	16500
833.576	16561
833.714	16569
833.852	16577
833.991	16504
834.129	16577
834.267	16596
834.406	16523
834.544	16569
834.682	16405
834.821	16481
834.959	16596
835.097	16580
835.235	16668
835.373	16523
835.511	16542
835.65	16409
835.788	16318
835.926	16268
836.064	16219
836.202	16265
836.34	16405
836.478	16531
836.615	16478
836.753	16409
836.891	16440
837.029	16455
837.167	16352
837.305	16394
837.443	16375
837.58	16299
837.718	16325
837.856	16314
837.993	16249
838.131	16382
838.269	16265
838.406	16322
838.544	16124
838.681	16010
838.819	15960
838.956	15911
839.094	15869
839.231	15869
839.369	15953
839.506	16287
839.643	16074
839.781	15876
839.918	15861
840.055	15838
840.193	15812
840.33	15690
840.467	15854
840.604	15953
840.742	16071
840.879	15781
841.016	15728
841.153	15732
841.29	15968
841.427	15789
841.564	15804
841.701	15960
841.838	15778
841.975	15789
842.112	15743
842.249	15728
842.385	15667
842.522	15819
842.659	15743
842.796	15637
842.933	15663
843.069	15614
843.206	15625
843.343	15804
843.479	15709
843.616	15675
843.752	15447
843.889	15523
844.025	15523
844.162	15310
844.298	15599
844.435	15378
844.571	15393
844.708	15515
844.844	15572
844.98	15587
845.117	15504
845.253	15325
845.389	15199
845.525	15332
845.661	15336
845.798	15268
845.934	15306
846.07	15214
846.206	15279
846.342	15351
846.478	15291
846.614	15123
846.75	14948
846.886	14952
847.022	15070
847.158	14998
847.294	15028
847.429	14899
847.565	14994
847.701	15249
847.837	14739
847.972	14674
848.108	14929
848.244	14826
848.379	14720
848.515	14590
848.65	14648
848.786	14602
848.921	14659
849.057	14735
849.192	14663
849.328	14617
849.463	14750
849.598	14552
849.734	14568
849.869	14495
850.004	14351
850.14	14396
850.275	14313
850.41	14301
850.545	14309
850.68	14313
850.815	14366
850.95	14377
851.085	14556
851.22	14442
851.355	14336
851.49	14294
851.625	14294
851.76	14309
851.895	14252
852.03	14267
852.165	14362
852.299	14377
852.434	14377
852.569	14377
852.703	14423
852.838	14469
852.973	14632
853.107	14514
853.242	14252
853.376	14191
853.511	14138
853.645	14221
853.78	14366
853.914	14332
854.048	14301
854.183	14157
854.317	14210
854.451	14332
854.585	14221
854.72	14149
854.854	14237
854.988	14054
855.122	14168
855.256	14062
855.39	14225
855.524	14309
855.658	14324
855.792	14229
855.926	14290
856.06	14324
856.194	14366
856.327	14275
856.461	14191
856.595	14240
856.729	14244
856.862	14366
856.996	14214
857.13	14275
857.263	14317
857.397	14495
857.53	14263
857.664	14324
857.797	14324
857.931	14309
858.064	14229
858.197	14324
858.331	14259
858.464	14199
858.597	14046
858.731	14252
858.864	14145
858.997	14218
859.13	14336
859.263	14233
859.396	14244
859.529	14221
859.662	14134
859.795	14225
859.928	14309
860.061	14381
860.194	14473
860.327	14294
860.46	14263
860.592	14457
860.725	14313
860.858	14488
860.99	14225
861.123	14168
861.256	14275
861.388	14301
861.521	14899
861.653	14123
861.786	14153
861.918	14092
862.05	14115
862.183	14164
862.315	14180
862.447	14240
862.58	14187
862.712	13936
862.844	13871
862.976	14050
863.108	14069
863.24	14434
863.372	13879
863.504	14024
863.636	13986
863.768	14050
863.9	14088
864.032	13917
864.164	14005
864.296	14043
864.428	14119
864.559	14149
864.691	14043
864.823	13989
864.954	14073
865.086	14039
865.217	13944
865.349	14027
865.48	14043
865.612	13944
865.743	14130
865.875	14046
866.006	13997
866.137	14077
866.269	14008
866.4	13967
866.531	13917
866.662	13875
866.793	13963
866.924	13944
867.055	14062
867.186	14054
867.317	13936
867.448	13852
867.579	13936
867.71	13917
867.841	13917
867.972	14039
868.103	13997
868.233	14031
868.364	13974
868.495	14081
868.625	14195
868.756	14259
868.886	14161
869.017	14183
869.147	14389
869.278	14309
869.408	14267
869.539	14161
869.669	14210
869.799	14377
869.929	14457
870.06	14385
870.19	14644
870.32	14564
870.45	14583
870.58	14697
870.71	14811
870.84	14868
870.97	14762
871.1	14594
871.23	14815
871.36	14857
871.489	14781
871.619	14773
871.749	14842
871.879	14834
872.008	15032
872.138	14777
872.267	14918
872.397	14712
872.526	14659
872.656	14621
872.785	14720
872.915	14937
873.044	14883
873.173	14925
873.303	14929
873.432	14994
873.561	14902
873.69	14933
873.819	14906
873.948	14929
874.077	14902
874.206	14906
874.335	14857
874.464	15047
874.593	15249
874.722	15100
874.851	15325
874.979	15268
875.108	15268
875.237	15184
875.365	15138
875.494	15123
875.623	15370
875.751	15173
875.88	15264
876.008	15351
876.136	15458
876.265	15667
876.393	15751
876.521	15812
876.65	15797
876.778	15622
876.906	15652
877.034	15694
877.162	15614
877.29	15526
877.418	15698
877.546	15618
877.674	15534
877.802	15656
877.93	15595
878.058	15629
878.185	15519
878.313	15538
878.441	15660
878.568	15496
878.696	15599
878.824	15686
878.951	15652
879.079	15884
879.206	15934
879.333	15797
879.461	15614
879.588	15747
879.715	15854
879.842	15831
879.97	15705
880.097	15545
880.224	15416
880.351	15367
880.478	15519
880.605	15424
880.732	15523
880.859	15682
880.986	15439
881.112	15606
881.239	15386
881.366	15317
881.493	15192
881.619	15218
881.746	15233
881.872	15211
881.999	15161
882.125	15020
882.252	15154
882.378	15272
882.505	15313
882.631	15108
882.757	14914
882.883	14990
883.01	14956
883.136	14899
883.262	14864
883.388	14750
883.514	14960
883.64	15005
883.766	14872
883.892	14807
884.018	14830
884.143	14910
884.269	15100
884.395	14640
884.52	14575
884.646	14701
884.772	14629
884.897	14518
885.023	14651
885.148	14773
885.274	14773
885.399	14701
885.524	14621
885.65	14663
885.775	14583
885.9	14651
886.025	14705
886.15	14724
886.275	14571
886.4	14556
886.525	14625
886.65	14579
886.775	14636
886.9	14849
887.025	14826
887.149	14712
887.274	14522
887.399	14507
887.523	14434
887.648	14454
887.773	14442
887.897	14492
888.021	14552
888.146	14404
888.27	14625
888.395	14552
888.519	14537
888.643	14484
888.767	14564
888.891	14362
889.015	14400
889.139	14355
889.263	14324
889.387	14450
889.511	14632
889.635	14613
889.759	14294
889.883	14286
890.006	14305
890.13	14450
890.254	14298
890.377	14305
890.501	14191
890.624	14123
890.748	14221
890.871	14069
890.995	13959
891.118	13951
891.241	14073
891.364	14012
891.488	14126
891.611	13974
891.734	14123
891.857	14050
891.98	14073
892.103	14142
892.226	14088
892.349	14008
892.471	13833
892.594	14012
892.717	14062
892.839	14103
892.962	14092
893.085	14126
893.207	14096
893.33	13887
893.452	14024
893.575	14161
893.697	13963
893.819	14172
893.941	14229
894.064	14149
894.186	14096
894.308	14008
894.43	14309
894.552	14286
894.674	14123
894.796	14043
894.918	14077
895.04	14081
895.161	14187
895.283	14161
895.405	14111
895.526	14202
895.648	14183
895.769	14305
895.891	14256
896.012	14248
896.134	14282
896.255	14298
896.376	14138
896.498	14214
896.619	14377
896.74	14259
896.861	14313
896.982	14556
897.103	14659
897.224	14590
897.345	14568
897.466	14412
897.587	14549
897.708	14598
897.828	14560
897.949	14480
898.07	14366
898.19	14438
898.311	14583
898.431	14549
898.552	14712
898.672	14651
898.792	14583
898.913	14670
899.033	14507
899.153	14415
899.273	14393
899.393	14328
899.513	14484
899.633	14442
899.753	14488
899.873	14370
899.993	14427
900.113	14454
900.232	14431
900.352	14377
900.472	14377
900.591	14320
900.711	14199
900.83	14275
900.95	14396
901.069	14370
901.189	14278
901.308	13959
901.427	13993
901.546	14008
901.665	14035
901.784	13989
901.904	13841
902.023	13852
902.141	13597
902.26	13540
902.379	13700
902.498	13578
902.617	13613
902.735	13563
902.854	13594
902.973	13449
903.091	13316
903.21	13327
903.328	13251
903.446	13266
903.565	13152
903.683	13187
903.801	13057
903.919	13004
904.038	13133
904.156	12901
904.274	13019
904.392	12951
904.51	12970
904.627	12935
904.745	12932
904.863	12970
904.981	12772
905.098	12612
905.216	12589
905.334	12673
905.451	12627
905.569	12551
905.686	12711
905.803	12642
905.921	12494
906.038	12563
906.155	12410
906.272	12315
906.389	12391
906.506	12266
906.623	12201
906.74	12186
906.857	12041
906.974	12155
907.091	12323
907.208	12342
907.324	12357
907.441	12186
907.557	12019
907.674	12026
907.79	11939
907.907	11946
908.023	11988
908.139	11954
908.256	11965
908.372	11980
908.488	11866
908.604	11767
908.72	11665
908.836	11623
908.952	11756
909.068	11748
909.184	11832
909.3	11756
909.415	11805
909.531	11752
909.647	11509
909.762	11474
909.878	11532
909.993	11562
910.108	11452
910.224	11417
910.339	11547
910.454	11433
910.57	11315
910.685	11345
910.8	11577
910.915	11551
911.03	11387
911.145	11189
911.259	11235
911.374	11197
911.489	11140
911.604	11067
911.718	10942
911.833	10991
911.947	10847
912.062	10816
912.176	10919
912.291	11010
912.405	10930
912.519	11189
912.633	11162
912.748	11083
912.862	10972
912.976	10850
913.09	10717
913.204	10687
913.318	10820
913.431	10923
913.545	10915
913.659	10980
913.772	10873
913.886	10675
914	10599
914.113	10835
914.226	10866
914.34	10877
914.453	10664
914.566	10763
914.68	10592
914.793	10691
914.906	10485
915.019	10409
915.132	10424
915.245	10519
915.358	10443
915.47	10470
915.583	10455
915.696	10508
915.809	10694
915.921	10630
916.034	10405
916.146	10455
916.259	10432
916.371	10489
916.483	10428
916.595	10299
916.708	10390
916.82	10398
916.932	10394
917.044	10314
917.156	10371
917.268	10268
917.38	10268
917.491	10284
917.603	10291
917.715	10295
917.826	10352
917.938	10249
918.049	10192
918.161	10211
918.272	10405
918.384	10375
918.495	10333
918.606	10135
918.717	10090
918.828	10147
918.939	10162
919.05	10051
919.161	10139
919.272	9964
919.383	10025
919.494	10272
919.604	10436
919.715	10253
919.826	10105
919.936	10169
920.047	10363
920.157	10188
920.267	10390
920.378	10246
920.488	10169
920.598	10402
920.708	10500
920.818	10405
920.928	10291
921.038	10599
921.148	10474
921.258	10253
921.368	10116
921.477	10139
921.587	10036
921.697	9895
921.806	10048
921.916	9994
922.025	9732
922.134	9728
922.244	9736
922.353	9759
922.462	9667
922.571	9530
922.68	9481
922.789	9447
922.898	9504
923.007	9317
923.116	9477
923.224	9428
923.333	9454
923.442	9287
923.55	9344
923.659	9344
923.767	9367
923.876	9253
923.984	9412
924.092	9241
924.201	9378
924.309	9264
924.417	9332
924.525	9230
924.633	9283
924.741	10002
924.849	9020
924.956	9272
925.064	9119
925.172	9001
925.279	9097
925.387	9226
925.494	9089
925.602	9272
925.709	9214
925.816	9001
925.924	9146
926.031	9146
926.138	9077
926.245	9157
926.352	9032
926.459	9199
926.566	9161
926.673	9032
926.779	8990
926.886	8956
926.993	8826
927.099	8914
927.206	8800
927.312	8785
927.419	8868
927.525	8815
927.631	8902
927.737	8781
927.843	8731
927.95	8655
928.056	8674
928.162	8735
928.267	8800
928.373	9348
928.479	8807
928.585	8522
928.69	8655
928.796	8830
928.901	8610
929.007	8507
929.112	8644
929.218	8590
929.323	8587
929.428	8579
929.533	8648
929.638	8503
929.743	8556
929.848	8503
929.953	8522
930.058	8442
930.163	8328
930.267	8294
930.372	8385
930.477	8279
930.581	8507
930.685	8431
930.79	8187
930.894	8305
930.998	8233
931.103	8381
931.207	8077
931.311	8008
931.415	7913
931.519	7788
931.623	7738
