Data from test_V78500241_519.txt Node
Date: Fri Mar 25 14:37:20 CST 2022
User: usil
Spectrometer: V785-0024
Trigger mode: 0
Integration Time (sec): 4.000000E-1
Scans to average: 1
Nonlinearity correction enabled: false
Boxcar width: 0
Storing dark spectrum: false
XAxis mode: Wavelengths
Number of Pixels in Spectrum: 1024
>>>>>Begin Spectral Data<<<<<
801.071	26902
801.214	26864
801.356	26667
801.499	26415
801.641	26180
801.783	26419
801.926	26320
802.068	26195
802.211	26088
802.353	26134
802.496	25898
802.638	25928
802.78	25997
802.923	25849
803.065	25780
803.208	25845
803.35	25677
803.492	25909
803.635	25936
803.777	25883
803.919	25898
804.061	26183
804.204	25986
804.346	25818
804.488	25719
804.63	25860
804.773	25841
804.915	25852
805.057	26012
805.199	25868
805.341	25944
805.483	25997
805.626	26103
805.768	25887
805.91	26043
806.052	26016
806.194	25997
806.336	26145
806.478	26172
806.62	25989
806.762	26244
806.904	26423
807.046	26800
807.188	26663
807.33	26758
807.472	26853
807.614	26876
807.756	26986
807.898	27142
808.04	27553
808.182	27679
808.324	28211
808.465	28767
808.607	29398
808.749	29908
808.891	30270
809.033	30311
809.174	29939
809.316	29288
809.458	28812
809.6	28101
809.741	27892
809.883	27545
810.025	27469
810.166	27283
810.308	27119
810.45	26811
810.591	26796
810.733	26533
810.875	26442
811.016	26446
811.158	26290
811.299	26488
811.441	26446
811.582	26625
811.724	26381
811.865	26172
812.007	26256
812.148	26256
812.29	26199
812.431	26415
812.573	26492
812.714	26511
812.855	26708
812.997	26727
813.138	26914
813.279	26868
813.421	26716
813.562	26560
813.703	26362
813.845	26381
813.986	26027
814.127	25818
814.268	25826
814.41	25670
814.551	25666
814.692	25639
814.833	25529
814.974	25518
815.115	25613
815.256	25491
815.397	25544
815.539	25468
815.68	25468
815.821	25377
815.962	25415
816.103	25362
816.244	25213
816.385	25091
816.526	25031
816.666	25019
816.807	24757
816.948	24924
817.089	24882
817.23	24867
817.371	24772
817.512	24665
817.653	24791
817.793	24661
817.934	24745
818.075	24840
818.216	24848
818.356	24563
818.497	24658
818.638	24410
818.778	24509
818.919	24505
819.06	24509
819.2	24505
819.341	24768
819.481	24578
819.622	24764
819.762	24810
819.903	24833
820.043	24951
820.184	24715
820.324	24783
820.465	24715
820.605	24757
820.746	24688
820.886	24456
821.026	24665
821.167	24692
821.307	24665
821.447	24669
821.588	24414
821.728	24357
821.868	24171
822.008	24125
822.149	24133
822.289	24053
822.429	23851
822.569	23764
822.709	23653
822.849	23524
822.99	23577
823.13	23379
823.27	23433
823.41	23280
823.55	23181
823.69	23315
823.83	23242
823.97	23231
824.11	22953
824.25	23109
824.389	23090
824.529	23136
824.669	22968
824.809	23140
824.949	23044
825.089	23014
825.228	23067
825.368	22858
825.508	22847
825.648	22748
825.787	22927
825.927	22850
826.067	22923
826.206	22847
826.346	22877
826.485	22847
826.625	22866
826.765	22942
826.904	22873
827.044	22557
827.183	22561
827.323	22424
827.462	22546
827.601	22565
827.741	22455
827.88	22474
828.02	22314
828.159	22402
828.298	22485
828.437	22504
828.577	22447
828.716	22584
828.855	22265
828.994	22306
829.134	22234
829.273	22139
829.412	22150
829.551	22211
829.69	22181
829.829	22257
829.968	22242
830.107	22150
830.246	22067
830.385	22135
830.524	22070
830.663	21945
830.802	21800
830.941	21736
831.08	21732
831.219	21911
831.357	21812
831.496	21945
831.635	21663
831.774	21690
831.913	21580
832.051	21572
832.19	21485
832.329	21709
832.467	21496
832.606	21386
832.744	21363
832.883	21450
833.022	21450
833.16	21603
833.299	21519
833.437	21568
833.576	21526
833.714	21473
833.852	21739
833.991	21823
834.129	21838
834.267	21743
834.406	21625
834.544	21652
834.682	21511
834.821	21614
834.959	21679
835.097	21587
835.235	21504
835.373	21534
835.511	21439
835.65	21226
835.788	21260
835.926	21165
836.064	21028
836.202	21150
836.34	21199
836.478	21393
836.615	21370
836.753	21230
836.891	21374
837.029	21401
837.167	21195
837.305	21211
837.443	21264
837.58	21142
837.718	21108
837.856	21173
837.993	20971
838.131	21020
838.269	21032
838.406	20998
838.544	21020
838.681	20800
838.819	20819
838.956	20609
839.094	20549
839.231	20625
839.369	20792
839.506	20887
839.643	20777
839.781	20556
839.918	20400
840.055	20518
840.193	20549
840.33	20492
840.467	20503
840.604	20533
840.742	20708
840.879	20328
841.016	20457
841.153	20454
841.29	20545
841.427	20434
841.564	20495
841.701	20423
841.838	20419
841.975	20404
842.112	20351
842.249	20313
842.385	20244
842.522	20503
842.659	20324
842.796	20248
842.933	20214
843.069	20218
843.206	20210
843.343	20191
843.479	20309
843.616	20183
843.752	20062
843.889	20081
844.025	20187
844.162	19970
844.298	20183
844.435	20054
844.571	20088
844.708	20168
844.844	20328
844.98	20267
845.117	20564
845.253	20499
845.389	20701
845.525	21310
845.661	22059
845.798	23296
845.934	24205
846.07	24528
846.206	24311
846.342	23752
846.478	22523
846.614	21401
846.75	20568
846.886	20202
847.022	20054
847.158	19890
847.294	19769
847.429	19635
847.565	19601
847.701	19814
847.837	19285
847.972	19194
848.108	19251
848.244	19274
848.379	19091
848.515	19004
848.65	18909
848.786	19027
848.921	19099
849.057	19168
849.192	18920
849.328	19034
849.463	18856
849.598	18985
849.734	18897
849.869	18802
850.004	18681
850.14	18741
850.275	18688
850.41	18696
850.545	18722
850.68	18760
850.815	18806
850.95	18787
851.085	18875
851.22	18970
851.355	18745
851.49	18722
851.625	18734
851.76	18669
851.895	18589
852.03	18627
852.165	18642
852.299	18726
852.434	18757
852.569	18825
852.703	18757
852.838	18901
852.973	18856
853.107	18882
853.242	18669
853.376	18502
853.511	18540
853.645	18437
853.78	18635
853.914	18597
854.048	18555
854.183	18547
854.317	18707
854.451	18753
854.585	18547
854.72	18563
854.854	18730
854.988	18604
855.122	18669
855.256	18464
855.39	18616
855.524	18696
855.658	18521
855.792	18688
855.926	18547
856.06	18563
856.194	18544
856.327	18517
856.461	18528
856.595	18517
856.729	18494
856.862	18665
856.996	18486
857.13	18513
857.263	18665
857.397	18608
857.53	18559
857.664	18536
857.797	18623
857.931	18650
858.064	18521
858.197	18635
858.331	18494
858.464	18479
858.597	18376
858.731	18513
858.864	18388
858.997	18475
859.13	18467
859.263	18502
859.396	18661
859.529	18540
859.662	18437
859.795	18342
859.928	18494
860.061	18544
860.194	18635
860.327	18437
860.46	18395
860.592	18582
860.725	18597
860.858	18498
860.99	18490
861.123	18323
861.256	18448
861.388	18441
861.521	19377
861.653	18429
861.786	18315
861.918	18327
862.05	18483
862.183	18513
862.315	18513
862.447	18509
862.58	18437
862.712	18270
862.844	18197
862.976	18308
863.108	18281
863.24	18597
863.372	18064
863.504	18152
863.636	18171
863.768	18190
863.9	18167
864.032	18034
864.164	18258
864.296	18114
864.428	18258
864.559	18148
864.691	18323
864.823	18167
864.954	18144
865.086	18228
865.217	18072
865.349	18045
865.48	18049
865.612	18178
865.743	18266
865.875	18121
866.006	18201
866.137	18190
866.269	18007
866.4	18110
866.531	18011
866.662	17999
866.793	18060
866.924	17992
867.055	18087
867.186	17984
867.317	17992
867.448	17988
867.579	17961
867.71	17946
867.841	17946
867.972	18053
868.103	18098
868.233	18053
868.364	18030
868.495	18095
868.625	18296
868.756	18391
868.886	18277
869.017	18258
869.147	18452
869.278	18460
869.408	18232
869.539	18334
869.669	18418
869.799	18372
869.929	18540
870.06	18426
870.19	18578
870.32	18570
870.45	18570
870.58	18692
870.71	18760
870.84	18859
870.97	18650
871.1	18681
871.23	18901
871.36	18894
871.489	18795
871.619	18829
871.749	18894
871.879	18859
872.008	18996
872.138	18894
872.267	18844
872.397	18886
872.526	18749
872.656	18867
872.785	18753
872.915	19008
873.044	19027
873.173	18962
873.303	19084
873.432	19015
873.561	19084
873.69	18993
873.819	19000
873.948	19061
874.077	19012
874.206	19042
874.335	19057
874.464	19129
874.593	19240
874.722	19308
874.851	19384
874.979	19373
875.108	19384
875.237	19343
875.365	19240
875.494	19434
875.623	19365
875.751	19320
875.88	19438
876.008	19525
876.136	19594
876.265	19689
876.393	19871
876.521	19849
876.65	19769
876.778	19826
876.906	19712
877.034	19731
877.162	19814
877.29	19567
877.418	19902
877.546	19811
877.674	19841
877.802	19955
877.93	19814
878.058	19841
878.185	19799
878.313	19978
878.441	20024
878.568	20107
878.696	20164
878.824	20381
878.951	20587
879.079	21032
879.206	21363
879.333	21561
879.461	21762
879.588	22051
879.715	22268
879.842	22135
879.97	21656
880.097	21028
880.224	20785
880.351	20583
880.478	20412
880.605	20339
880.732	20259
880.859	20492
880.986	20214
881.112	20233
881.239	20058
881.366	19902
881.493	19791
881.619	19765
881.746	19818
881.872	19666
881.999	19822
882.125	19700
882.252	19860
882.378	19807
882.505	19921
882.631	19833
882.757	19795
882.883	19578
883.01	19666
883.136	19495
883.262	19483
883.388	19381
883.514	19453
883.64	19712
883.766	19388
883.892	19293
884.018	19464
884.143	19537
884.269	19677
884.395	19434
884.52	19232
884.646	19221
884.772	19145
884.897	19156
885.023	19217
885.148	19236
885.274	19403
885.399	19346
885.524	19221
885.65	19247
885.775	19244
885.9	19034
886.025	19213
886.15	19202
886.275	19103
886.4	18958
886.525	18951
886.65	18916
886.775	18913
886.9	19145
887.025	19160
887.149	18928
887.274	18878
887.399	18722
887.523	18681
887.648	18601
887.773	18498
887.897	18779
888.021	18639
888.146	18540
888.27	18601
888.395	18677
888.519	18658
888.643	18688
888.767	18635
888.891	18456
889.015	18403
889.139	18448
889.263	18388
889.387	18525
889.511	18559
889.635	18513
889.759	18323
889.883	18182
890.006	18342
890.13	18334
890.254	18148
890.377	18239
890.501	18045
890.624	18057
890.748	18129
890.871	17912
890.995	17942
891.118	17783
891.241	17961
891.364	17836
891.488	18038
891.611	17958
891.734	17843
891.857	17916
891.98	17950
892.103	17935
892.226	17805
892.349	17821
892.471	17714
892.594	17657
892.717	17817
892.839	17726
892.962	17786
893.085	17882
893.207	17809
893.33	17710
893.452	17672
893.575	17855
893.697	17745
893.819	17965
893.941	18041
894.064	17809
894.186	17497
894.308	17608
894.43	17878
894.552	17916
894.674	17855
894.796	17566
894.918	17703
895.04	17649
895.161	17840
895.283	17684
895.405	17691
895.526	17741
895.648	17710
895.769	17714
895.891	17729
896.012	17809
896.134	17684
896.255	17847
896.376	17745
896.498	17794
896.619	17832
896.74	17733
896.861	17897
896.982	18254
897.103	18281
897.224	18060
897.345	17950
897.466	17992
897.587	17942
897.708	18110
897.828	18091
897.949	17958
898.07	17802
898.19	17870
898.311	18026
898.431	18011
898.552	18079
898.672	18049
898.792	18011
898.913	18003
899.033	17904
899.153	17832
899.273	17714
899.393	17764
899.513	17756
899.633	17764
899.753	17798
899.873	17802
899.993	17798
900.113	17627
900.232	17775
900.352	17707
900.472	17585
900.591	17608
900.711	17623
900.83	17509
900.95	17767
901.069	17596
901.189	17554
901.308	17341
901.427	17132
901.546	17181
901.665	17105
901.784	17204
901.904	17064
902.023	17071
902.141	16774
902.26	16725
902.379	16805
902.498	16752
902.617	16717
902.735	16748
902.854	16748
902.973	16656
903.091	16367
903.21	16207
903.328	16432
903.446	16261
903.565	16261
903.683	16257
903.801	16158
903.919	16219
904.038	16124
904.156	16010
904.274	16044
904.392	16010
904.51	15979
904.627	15991
904.745	15918
904.863	15994
904.981	15850
905.098	15561
905.216	15743
905.334	15652
905.451	15660
905.569	15603
905.686	15743
905.803	15572
905.921	15443
906.038	15526
906.155	15504
906.272	15359
906.389	15393
906.506	15279
906.623	15184
906.74	15081
906.857	15062
906.974	15093
907.091	15195
907.208	15268
907.324	15161
907.441	15047
907.557	14899
907.674	14891
907.79	14781
907.907	14906
908.023	14902
908.139	14830
908.256	14834
908.372	14792
908.488	14857
908.604	14667
908.72	14644
908.836	14579
908.952	14648
909.068	14560
909.184	14811
909.3	14564
909.415	14697
909.531	14651
909.647	14343
909.762	14355
909.878	14278
909.993	14404
910.108	14317
910.224	14347
910.339	14278
910.454	14142
910.57	14103
910.685	13993
910.8	14377
910.915	14244
911.03	14168
911.145	13944
911.259	13917
911.374	13932
911.489	13890
911.604	13845
911.718	13666
911.833	13742
911.947	13605
912.062	13483
912.176	13677
912.291	13704
912.405	13609
912.519	13936
912.633	13879
912.748	13742
912.862	13620
912.976	13537
913.09	13415
913.204	13468
913.318	13495
913.431	13609
913.545	13609
913.659	13590
913.772	13529
913.886	13312
914	13346
914.113	13525
914.226	13472
914.34	13434
914.453	13251
914.566	13464
914.68	13343
914.793	13244
914.906	13122
915.019	13046
915.132	13023
915.245	12981
915.358	13027
915.47	13194
915.583	13065
915.696	13099
915.809	13194
915.921	13221
916.034	13103
916.146	12932
916.259	12943
916.371	12996
916.483	13072
916.595	12844
916.708	12905
916.82	12943
916.932	12973
917.044	12951
917.156	12848
917.268	12730
917.38	12791
917.491	12700
917.603	12821
917.715	12878
917.826	12844
917.938	12726
918.049	12593
918.161	12764
918.272	12886
918.384	12859
918.495	12688
918.606	12703
918.717	12490
918.828	12585
918.939	12623
919.05	12490
919.161	12494
919.272	12384
919.383	12448
919.494	12623
919.604	12798
919.715	12559
919.826	12467
919.936	12585
920.047	12604
920.157	12582
920.267	12631
920.378	12623
920.488	12593
920.598	12715
920.708	12757
920.818	12726
920.928	12688
921.038	12875
921.148	12791
921.258	12502
921.368	12388
921.477	12369
921.587	12254
921.697	12171
921.806	12273
921.916	12140
922.025	11927
922.134	11969
922.244	12026
922.353	12011
922.462	11912
922.571	11783
922.68	11554
922.789	11592
922.898	11634
923.007	11558
923.116	11653
923.224	11577
923.333	11570
923.442	11543
923.55	11433
923.659	11417
923.767	11589
923.876	11471
923.984	11474
924.092	11410
924.201	11425
924.309	11463
924.417	11444
924.525	11376
924.633	11395
924.741	12125
924.849	11197
924.956	11296
925.064	11231
925.172	11090
925.279	11105
925.387	11124
925.494	11143
925.602	11258
925.709	11265
925.816	11064
925.924	11132
926.031	11246
926.138	11223
926.245	11193
926.352	11029
926.459	11193
926.566	11223
926.673	11075
926.779	10938
926.886	10972
926.993	10790
927.099	10805
927.206	10763
927.312	10809
927.419	10885
927.525	10828
927.631	10801
927.737	10672
927.843	10641
927.95	10531
928.056	10607
928.162	10618
928.267	10687
928.373	11201
928.479	10691
928.585	10535
928.69	10660
928.796	10607
928.901	10497
929.007	10436
929.112	10516
929.218	10500
929.323	10379
929.428	10360
929.533	10493
929.638	10318
929.743	10375
929.848	10527
929.953	10409
930.058	10265
930.163	10200
930.267	10166
930.372	10280
930.477	10173
930.581	10382
930.685	10185
930.79	10036
930.894	10032
930.998	10002
931.103	10192
931.207	9800
931.311	9660
931.415	9599
931.519	9473
931.623	9466
