Data from test_V78500241_2950.txt Node
Date: Fri Mar 25 14:54:15 CST 2022
User: usil
Spectrometer: V785-0024
Trigger mode: 0
Integration Time (sec): 4.000000E-1
Scans to average: 1
Nonlinearity correction enabled: false
Boxcar width: 0
Storing dark spectrum: false
XAxis mode: Wavelengths
Number of Pixels in Spectrum: 1024
>>>>>Begin Spectral Data<<<<<
801.071	22169
801.214	21968
801.356	21766
801.499	21698
801.641	21507
801.783	21435
801.926	21610
802.068	21401
802.211	21435
802.353	21332
802.496	21135
802.638	20910
802.78	20941
802.923	20815
803.065	20769
803.208	20689
803.35	20921
803.492	20845
803.635	20826
803.777	20785
803.919	20902
804.061	21112
804.204	20804
804.346	20689
804.488	20686
804.63	20686
804.773	20651
804.915	20720
805.057	20826
805.199	20648
805.341	20796
805.483	20762
805.626	20838
805.768	20598
805.91	20705
806.052	20636
806.194	20701
806.336	20773
806.478	20697
806.62	20552
806.762	20765
806.904	20796
807.046	21009
807.188	21104
807.33	21058
807.472	21119
807.614	20868
807.756	21051
807.898	20826
808.04	20838
808.182	20819
808.324	20712
808.465	20800
808.607	21123
808.749	21142
808.891	21214
809.033	21230
809.174	21051
809.316	21142
809.458	21058
809.6	21039
809.741	21077
809.883	21123
810.025	21313
810.166	21180
810.308	21283
810.45	21093
810.591	21112
810.733	20986
810.875	20796
811.016	20788
811.158	20629
811.299	20883
811.441	21005
811.582	21036
811.724	20838
811.865	20830
812.007	20765
812.148	20777
812.29	20876
812.431	20979
812.573	21268
812.714	21359
812.855	21214
812.997	21386
813.138	21564
813.279	21553
813.421	21340
813.562	21275
813.703	21135
813.845	21081
813.986	20655
814.127	20526
814.268	20522
814.41	20480
814.551	20339
814.692	20434
814.833	20374
814.974	20374
815.115	20400
815.256	20278
815.397	20225
815.539	20180
815.68	20240
815.821	20062
815.962	20214
816.103	20115
816.244	19989
816.385	19837
816.526	19799
816.666	19624
816.807	19605
816.948	19616
817.089	19639
817.23	19510
817.371	19521
817.512	19559
817.653	19441
817.793	19411
817.934	19502
818.075	19578
818.216	19464
818.356	19464
818.497	19358
818.638	19152
818.778	19190
818.919	19190
819.06	19301
819.2	19259
819.341	19263
819.481	19411
819.622	19426
819.762	19651
819.903	19696
820.043	19537
820.184	19521
820.324	19438
820.465	19552
820.605	19575
820.746	19354
820.886	19419
821.026	19460
821.167	19422
821.307	19518
821.447	19335
821.588	19343
821.728	19244
821.868	19061
822.008	18833
822.149	18913
822.289	18852
822.429	18639
822.569	18544
822.709	18616
822.849	18486
822.99	18369
823.13	18270
823.27	18292
823.41	18247
823.55	18076
823.69	18167
823.83	18239
823.97	18167
824.11	17954
824.25	17950
824.389	17923
824.529	18015
824.669	18076
824.809	18102
824.949	18045
825.089	18030
825.228	17973
825.368	17752
825.508	17783
825.648	17805
825.787	17771
825.927	17752
826.067	17592
826.206	17707
826.346	17767
826.485	17798
826.625	17752
826.765	17847
826.904	17893
827.044	17615
827.183	17520
827.323	17410
827.462	17497
827.601	17368
827.741	17425
827.88	17459
828.02	17345
828.159	17417
828.298	17509
828.437	17471
828.577	17398
828.716	17570
828.855	17379
828.994	17250
829.134	17147
829.273	17193
829.412	17212
829.551	17212
829.69	17204
829.829	17200
829.968	17273
830.107	17216
830.246	17208
830.385	17140
830.524	17075
830.663	17124
830.802	16896
830.941	16896
831.08	16828
831.219	16881
831.357	16858
831.496	17113
831.635	16885
831.774	16664
831.913	16736
832.051	16615
832.19	16569
832.329	16637
832.467	16561
832.606	16409
832.744	16516
832.883	16500
833.022	16516
833.16	16493
833.299	16573
833.437	16542
833.576	16637
833.714	16531
833.852	16611
833.991	16573
834.129	16626
834.267	16649
834.406	16592
834.544	16561
834.682	16516
834.821	16683
834.959	16713
835.097	16531
835.235	16740
835.373	16504
835.511	16561
835.65	16478
835.788	16500
835.926	16352
836.064	16230
836.202	16253
836.34	16447
836.478	16508
836.615	16462
836.753	16367
836.891	16554
837.029	16542
837.167	16417
837.305	16394
837.443	16394
837.58	16310
837.718	16390
837.856	16329
837.993	16265
838.131	16284
838.269	16287
838.406	16223
838.544	16120
838.681	15991
838.819	16067
838.956	15903
839.094	15907
839.231	15934
839.369	16010
839.506	16207
839.643	16154
839.781	15934
839.918	15831
840.055	15884
840.193	15911
840.33	15819
840.467	15873
840.604	15865
840.742	16120
840.879	15808
841.016	15808
841.153	15766
841.29	15880
841.427	15755
841.564	15975
841.701	15922
841.838	15785
841.975	15686
842.112	15720
842.249	15660
842.385	15545
842.522	15793
842.659	15679
842.796	15648
842.933	15686
843.069	15580
843.206	15625
843.343	15755
843.479	15656
843.616	15622
843.752	15351
843.889	15431
844.025	15530
844.162	15382
844.298	15576
844.435	15466
844.571	15485
844.708	15492
844.844	15576
844.98	15614
845.117	15568
845.253	15393
845.389	15260
845.525	15386
845.661	15249
845.798	15241
845.934	15275
846.07	15218
846.206	15313
846.342	15367
846.478	15306
846.614	14971
846.75	15001
846.886	14960
847.022	15043
847.158	15077
847.294	14982
847.429	15039
847.565	15017
847.701	15138
847.837	14765
847.972	14689
848.108	14811
848.244	14880
848.379	14632
848.515	14602
848.65	14640
848.786	14636
848.921	14511
849.057	14659
849.192	14705
849.328	14545
849.463	14678
849.598	14530
849.734	14492
849.869	14438
850.004	14324
850.14	14469
850.275	14454
850.41	14286
850.545	14358
850.68	14313
850.815	14362
850.95	14294
851.085	14552
851.22	14465
851.355	14374
851.49	14358
851.625	14358
851.76	14282
851.895	14267
852.03	14256
852.165	14389
852.299	14282
852.434	14396
852.569	14454
852.703	14419
852.838	14461
852.973	14533
853.107	14522
853.242	14286
853.376	14271
853.511	14084
853.645	14225
853.78	14396
853.914	14214
854.048	14187
854.183	14168
854.317	14187
854.451	14415
854.585	14153
854.72	14183
854.854	14244
854.988	14180
855.122	14195
855.256	14130
855.39	14088
855.524	14286
855.658	14206
855.792	14313
855.926	14313
856.06	14282
856.194	14362
856.327	14244
856.461	14183
856.595	14145
856.729	14191
856.862	14313
856.996	14271
857.13	14377
857.263	14324
857.397	14309
857.53	14256
857.664	14290
857.797	14237
857.931	14400
858.064	14271
858.197	14328
858.331	14183
858.464	14195
858.597	14115
858.731	14180
858.864	14298
858.997	14134
859.13	14267
859.263	14187
859.396	14248
859.529	14210
859.662	14176
859.795	14233
859.928	14244
860.061	14267
860.194	14442
860.327	14256
860.46	14267
860.592	14324
860.725	14358
860.858	14332
860.99	14240
861.123	14237
861.256	14145
861.388	14237
861.521	14682
861.653	14130
861.786	14039
861.918	14088
862.05	14134
862.183	14145
862.315	14183
862.447	14233
862.58	14164
862.712	13993
862.844	13993
862.976	14084
863.108	14024
863.24	14339
863.372	13940
863.504	14016
863.636	13955
863.768	14069
863.9	13974
864.032	13974
864.164	13963
864.296	14107
864.428	14142
864.559	14126
864.691	14081
864.823	14073
864.954	14050
865.086	14001
865.217	14005
865.349	13871
865.48	13928
865.612	13940
865.743	14161
865.875	14081
866.006	14035
866.137	14012
866.269	13928
866.4	13978
866.531	14016
866.662	13925
866.793	13974
866.924	13917
867.055	14020
867.186	14001
867.317	13944
867.448	13803
867.579	14020
867.71	13947
867.841	13951
867.972	13982
868.103	13963
868.233	13936
868.364	13978
868.495	14005
868.625	14286
868.756	14347
868.886	14161
869.017	14252
869.147	14374
869.278	14351
869.408	14180
869.539	14275
869.669	14343
869.799	14244
869.929	14404
870.06	14442
870.19	14476
870.32	14545
870.45	14613
870.58	14606
870.71	14750
870.84	14678
870.97	14602
871.1	14648
871.23	14811
871.36	14796
871.489	14689
871.619	14792
871.749	14785
871.879	14861
872.008	14933
872.138	14769
872.267	14819
872.397	14758
872.526	14682
872.656	14602
872.785	14724
872.915	14849
873.044	15005
873.173	14842
873.303	14971
873.432	14952
873.561	14849
873.69	14872
873.819	14830
873.948	14971
874.077	14876
874.206	14712
874.335	14914
874.464	15024
874.593	15169
874.722	15207
874.851	15287
874.979	15195
875.108	15161
875.237	15142
875.365	15131
875.494	15150
875.623	15272
875.751	15241
875.88	15302
876.008	15325
876.136	15523
876.265	15622
876.393	15778
876.521	15641
876.65	15713
876.778	15591
876.906	15595
877.034	15637
877.162	15561
877.29	15595
877.418	15618
877.546	15644
877.674	15618
877.802	15591
877.93	15629
878.058	15595
878.185	15557
878.313	15568
878.441	15568
878.568	15458
878.696	15610
878.824	15610
878.951	15705
879.079	15747
879.206	15899
879.333	15778
879.461	15701
879.588	15728
879.715	15762
879.842	15846
879.97	15618
880.097	15561
880.224	15439
880.351	15618
880.478	15420
880.605	15355
880.732	15424
880.859	15652
880.986	15481
881.112	15542
881.239	15329
881.366	15214
881.493	15089
881.619	15100
881.746	15207
881.872	15150
881.999	15131
882.125	14979
882.252	15173
882.378	15097
882.505	15233
882.631	15070
882.757	14857
882.883	14887
883.01	14918
883.136	14830
883.262	14773
883.388	14678
883.514	14906
883.64	14941
883.766	14948
883.892	14712
884.018	14705
884.143	14895
884.269	15024
884.395	14667
884.52	14682
884.646	14720
884.772	14621
884.897	14541
885.023	14659
885.148	14705
885.274	14853
885.399	14804
885.524	14590
885.65	14689
885.775	14667
885.9	14533
886.025	14765
886.15	14701
886.275	14644
886.4	14522
886.525	14537
886.65	14541
886.775	14682
886.9	14838
887.025	14906
887.149	14590
887.274	14442
887.399	14427
887.523	14412
887.648	14366
887.773	14370
887.897	14480
888.021	14549
888.146	14298
888.27	14610
888.395	14636
888.519	14526
888.643	14454
888.767	14457
888.891	14366
889.015	14298
889.139	14393
889.263	14366
889.387	14408
889.511	14621
889.635	14476
889.759	14305
889.883	14278
890.006	14339
890.13	14423
890.254	14229
890.377	14252
890.501	14119
890.624	14103
890.748	14199
890.871	14123
890.995	14016
891.118	14050
891.241	13978
891.364	14073
891.488	14065
891.611	14027
891.734	13997
891.857	14115
891.98	14035
892.103	14092
892.226	14081
892.349	14065
892.471	13894
892.594	14016
892.717	14088
892.839	13917
892.962	14058
893.085	14077
893.207	13986
893.33	13883
893.452	13993
893.575	14020
893.697	13963
893.819	14225
893.941	14199
894.064	14229
894.186	14103
894.308	14069
894.43	14187
894.552	14275
894.674	14138
894.796	14020
894.918	14100
895.04	14088
895.161	14172
895.283	14168
895.405	14134
895.526	14130
895.648	14145
895.769	14180
895.891	14180
896.012	14263
896.134	14229
896.255	14221
896.376	14221
896.498	14263
896.619	14271
896.74	14301
896.861	14381
896.982	14552
897.103	14735
897.224	14541
897.345	14610
897.466	14419
897.587	14530
897.708	14640
897.828	14575
897.949	14434
898.07	14415
898.19	14454
898.311	14655
898.431	14469
898.552	14579
898.672	14598
898.792	14701
898.913	14632
899.033	14446
899.153	14389
899.273	14377
899.393	14423
899.513	14408
899.633	14454
899.753	14457
899.873	14358
899.993	14488
900.113	14434
900.232	14408
900.352	14389
900.472	14389
900.591	14218
900.711	14271
900.83	14256
900.95	14362
901.069	14385
901.189	14244
901.308	14027
901.427	13978
901.546	14027
901.665	14039
901.784	13986
901.904	13841
902.023	13757
902.141	13540
902.26	13445
902.379	13609
902.498	13548
902.617	13544
902.735	13597
902.854	13556
902.973	13525
903.091	13373
903.21	13198
903.328	13232
903.446	13187
903.565	13004
903.683	13126
903.801	13057
903.919	13118
904.038	13118
904.156	12958
904.274	13038
904.392	12985
904.51	13008
904.627	12833
904.745	12947
904.863	12985
904.981	12684
905.098	12616
905.216	12593
905.334	12604
905.451	12585
905.569	12627
905.686	12627
905.803	12646
905.921	12502
906.038	12521
906.155	12490
906.272	12342
906.389	12342
906.506	12201
906.623	12182
906.74	12247
906.857	12030
906.974	12125
907.091	12228
907.208	12380
907.324	12197
907.441	12102
907.557	11973
907.674	11927
907.79	11920
907.907	12026
908.023	12003
908.139	12015
908.256	11977
908.372	11889
908.488	11923
908.604	11767
908.72	11695
908.836	11665
908.952	11657
909.068	11653
909.184	11752
909.3	11718
909.415	11764
909.531	11752
909.647	11467
909.762	11452
909.878	11334
909.993	11425
910.108	11486
910.224	11444
910.339	11493
910.454	11360
910.57	11395
910.685	11269
910.8	11600
910.915	11509
911.03	11414
911.145	11151
911.259	11090
911.374	11166
911.489	11056
911.604	11098
911.718	10927
911.833	10915
911.947	10915
912.062	10748
912.176	10881
912.291	10949
912.405	10900
912.519	11079
912.633	11094
912.748	10961
912.862	10919
912.976	10843
913.09	10729
913.204	10729
913.318	10820
913.431	10892
913.545	10885
913.659	10908
913.772	10774
913.886	10694
914	10683
914.113	10740
914.226	10790
914.34	10733
914.453	10599
914.566	10744
914.68	10675
914.793	10630
914.906	10478
915.019	10363
915.132	10371
915.245	10462
915.358	10402
915.47	10489
915.583	10493
915.696	10527
915.809	10630
915.921	10580
916.034	10356
916.146	10485
916.259	10421
916.371	10558
916.483	10428
916.595	10337
916.708	10432
916.82	10382
916.932	10303
917.044	10295
917.156	10314
917.268	10215
917.38	10227
917.491	10207
917.603	10310
917.715	10386
917.826	10466
917.938	10227
918.049	10196
918.161	10291
918.272	10443
918.384	10421
918.495	10325
918.606	10219
918.717	10055
918.828	10143
918.939	10109
919.05	10078
919.161	10173
919.272	10013
919.383	9983
919.494	10188
919.604	10375
919.715	10124
919.826	10071
919.936	10169
920.047	10215
920.157	10169
920.267	10356
920.378	10238
920.488	10173
920.598	10386
920.708	10656
920.818	10344
920.928	10409
921.038	10523
921.148	10493
921.258	10272
921.368	10166
921.477	10116
921.587	10071
921.697	9975
921.806	10082
921.916	9895
922.025	9740
922.134	9743
922.244	9743
922.353	9740
922.462	9671
922.571	9545
922.68	9428
922.789	9435
922.898	9507
923.007	9374
923.116	9359
923.224	9450
923.333	9428
923.442	9351
923.55	9401
923.659	9367
923.767	9351
923.876	9233
923.984	9321
924.092	9218
924.201	9291
924.309	9283
924.417	9313
924.525	9253
924.633	9245
924.741	10150
924.849	9047
924.956	9218
925.064	9055
925.172	8990
925.279	9097
925.387	9089
925.494	9169
925.602	9249
925.709	9192
925.816	9001
925.924	9028
926.031	9146
926.138	9097
926.245	9173
926.352	9055
926.459	9127
926.566	9211
926.673	9001
926.779	8982
926.886	8952
926.993	8811
927.099	8811
927.206	8743
927.312	8796
927.419	8887
927.525	8754
927.631	8868
927.737	8712
927.843	8701
927.95	8545
928.056	8697
928.162	8682
928.267	8720
928.373	9374
928.479	8815
928.585	8503
928.69	8727
928.796	8743
928.901	8648
929.007	8484
929.112	8625
929.218	8552
929.323	8571
929.428	8541
929.533	8621
929.638	8423
929.743	8450
929.848	8492
929.953	8484
930.058	8446
930.163	8202
930.267	8279
930.372	8374
930.477	8259
930.581	8526
930.685	8377
930.79	8256
930.894	8320
930.998	8229
931.103	8408
931.207	8008
931.311	7947
931.415	7921
931.519	7738
931.623	7757
