Data from test_V78500241_399.txt Node
Date: Fri Mar 25 14:36:30 CST 2022
User: usil
Spectrometer: V785-0024
Trigger mode: 0
Integration Time (sec): 4.000000E-1
Scans to average: 1
Nonlinearity correction enabled: false
Boxcar width: 0
Storing dark spectrum: false
XAxis mode: Wavelengths
Number of Pixels in Spectrum: 1024
>>>>>Begin Spectral Data<<<<<
801.071	26887
801.214	26537
801.356	26415
801.499	26301
801.641	26214
801.783	26103
801.926	26237
802.068	26092
802.211	25986
802.353	25974
802.496	25947
802.638	25841
802.78	25571
802.923	25780
803.065	25727
803.208	25594
803.35	25693
803.492	25681
803.635	25841
803.777	25651
803.919	25769
804.061	25944
804.204	25715
804.346	25616
804.488	25571
804.63	25567
804.773	25601
804.915	25601
805.057	25864
805.199	25719
805.341	25875
805.483	25833
805.626	25772
805.768	25765
805.91	25712
806.052	25833
806.194	25658
806.336	25887
806.478	25750
806.62	25605
806.762	25837
806.904	25940
807.046	26187
807.188	26111
807.33	26050
807.472	26183
807.614	26035
807.756	25966
807.898	25997
808.04	25890
808.182	25868
808.324	25890
808.465	25913
808.607	26062
808.749	26187
808.891	26275
809.033	26511
809.174	26233
809.316	26149
809.458	26164
809.6	26218
809.741	26396
809.883	26290
810.025	26393
810.166	26427
810.308	26415
810.45	26366
810.591	26267
810.733	26084
810.875	26096
811.016	26020
811.158	25814
811.299	26062
811.441	26126
811.582	26195
811.724	25978
811.865	25966
812.007	26077
812.148	26073
812.29	26221
812.431	26157
812.573	26191
812.714	26358
812.855	26453
812.997	26655
813.138	26750
813.279	26640
813.421	26530
813.562	26613
813.703	26263
813.845	26328
813.986	25860
814.127	25803
814.268	25693
814.41	25651
814.551	25693
814.692	25693
814.833	25609
814.974	25556
815.115	25514
815.256	25365
815.397	25460
815.539	25350
815.68	25339
815.821	25297
815.962	25362
816.103	25411
816.244	25103
816.385	24966
816.526	25099
816.666	24776
816.807	24654
816.948	24787
817.089	24821
817.23	24772
817.371	24833
817.512	24791
817.653	24722
817.793	24544
817.934	24639
818.075	24692
818.216	24608
818.356	24631
818.497	24498
818.638	24429
818.778	24384
818.919	24395
819.06	24464
819.2	24601
819.341	24612
819.481	24673
819.622	24711
819.762	24837
819.903	24734
820.043	24745
820.184	24840
820.324	24726
820.465	24806
820.605	24623
820.746	24684
820.886	24593
821.026	24563
821.167	24623
821.307	24612
821.447	24471
821.588	24566
821.728	24350
821.868	24262
822.008	24197
822.149	24068
822.289	23969
822.429	23821
822.569	23634
822.709	23741
822.849	23433
822.99	23531
823.13	23440
823.27	23543
823.41	23326
823.55	23284
823.69	23258
823.83	23292
823.97	23242
824.11	23090
824.25	23105
824.389	23231
824.529	23136
824.669	23064
824.809	23178
824.949	23231
825.089	23105
825.228	23033
825.368	22847
825.508	22968
825.648	22877
825.787	22957
825.927	22968
826.067	22675
826.206	22854
826.346	22900
826.485	22900
826.625	22782
826.765	22873
826.904	22961
827.044	22645
827.183	22535
827.323	22561
827.462	22668
827.601	22546
827.741	22451
827.88	22493
828.02	22375
828.159	22497
828.298	22451
828.437	22603
828.577	22611
828.716	22622
828.855	22466
828.994	22352
829.134	22215
829.273	22363
829.412	22265
829.551	22147
829.69	22188
829.829	22169
829.968	22238
830.107	22265
830.246	22226
830.385	22131
830.524	22040
830.663	21876
830.802	21895
830.941	21895
831.08	21751
831.219	21884
831.357	21827
831.496	22002
831.635	21819
831.774	21622
831.913	21709
832.051	21682
832.19	21667
832.329	21637
832.467	21454
832.606	21287
832.744	21416
832.883	21412
833.022	21447
833.16	21405
833.299	21466
833.437	21473
833.576	21580
833.714	21401
833.852	21595
833.991	21587
834.129	21526
834.267	21606
834.406	21370
834.544	21545
834.682	21568
834.821	21435
834.959	21557
835.097	21310
835.235	21576
835.373	21507
835.511	21564
835.65	21291
835.788	21340
835.926	21096
836.064	21005
836.202	21123
836.34	21348
836.478	21249
836.615	21233
836.753	21370
836.891	21378
837.029	21279
837.167	21161
837.305	21173
837.443	21184
837.58	21222
837.718	21089
837.856	21279
837.993	21123
838.131	21192
838.269	20941
838.406	21051
838.544	21036
838.681	20838
838.819	20861
838.956	20765
839.094	20640
839.231	20674
839.369	20811
839.506	20994
839.643	20746
839.781	20598
839.918	20644
840.055	20579
840.193	20598
840.33	20484
840.467	20632
840.604	20571
840.742	20693
840.879	20400
841.016	20377
841.153	20446
841.29	20598
841.427	20541
841.564	20537
841.701	20507
841.838	20495
841.975	20415
842.112	20404
842.249	20320
842.385	20244
842.522	20492
842.659	20278
842.796	20221
842.933	20191
843.069	20092
843.206	20195
843.343	20393
843.479	20301
843.616	20210
843.752	20142
843.889	19963
844.025	20111
844.162	19909
844.298	20149
844.435	19947
844.571	19936
844.708	19951
844.844	20225
844.98	20142
845.117	20164
845.253	19894
845.389	19928
845.525	19864
845.661	19970
845.798	19852
845.934	19989
846.07	19719
846.206	19818
846.342	19849
846.478	19719
846.614	19415
846.75	19460
846.886	19434
847.022	19601
847.158	19491
847.294	19400
847.429	19533
847.565	19521
847.701	19681
847.837	19232
847.972	19289
848.108	19308
848.244	19194
848.379	19088
848.515	18905
848.65	19031
848.786	18954
848.921	19137
849.057	19160
849.192	19072
849.328	19065
849.463	19137
849.598	19000
849.734	18939
849.869	18783
850.004	18810
850.14	18692
850.275	18947
850.41	18749
850.545	18665
850.68	18730
850.815	18757
850.95	18753
851.085	18981
851.22	18795
851.355	18757
851.49	18688
851.625	18570
851.76	18608
851.895	18604
852.03	18650
852.165	18741
852.299	18749
852.434	18711
852.569	18814
852.703	18566
852.838	18726
852.973	18859
853.107	18821
853.242	18776
853.376	18639
853.511	18433
853.645	18498
853.78	18642
853.914	18578
854.048	18483
854.183	18490
854.317	18684
854.451	18642
854.585	18502
854.72	18521
854.854	18517
854.988	18399
855.122	18608
855.256	18437
855.39	18448
855.524	18639
855.658	18639
855.792	18528
855.926	18604
856.06	18608
856.194	18429
856.327	18486
856.461	18399
856.595	18471
856.729	18601
856.862	18650
856.996	18612
857.13	18650
857.263	18700
857.397	18681
857.53	18563
857.664	18521
857.797	18566
857.931	18604
858.064	18631
858.197	18555
858.331	18528
858.464	18407
858.597	18357
858.731	18486
858.864	18426
858.997	18456
859.13	18433
859.263	18585
859.396	18627
859.529	18490
859.662	18452
859.795	18441
859.928	18429
860.061	18700
860.194	18547
860.327	18563
860.46	18471
860.592	18604
860.725	18593
860.858	18646
860.99	18483
861.123	18509
861.256	18467
861.388	18513
861.521	19285
861.653	18407
861.786	18376
861.918	18376
862.05	18380
862.183	18506
862.315	18540
862.447	18574
862.58	18563
862.712	18403
862.844	18247
862.976	18235
863.108	18403
863.24	18597
863.372	18327
863.504	18182
863.636	18266
863.768	18365
863.9	18266
864.032	18091
864.164	18102
864.296	18197
864.428	18395
864.559	18395
864.691	18342
864.823	18342
864.954	18163
865.086	18159
865.217	18194
865.349	18159
865.48	18167
865.612	18098
865.743	18311
865.875	18155
866.006	18114
866.137	18102
866.269	18163
866.4	18110
866.531	18114
866.662	18072
866.793	18144
866.924	18148
867.055	18254
867.186	18174
867.317	18098
867.448	18076
867.579	18038
867.71	18064
867.841	18030
867.972	18159
868.103	18140
868.233	18129
868.364	18007
868.495	18087
868.625	18216
868.756	18384
868.886	18277
869.017	18323
869.147	18479
869.278	18429
869.408	18342
869.539	18323
869.669	18426
869.799	18464
869.929	18570
870.06	18513
870.19	18673
870.32	18646
870.45	18612
870.58	18681
870.71	18776
870.84	18806
870.97	18719
871.1	18802
871.23	18817
871.36	19004
871.489	18719
871.619	18859
871.749	18989
871.879	18962
872.008	18993
872.138	18954
872.267	18913
872.397	18817
872.526	18821
872.656	18684
872.785	18844
872.915	18985
873.044	19069
873.173	18977
873.303	18977
873.432	18920
873.561	19133
873.69	18947
873.819	19008
873.948	19240
874.077	18985
874.206	18973
874.335	19015
874.464	19160
874.593	19198
874.722	19244
874.851	19350
874.979	19346
875.108	19289
875.237	19206
875.365	19213
875.494	19308
875.623	19362
875.751	19152
875.88	19316
876.008	19434
876.136	19480
876.265	19502
876.393	19712
876.521	19666
876.65	19708
876.778	19704
876.906	19586
877.034	19651
877.162	19601
877.29	19552
877.418	19613
877.546	19578
877.674	19658
877.802	19613
877.93	19658
878.058	19510
878.185	19510
878.313	19605
878.441	19609
878.568	19476
878.696	19460
878.824	19662
878.951	19708
879.079	19883
879.206	19849
879.333	19704
879.461	19856
879.588	19685
879.715	19944
879.842	19974
879.97	19586
880.097	19430
880.224	19426
880.351	19453
880.478	19533
880.605	19430
880.732	19441
880.859	19643
880.986	19460
881.112	19388
881.239	19392
881.366	19301
881.493	19122
881.619	19061
881.746	19190
881.872	19053
881.999	19091
882.125	19061
882.252	19190
882.378	19061
882.505	19240
882.631	19015
882.757	18947
882.883	18913
883.01	18905
883.136	18810
883.262	18722
883.388	18715
883.514	18894
883.64	18871
883.766	18734
883.892	18631
884.018	18563
884.143	18776
884.269	18935
884.395	18635
884.52	18445
884.646	18528
884.772	18467
884.897	18338
885.023	18536
885.148	18673
885.274	18673
885.399	18506
885.524	18464
885.65	18498
885.775	18467
885.9	18483
886.025	18563
886.15	18574
886.275	18509
886.4	18407
886.525	18391
886.65	18350
886.775	18490
886.9	18498
887.025	18620
887.149	18441
887.274	18292
887.399	18292
887.523	18292
887.648	18167
887.773	18209
887.897	18311
888.021	18380
888.146	18228
888.27	18467
888.395	18304
888.519	18308
888.643	18346
888.767	18346
888.891	18209
889.015	17939
889.139	18182
889.263	18117
889.387	18133
889.511	18308
889.635	18110
889.759	18019
889.883	18022
890.006	18121
890.13	18174
890.254	18053
890.377	18030
890.501	17771
890.624	17882
890.748	17729
890.871	17794
890.995	17687
891.118	17646
891.241	17733
891.364	17661
891.488	17866
891.611	17752
891.734	17585
891.857	17779
891.98	17752
892.103	17726
892.226	17729
892.349	17729
892.471	17478
892.594	17623
892.717	17813
892.839	17581
892.962	17710
893.085	17745
893.207	17562
893.33	17539
893.452	17646
893.575	17699
893.697	17611
893.819	17726
893.941	17786
894.064	17805
894.186	17535
894.308	17615
894.43	17775
894.552	17786
894.674	17779
894.796	17551
894.918	17638
895.04	17649
895.161	17661
895.283	17676
895.405	17592
895.526	17680
895.648	17585
895.769	17722
895.891	17661
896.012	17684
896.134	17737
896.255	17821
896.376	17741
896.498	17646
896.619	17821
896.74	17737
896.861	17714
896.982	18148
897.103	18178
897.224	18064
897.345	17980
897.466	17866
897.587	17988
897.708	18030
897.828	17961
897.949	17836
898.07	17779
898.19	17927
898.311	18110
898.431	17931
898.552	18041
898.672	18007
898.792	18022
898.913	18030
899.033	17882
899.153	17771
899.273	17543
899.393	17718
899.513	17843
899.633	17745
899.753	17824
899.873	17745
899.993	17714
900.113	17619
900.232	17680
900.352	17638
900.472	17634
900.591	17478
900.711	17604
900.83	17471
900.95	17665
901.069	17684
901.189	17524
901.308	17299
901.427	17181
901.546	17223
901.665	17212
901.784	17197
901.904	17010
902.023	16919
902.141	16809
902.26	16725
902.379	16778
902.498	16763
902.617	16694
902.735	16771
902.854	16748
902.973	16565
903.091	16386
903.21	16436
903.328	16421
903.446	16234
903.565	16166
903.683	16226
903.801	16097
903.919	16188
904.038	16162
904.156	15998
904.274	16078
904.392	15926
904.51	15949
904.627	15956
904.745	16059
904.863	16040
904.981	15759
905.098	15648
905.216	15709
905.334	15679
905.451	15717
905.569	15618
905.686	15606
905.803	15660
905.921	15507
906.038	15523
906.155	15481
906.272	15310
906.389	15450
906.506	15310
906.623	15146
906.74	15230
906.857	15131
906.974	15157
907.091	15264
907.208	15329
907.324	15226
907.441	15138
907.557	15070
907.674	14887
907.79	14880
907.907	14861
908.023	14895
908.139	15001
908.256	14815
908.372	14735
908.488	14788
908.604	14743
908.72	14590
908.836	14625
908.952	14537
909.068	14762
909.184	14800
909.3	14575
909.415	14644
909.531	14682
909.647	14313
909.762	14351
909.878	14355
909.993	14374
910.108	14374
910.224	14320
910.339	14362
910.454	14233
910.57	14111
910.685	14058
910.8	14438
910.915	14263
911.03	14153
911.145	14027
911.259	13879
911.374	13982
911.489	13887
911.604	13944
911.718	13696
911.833	13674
911.947	13666
912.062	13525
912.176	13723
912.291	13704
912.405	13632
912.519	13883
912.633	13890
912.748	13811
912.862	13628
912.976	13620
913.09	13453
913.204	13506
913.318	13525
913.431	13666
913.545	13544
913.659	13601
913.772	13514
913.886	13362
914	13411
914.113	13453
914.226	13510
914.34	13510
914.453	13354
914.566	13438
914.68	13358
914.793	13266
914.906	13126
915.019	13061
915.132	13042
915.245	13099
915.358	13088
915.47	13099
915.583	13084
915.696	13103
915.809	13137
915.921	13190
916.034	13004
916.146	12993
916.259	13023
916.371	13050
916.483	13050
916.595	12981
916.708	12901
916.82	12943
916.932	12920
917.044	12909
917.156	12905
917.268	12783
917.38	12814
917.491	12757
917.603	12768
917.715	12776
917.826	12909
917.938	12673
918.049	12654
918.161	12711
918.272	12856
918.384	12871
918.495	12696
918.606	12631
918.717	12521
918.828	12528
918.939	12551
919.05	12513
919.161	12460
919.272	12407
919.383	12433
919.494	12585
919.604	12760
919.715	12582
919.826	12506
919.936	12585
920.047	12582
920.157	12521
920.267	12684
920.378	12570
920.488	12433
920.598	12738
920.708	12894
920.818	12715
920.928	12627
921.038	12817
921.148	12829
921.258	12566
921.368	12426
921.477	12292
921.587	12315
921.697	12243
921.806	12319
921.916	12190
922.025	12007
922.134	11923
922.244	11961
922.353	12034
922.462	11851
922.571	11878
922.68	11657
922.789	11630
922.898	11646
923.007	11661
923.116	11646
923.224	11649
923.333	11665
923.442	11444
923.55	11414
923.659	11589
923.767	11490
923.876	11539
923.984	11528
924.092	11395
924.201	11433
924.309	11425
924.417	11395
924.525	11353
924.633	11429
924.741	12216
924.849	11121
924.956	11288
925.064	11242
925.172	11067
925.279	11147
925.387	11189
925.494	11132
925.602	11330
925.709	11280
925.816	11143
925.924	11235
926.031	11322
926.138	11181
926.245	11193
926.352	11102
926.459	11143
926.566	11181
926.673	11094
926.779	11003
926.886	10949
926.993	10862
927.099	10843
927.206	10736
927.312	10828
927.419	10782
927.525	10755
927.631	10683
927.737	10626
927.843	10637
927.95	10550
928.056	10596
928.162	10691
928.267	10714
928.373	11349
928.479	10694
928.585	10485
928.69	10546
928.796	10607
928.901	10538
929.007	10348
929.112	10584
929.218	10440
929.323	10363
929.428	10462
929.533	10561
929.638	10272
929.743	10390
929.848	10455
929.953	10390
930.058	10299
930.163	10067
930.267	10105
930.372	10310
930.477	10036
930.581	10303
930.685	10181
930.79	10032
930.894	10188
930.998	9979
931.103	10074
931.207	9762
931.311	9720
931.415	9682
931.519	9416
931.623	9386
