Data from test_V78500241_1770.txt Node
Date: Fri Mar 25 14:46:02 CST 2022
User: usil
Spectrometer: V785-0024
Trigger mode: 0
Integration Time (sec): 4.000000E-1
Scans to average: 1
Nonlinearity correction enabled: false
Boxcar width: 0
Storing dark spectrum: false
XAxis mode: Wavelengths
Number of Pixels in Spectrum: 1024
>>>>>Begin Spectral Data<<<<<
801.071	22200
801.214	22074
801.356	21873
801.499	21629
801.641	21538
801.783	21477
801.926	21595
802.068	21458
802.211	21450
802.353	21382
802.496	21135
802.638	21096
802.78	21028
802.923	20967
803.065	20842
803.208	20849
803.35	20929
803.492	20994
803.635	21001
803.777	20887
803.919	20963
804.061	21344
804.204	20933
804.346	20834
804.488	20724
804.63	20895
804.773	20823
804.915	20857
805.057	20849
805.199	20773
805.341	20902
805.483	20963
805.626	20731
805.768	20674
805.91	20811
806.052	20819
806.194	20769
806.336	20826
806.478	20792
806.62	20853
806.762	20925
806.904	20990
807.046	21275
807.188	21245
807.33	21188
807.472	21256
807.614	20956
807.756	21127
807.898	20963
808.04	20826
808.182	20906
808.324	20952
808.465	20990
808.607	21009
808.749	21272
808.891	21249
809.033	21477
809.174	21245
809.316	21195
809.458	21230
809.6	21150
809.741	21218
809.883	21252
810.025	21405
810.166	21412
810.308	21329
810.45	21363
810.591	21180
810.733	21096
810.875	20944
811.016	21001
811.158	20743
811.299	21036
811.441	21039
811.582	21127
811.724	20933
811.865	20842
812.007	20956
812.148	20952
812.29	21009
812.431	21256
812.573	21222
812.714	21321
812.855	21507
812.997	21603
813.138	21698
813.279	21485
813.421	21553
813.562	21348
813.703	21184
813.845	21233
813.986	20853
814.127	20693
814.268	20518
814.41	20568
814.551	20499
814.692	20583
814.833	20473
814.974	20396
815.115	20438
815.256	20351
815.397	20412
815.539	20457
815.68	20199
815.821	20100
815.962	20298
816.103	20172
816.244	20126
816.385	20050
816.526	19967
816.666	19826
816.807	19609
816.948	19575
817.089	19738
817.23	19757
817.371	19628
817.512	19567
817.653	19666
817.793	19632
817.934	19590
818.075	19651
818.216	19715
818.356	19594
818.497	19506
818.638	19487
818.778	19217
818.919	19422
819.06	19533
819.2	19400
819.341	19525
819.481	19529
819.622	19674
819.762	19807
819.903	19856
820.043	19708
820.184	19601
820.324	19506
820.465	19742
820.605	19639
820.746	19708
820.886	19556
821.026	19658
821.167	19639
821.307	19628
821.447	19487
821.588	19502
821.728	19400
821.868	19339
822.008	19099
822.149	19019
822.289	18996
822.429	18890
822.569	18814
822.709	18795
822.849	18506
822.99	18448
823.13	18582
823.27	18540
823.41	18334
823.55	18266
823.69	18433
823.83	18300
823.97	18311
824.11	18148
824.25	18030
824.389	18102
824.529	18209
824.669	18209
824.809	18182
824.949	18209
825.089	18194
825.228	18155
825.368	17950
825.508	17843
825.648	17961
825.787	17920
825.927	17931
826.067	17817
826.206	17824
826.346	17942
826.485	17855
826.625	17737
826.765	17988
826.904	17916
827.044	17634
827.183	17577
827.323	17532
827.462	17608
827.601	17581
827.741	17615
827.88	17520
828.02	17535
828.159	17551
828.298	17642
828.437	17707
828.577	17657
828.716	17752
828.855	17570
828.994	17303
829.134	17474
829.273	17353
829.412	17349
829.551	17216
829.69	17349
829.829	17391
829.968	17398
830.107	17395
830.246	17334
830.385	17273
830.524	17280
830.663	17014
830.802	17025
830.941	16927
831.08	17003
831.219	17045
831.357	17022
831.496	17170
831.635	16938
831.774	16934
831.913	16850
832.051	16763
832.19	16790
832.329	16812
832.467	16729
832.606	16596
832.744	16596
832.883	16664
833.022	16577
833.16	16656
833.299	16626
833.437	16607
833.576	16653
833.714	16729
833.852	16569
833.991	16713
834.129	16729
834.267	16801
834.406	16672
834.544	16801
834.682	16713
834.821	16713
834.959	16850
835.097	16672
835.235	16820
835.373	16577
835.511	16679
835.65	16599
835.788	16668
835.926	16516
836.064	16398
836.202	16466
836.34	16618
836.478	16683
836.615	16535
836.753	16645
836.891	16736
837.029	16599
837.167	16592
837.305	16512
837.443	16523
837.58	16417
837.718	16531
837.856	16481
837.993	16417
838.131	16462
838.269	16405
838.406	16333
838.544	16318
838.681	16173
838.819	16166
838.956	16071
839.094	15983
839.231	16059
839.369	16086
839.506	16394
839.643	16207
839.781	16063
839.918	15937
840.055	16002
840.193	16013
840.33	16074
840.467	16036
840.604	16013
840.742	16116
840.879	15941
841.016	15979
841.153	15873
841.29	16010
841.427	16097
841.564	16013
841.701	16002
841.838	15873
841.975	15895
842.112	15903
842.249	15861
842.385	15850
842.522	15922
842.659	15793
842.796	15770
842.933	15823
843.069	15732
843.206	15660
843.343	15762
843.479	15827
843.616	15804
843.752	15500
843.889	15580
844.025	15736
844.162	15492
844.298	15762
844.435	15549
844.571	15728
844.708	15534
844.844	15797
844.98	15743
845.117	15568
845.253	15431
845.389	15428
845.525	15523
845.661	15477
845.798	15374
845.934	15496
846.07	15336
846.206	15397
846.342	15416
846.478	15306
846.614	15203
846.75	15066
846.886	15161
847.022	15222
847.158	15093
847.294	15150
847.429	15192
847.565	15097
847.701	15355
847.837	14857
847.972	14796
848.108	14914
848.244	15051
848.379	14781
848.515	14739
848.65	14667
848.786	14758
848.921	14800
849.057	14792
849.192	14838
849.328	14758
849.463	14682
849.598	14762
849.734	14659
849.869	14629
850.004	14579
850.14	14602
850.275	14541
850.41	14442
850.545	14514
850.68	14442
850.815	14511
850.95	14564
851.085	14708
851.22	14636
851.355	14552
851.49	14480
851.625	14480
851.76	14408
851.895	14393
852.03	14465
852.165	14583
852.299	14465
852.434	14533
852.569	14556
852.703	14518
852.838	14689
852.973	14693
853.107	14621
853.242	14533
853.376	14381
853.511	14240
853.645	14355
853.78	14507
853.914	14336
854.048	14347
854.183	14351
854.317	14431
854.451	14438
854.585	14385
854.72	14305
854.854	14469
854.988	14240
855.122	14431
855.256	14123
855.39	14358
855.524	14499
855.658	14442
855.792	14461
855.926	14377
856.06	14473
856.194	14514
856.327	14404
856.461	14324
856.595	14343
856.729	14400
856.862	14511
856.996	14385
857.13	14438
857.263	14473
857.397	14454
857.53	14461
857.664	14347
857.797	14362
857.931	14488
858.064	14389
858.197	14423
858.331	14339
858.464	14454
858.597	14267
858.731	14362
858.864	14343
858.997	14336
859.13	14488
859.263	14313
859.396	14469
859.529	14480
859.662	14263
859.795	14343
859.928	14381
860.061	14495
860.194	14602
860.327	14484
860.46	14393
860.592	14473
860.725	14514
860.858	14552
860.99	14336
861.123	14313
861.256	14328
861.388	14400
861.521	15123
861.653	14240
861.786	14244
861.918	14252
862.05	14271
862.183	14324
862.315	14320
862.447	14370
862.58	14305
862.712	14134
862.844	14016
862.976	14202
863.108	14183
863.24	14446
863.372	14050
863.504	14111
863.636	14145
863.768	14267
863.9	14252
864.032	14054
864.164	14092
864.296	14248
864.428	14206
864.559	14218
864.691	14180
864.823	14290
864.954	14153
865.086	14168
865.217	14237
865.349	14138
865.48	14183
865.612	14210
865.743	14298
865.875	14233
866.006	14081
866.137	14092
866.269	14138
866.4	14115
866.531	14084
866.662	14111
866.793	14088
866.924	14134
867.055	14252
867.186	14206
867.317	14069
867.448	13986
867.579	14142
867.71	13997
867.841	14008
867.972	14119
868.103	14096
868.233	14176
868.364	14100
868.495	14278
868.625	14358
868.756	14480
868.886	14252
869.017	14419
869.147	14450
869.278	14465
869.408	14465
869.539	14404
869.669	14461
869.799	14480
869.929	14575
870.06	14434
870.19	14727
870.32	14739
870.45	14686
870.58	14800
870.71	14823
870.84	14906
870.97	14686
871.1	14857
871.23	14982
871.36	14895
871.489	14834
871.619	14952
871.749	14937
871.879	15013
872.008	15077
872.138	15009
872.267	14990
872.397	14819
872.526	14826
872.656	14807
872.785	14765
872.915	15089
873.044	15036
873.173	14986
873.303	15066
873.432	15188
873.561	15127
873.69	15013
873.819	15055
873.948	15055
874.077	14956
874.206	15013
874.335	15039
874.464	15203
874.593	15291
874.722	15279
874.851	15435
874.979	15443
875.108	15408
875.237	15298
875.365	15294
875.494	15264
875.623	15469
875.751	15264
875.88	15389
876.008	15561
876.136	15561
876.265	15770
876.393	15937
876.521	15930
876.65	15797
876.778	15739
876.906	15774
877.034	15766
877.162	15690
877.29	15675
877.418	15778
877.546	15789
877.674	15724
877.802	15663
877.93	15732
878.058	15660
878.185	15633
878.313	15797
878.441	15808
878.568	15584
878.696	15648
878.824	15743
878.951	15907
879.079	15861
879.206	16086
879.333	15987
879.461	15846
879.588	15747
879.715	15907
879.842	16082
879.97	15800
880.097	15629
880.224	15625
880.351	15720
880.478	15644
880.605	15595
880.732	15618
880.859	15838
880.986	15530
881.112	15705
881.239	15496
881.366	15302
881.493	15279
881.619	15249
881.746	15321
881.872	15264
881.999	15233
882.125	15325
882.252	15306
882.378	15302
882.505	15378
882.631	15268
882.757	15123
882.883	15176
883.01	15123
883.136	15093
883.262	14998
883.388	14921
883.514	15169
883.64	15173
883.766	15032
883.892	14838
884.018	14921
884.143	15097
884.269	15192
884.395	14864
884.52	14727
884.646	14807
884.772	14708
884.897	14689
885.023	14697
885.148	14769
885.274	14845
885.399	14906
885.524	14857
885.65	14754
885.775	14891
885.9	14792
886.025	14994
886.15	14792
886.275	14727
886.4	14686
886.525	14746
886.65	14651
886.775	14746
886.9	14960
887.025	15077
887.149	14838
887.274	14549
887.399	14579
887.523	14625
887.648	14476
887.773	14484
887.897	14720
888.021	14689
888.146	14560
888.27	14750
888.395	14705
888.519	14705
888.643	14682
888.767	14769
888.891	14632
889.015	14423
889.139	14503
889.263	14351
889.387	14617
889.511	14686
889.635	14678
889.759	14465
889.883	14476
890.006	14590
890.13	14518
890.254	14454
890.377	14396
890.501	14317
890.624	14328
890.748	14320
890.871	14164
890.995	14145
891.118	14123
891.241	14088
891.364	14157
891.488	14339
891.611	14172
891.734	14142
891.857	14206
891.98	14187
892.103	14259
892.226	14256
892.349	14157
892.471	14020
892.594	14088
892.717	14195
892.839	14187
892.962	14229
893.085	14225
893.207	14225
893.33	14142
893.452	14016
893.575	14282
893.697	14058
893.819	14347
893.941	14400
894.064	14305
894.186	14130
894.308	14119
894.43	14313
894.552	14377
894.674	14252
894.796	14123
894.918	14172
895.04	14103
895.161	14305
895.283	14256
895.405	14301
895.526	14275
895.648	14187
895.769	14259
895.891	14248
896.012	14396
896.134	14412
896.255	14259
896.376	14271
896.498	14324
896.619	14358
896.74	14362
896.861	14465
896.982	14724
897.103	14792
897.224	14556
897.345	14632
897.466	14454
897.587	14659
897.708	14701
897.828	14697
897.949	14571
898.07	14568
898.19	14568
898.311	14705
898.431	14613
898.552	14682
898.672	14811
898.792	14773
898.913	14796
899.033	14545
899.153	14511
899.273	14499
899.393	14423
899.513	14629
899.633	14663
899.753	14617
899.873	14518
899.993	14587
900.113	14499
900.232	14461
900.352	14492
900.472	14469
900.591	14355
900.711	14419
900.83	14423
900.95	14454
901.069	14526
901.189	14286
901.308	14134
901.427	14092
901.546	14062
901.665	14142
901.784	14164
901.904	13974
902.023	13868
902.141	13689
902.26	13586
902.379	13799
902.498	13590
902.617	13533
902.735	13700
902.854	13655
902.973	13556
903.091	13445
903.21	13396
903.328	13434
903.446	13316
903.565	13285
903.683	13293
903.801	13164
903.919	13160
904.038	13152
904.156	13000
904.274	13091
904.392	12977
904.51	13084
904.627	13012
904.745	13072
904.863	13129
904.981	12795
905.098	12719
905.216	12719
905.334	12795
905.451	12692
905.569	12642
905.686	12696
905.803	12673
905.921	12578
906.038	12627
906.155	12555
906.272	12395
906.389	12365
906.506	12361
906.623	12422
906.74	12300
906.857	12155
906.974	12239
907.091	12323
907.208	12448
907.324	12308
907.441	12254
907.557	12057
907.674	12159
907.79	11961
907.907	11958
908.023	12064
908.139	12049
908.256	12076
908.372	11992
908.488	11931
908.604	11843
908.72	11752
908.836	11790
908.952	11729
909.068	11866
909.184	11935
909.3	11836
909.415	11756
909.531	11851
909.647	11520
909.762	11623
909.878	11478
909.993	11509
910.108	11577
910.224	11493
910.339	11604
910.454	11516
910.57	11433
910.685	11368
910.8	11684
910.915	11627
911.03	11452
911.145	11322
911.259	11360
911.374	11345
911.489	11258
911.604	11170
911.718	11006
911.833	11060
911.947	10930
912.062	10858
912.176	11064
912.291	11025
912.405	10949
912.519	11277
912.633	11223
912.748	11109
912.862	11090
912.976	10904
913.09	10885
913.204	10869
913.318	10896
913.431	11052
913.545	11048
913.659	11143
913.772	10938
913.886	10786
914	10744
914.113	10858
914.226	10968
914.34	10858
914.453	10710
914.566	10858
914.68	10816
914.793	10740
914.906	10546
915.019	10538
915.132	10455
915.245	10466
915.358	10527
915.47	10535
915.583	10546
915.696	10615
915.809	10706
915.921	10683
916.034	10485
916.146	10462
916.259	10447
916.371	10580
916.483	10565
916.595	10424
916.708	10558
916.82	10485
916.932	10481
917.044	10466
917.156	10474
917.268	10299
917.38	10417
917.491	10280
917.603	10371
917.715	10493
917.826	10523
917.938	10443
918.049	10204
918.161	10337
918.272	10504
918.384	10538
918.495	10478
918.606	10284
918.717	10131
918.828	10246
918.939	10280
919.05	10162
919.161	10234
919.272	10017
919.383	10131
919.494	10287
919.604	10447
919.715	10257
919.826	10207
919.936	10234
920.047	10405
920.157	10356
920.267	10443
920.378	10276
920.488	10265
920.598	10474
920.708	10615
920.818	10504
920.928	10478
921.038	10580
921.148	10653
921.258	10348
921.368	10211
921.477	10143
921.587	10048
921.697	10059
921.806	10188
921.916	10029
922.025	9861
922.134	9857
922.244	9793
922.353	9861
922.462	9781
922.571	9614
922.68	9538
922.789	9477
922.898	9561
923.007	9485
923.116	9538
923.224	9515
923.333	9473
923.442	9340
923.55	9492
923.659	9454
923.767	9458
923.876	9359
923.984	9458
924.092	9233
924.201	9477
924.309	9351
924.417	9340
924.525	9245
924.633	9325
924.741	10299
924.849	9131
924.956	9230
925.064	9161
925.172	9024
925.279	9112
925.387	9192
925.494	9233
925.602	9275
925.709	9237
925.816	9100
925.924	9119
926.031	9283
926.138	9188
926.245	9291
926.352	9119
926.459	9176
926.566	9279
926.673	9100
926.779	9047
926.886	8921
926.993	8986
927.099	8895
927.206	8876
927.312	8796
927.419	8944
927.525	8864
927.631	8876
927.737	8807
927.843	8762
927.95	8689
928.056	8823
928.162	8769
928.267	8796
928.373	9454
928.479	8925
928.585	8583
928.69	8796
928.796	8777
928.901	8610
929.007	8549
929.112	8621
929.218	8663
929.323	8667
929.428	8625
929.533	8686
929.638	8541
929.743	8598
929.848	8575
929.953	8632
930.058	8522
930.163	8377
930.267	8328
930.372	8556
930.477	8339
930.581	8518
930.685	8427
930.79	8275
930.894	8309
930.998	8256
931.103	8442
931.207	8058
931.311	8062
931.415	8039
931.519	7826
931.623	7788
