Data from test_V78500241_1215.txt Node
Date: Fri Mar 25 14:42:10 CST 2022
User: usil
Spectrometer: V785-0024
Trigger mode: 0
Integration Time (sec): 4.000000E-1
Scans to average: 1
Nonlinearity correction enabled: false
Boxcar width: 0
Storing dark spectrum: false
XAxis mode: Wavelengths
Number of Pixels in Spectrum: 1024
>>>>>Begin Spectral Data<<<<<
801.071	22382
801.214	22325
801.356	22048
801.499	21873
801.641	21751
801.783	21701
801.926	21857
802.068	21705
802.211	21644
802.353	21572
802.496	21431
802.638	21272
802.78	21298
802.923	21249
803.065	21077
803.208	21138
803.35	21093
803.492	21096
803.635	21287
803.777	21070
803.919	21165
804.061	21458
804.204	21165
804.346	21161
804.488	20967
804.63	21043
804.773	20979
804.915	21085
805.057	21188
805.199	21020
805.341	21047
805.483	21233
805.626	21157
805.768	20876
805.91	20952
806.052	20971
806.194	20891
806.336	21211
806.478	21104
806.62	21047
806.762	21146
806.904	21214
807.046	21431
807.188	21264
807.33	21408
807.472	21355
807.614	21279
807.756	21272
807.898	21211
808.04	21173
808.182	21279
808.324	21081
808.465	21195
808.607	21317
808.749	21481
808.891	21534
809.033	21682
809.174	21591
809.316	21511
809.458	21477
809.6	21439
809.741	21405
809.883	21511
810.025	21637
810.166	21564
810.308	21610
810.45	21458
810.591	21561
810.733	21298
810.875	21260
811.016	21036
811.158	21104
811.299	21150
811.441	21401
811.582	21291
811.724	21272
811.865	21066
812.007	21188
812.148	21138
812.29	21298
812.431	21408
812.573	21580
812.714	21583
812.855	21679
812.997	21766
813.138	21899
813.279	21846
813.421	21766
813.562	21534
813.703	21428
813.845	21363
813.986	21077
814.127	20861
814.268	20788
814.41	20807
814.551	20857
814.692	20872
814.833	20716
814.974	20655
815.115	20716
815.256	20621
815.397	20640
815.539	20556
815.68	20446
815.821	20495
815.962	20587
816.103	20511
816.244	20320
816.385	20214
816.526	20336
816.666	20024
816.807	19925
816.948	19982
817.089	20161
817.23	19967
817.371	19928
817.512	19993
817.653	19940
817.793	19868
817.934	19833
818.075	19913
818.216	19871
818.356	19826
818.497	19814
818.638	19582
818.778	19628
818.919	19635
819.06	19601
819.2	19772
819.341	19830
819.481	19761
819.622	19761
819.762	20138
819.903	19989
820.043	19947
820.184	19989
820.324	19936
820.465	19955
820.605	19982
820.746	19879
820.886	19772
821.026	19837
821.167	19913
821.307	19734
821.447	19769
821.588	19734
821.728	19586
821.868	19354
822.008	19202
822.149	19384
822.289	19324
822.429	19015
822.569	19004
822.709	19065
822.849	18852
822.99	18871
823.13	18829
823.27	18703
823.41	18646
823.55	18578
823.69	18669
823.83	18616
823.97	18703
824.11	18338
824.25	18388
824.389	18330
824.529	18433
824.669	18460
824.809	18426
824.949	18494
825.089	18544
825.228	18376
825.368	18201
825.508	18152
825.648	18182
825.787	18186
825.927	18148
826.067	18087
826.206	18194
826.346	18133
826.485	18117
826.625	18136
826.765	18323
826.904	18110
827.044	18057
827.183	17878
827.323	17809
827.462	17984
827.601	17908
827.741	17916
827.88	17794
828.02	17828
828.159	17779
828.298	17851
828.437	17935
828.577	17809
828.716	17980
828.855	17745
828.994	17680
829.134	17592
829.273	17665
829.412	17592
829.551	17524
829.69	17566
829.829	17551
829.968	17665
830.107	17699
830.246	17611
830.385	17551
830.524	17512
830.663	17391
830.802	17258
830.941	17231
831.08	17284
831.219	17277
831.357	17296
831.496	17478
831.635	17239
831.774	17181
831.913	17083
832.051	17143
832.19	17010
832.329	17006
832.467	16987
832.606	16938
832.744	17006
832.883	16892
833.022	16999
833.16	16927
833.299	16965
833.437	17006
833.576	17075
833.714	17041
833.852	17029
833.991	17006
834.129	17121
834.267	17132
834.406	16949
834.544	16930
834.682	17010
834.821	17060
834.959	17079
835.097	16904
835.235	17178
835.373	17056
835.511	16938
835.65	16980
835.788	16877
835.926	16759
836.064	16603
836.202	16736
836.34	16976
836.478	16930
836.615	16767
836.753	16923
836.891	17041
837.029	16858
837.167	16862
837.305	16828
837.443	16778
837.58	16763
837.718	16793
837.856	16797
837.993	16835
838.131	16748
838.269	16687
838.406	16793
838.544	16618
838.681	16470
838.819	16409
838.956	16276
839.094	16367
839.231	16432
839.369	16519
839.506	16778
839.643	16508
839.781	16386
839.918	16344
840.055	16379
840.193	16310
840.33	16188
840.467	16249
840.604	16337
840.742	16561
840.879	16166
841.016	16200
841.153	16234
841.29	16398
841.427	16337
841.564	16398
841.701	16363
841.838	16341
841.975	16120
842.112	16363
842.249	16048
842.385	16074
842.522	16188
842.659	16162
842.796	16105
842.933	16044
843.069	16078
843.206	16029
843.343	16192
843.479	16059
843.616	16135
843.752	15869
843.889	15922
844.025	15972
844.162	15915
844.298	15987
844.435	15888
844.571	15846
844.708	15949
844.844	15975
844.98	15987
845.117	15956
845.253	15911
845.389	15884
845.525	15918
845.661	15816
845.798	15705
845.934	15762
846.07	15724
846.206	15747
846.342	15812
846.478	15759
846.614	15526
846.75	15405
846.886	15420
847.022	15587
847.158	15428
847.294	15637
847.429	15572
847.565	15477
847.701	15698
847.837	15093
847.972	15241
848.108	15298
848.244	15291
848.379	15066
848.515	15039
848.65	15047
848.786	15062
848.921	15055
849.057	15085
849.192	15214
849.328	15043
849.463	15058
849.598	15039
849.734	14975
849.869	14921
850.004	14868
850.14	14883
850.275	14826
850.41	14705
850.545	14834
850.68	14883
850.815	14864
850.95	14788
851.085	14975
851.22	14895
851.355	14857
851.49	14800
851.625	14807
851.76	14735
851.895	14727
852.03	14720
852.165	14765
852.299	14834
852.434	14887
852.569	14891
852.703	14807
852.838	14895
852.973	14986
853.107	14944
853.242	14796
853.376	14602
853.511	14568
853.645	14587
853.78	14857
853.914	14678
854.048	14655
854.183	14606
854.317	14697
854.451	14823
854.585	14648
854.72	14552
854.854	14697
854.988	14537
855.122	14678
855.256	14503
855.39	14686
855.524	14712
855.658	14792
855.792	14682
855.926	14727
856.06	14750
856.194	14773
856.327	14754
856.461	14667
856.595	14667
856.729	14716
856.862	14781
856.996	14606
857.13	14750
857.263	14686
857.397	14830
857.53	14682
857.664	14735
857.797	14750
857.931	14781
858.064	14720
858.197	14762
858.331	14541
858.464	14545
858.597	14556
858.731	14712
858.864	14606
858.997	14727
859.13	14667
859.263	14670
859.396	14712
859.529	14629
859.662	14731
859.795	14526
859.928	14682
860.061	14853
860.194	14861
860.327	14743
860.46	14701
860.592	14834
860.725	14712
860.858	14769
860.99	14640
861.123	14655
861.256	14640
861.388	14724
861.521	15367
861.653	14518
861.786	14507
861.918	14526
862.05	14579
862.183	14689
862.315	14674
862.447	14788
862.58	14636
862.712	14454
862.844	14415
862.976	14518
863.108	14541
863.24	14902
863.372	14404
863.504	14408
863.636	14465
863.768	14488
863.9	14484
864.032	14442
864.164	14374
864.296	14575
864.428	14541
864.559	14568
864.691	14427
864.823	14518
864.954	14537
865.086	14530
865.217	14438
865.349	14415
865.48	14412
865.612	14385
865.743	14549
865.875	14415
866.006	14423
866.137	14393
866.269	14507
866.4	14419
866.531	14499
866.662	14419
866.793	14374
866.924	14408
867.055	14431
867.186	14461
867.317	14298
867.448	14404
867.579	14351
867.71	14366
867.841	14377
867.972	14355
868.103	14419
868.233	14469
868.364	14450
868.495	14484
868.625	14686
868.756	14762
868.886	14625
869.017	14617
869.147	14785
869.278	14807
869.408	14571
869.539	14693
869.669	14762
869.799	14686
869.929	14895
870.06	14815
870.19	14925
870.32	14994
870.45	15013
870.58	15081
870.71	15222
870.84	15264
870.97	15047
871.1	15097
871.23	15195
871.36	15268
871.489	15161
871.619	15116
871.749	15325
871.879	15359
872.008	15363
872.138	15287
872.267	15268
872.397	15199
872.526	15112
872.656	15081
872.785	15085
872.915	15298
873.044	15412
873.173	15287
873.303	15439
873.432	15405
873.561	15370
873.69	15332
873.819	15351
873.948	15355
874.077	15340
874.206	15279
874.335	15359
874.464	15507
874.593	15648
874.722	15576
874.851	15679
874.979	15736
875.108	15686
875.237	15595
875.365	15606
875.494	15564
875.623	15728
875.751	15625
875.88	15724
876.008	15812
876.136	15816
876.265	16173
876.393	16177
876.521	16036
876.65	16097
876.778	16067
876.906	16010
877.034	16017
877.162	15937
877.29	16090
877.418	16048
877.546	15964
877.674	16120
877.802	16090
877.93	16017
878.058	16044
878.185	15975
878.313	16036
878.441	15956
878.568	15918
878.696	15956
878.824	16128
878.951	16124
879.079	16322
879.206	16398
879.333	16242
879.461	16173
879.588	16196
879.715	16299
879.842	16333
879.97	16188
880.097	15895
880.224	15903
880.351	15960
880.478	15895
880.605	15903
880.732	15861
880.859	16196
880.986	16002
881.112	15991
881.239	15800
881.366	15747
881.493	15584
881.619	15576
881.746	15603
881.872	15534
881.999	15504
882.125	15481
882.252	15709
882.378	15660
882.505	15728
882.631	15519
882.757	15374
882.883	15386
883.01	15424
883.136	15302
883.262	15218
883.388	15272
883.514	15466
883.64	15382
883.766	15313
883.892	15211
884.018	15173
884.143	15401
884.269	15454
884.395	15150
884.52	15055
884.646	15074
884.772	15005
884.897	15020
885.023	15043
885.148	15138
885.274	15207
885.399	15199
885.524	15081
885.65	15074
885.775	15146
885.9	15028
886.025	15131
886.15	15058
886.275	14979
886.4	14967
886.525	14982
886.65	14956
886.775	14826
886.9	15180
887.025	15218
887.149	15036
887.274	14941
887.399	14861
887.523	14960
887.648	14864
887.773	14864
887.897	14868
888.021	14937
888.146	14891
888.27	14963
888.395	15039
888.519	14933
888.643	14857
888.767	14918
888.891	14842
889.015	14754
889.139	14769
889.263	14762
889.387	14792
889.511	15070
889.635	14880
889.759	14781
889.883	14655
890.006	14785
890.13	14800
890.254	14743
890.377	14667
890.501	14469
890.624	14526
890.748	14625
890.871	14537
890.995	14351
891.118	14427
891.241	14381
891.364	14537
891.488	14590
891.611	14492
891.734	14393
891.857	14549
891.98	14438
892.103	14590
892.226	14541
892.349	14438
892.471	14415
892.594	14480
892.717	14412
892.839	14366
892.962	14461
893.085	14533
893.207	14457
893.33	14336
893.452	14431
893.575	14434
893.697	14381
893.819	14617
893.941	14651
894.064	14583
894.186	14431
894.308	14408
894.43	14484
894.552	14689
894.674	14648
894.796	14480
894.918	14533
895.04	14362
895.161	14594
895.283	14545
895.405	14412
895.526	14499
895.648	14575
895.769	14507
895.891	14598
896.012	14625
896.134	14731
896.255	14655
896.376	14571
896.498	14549
896.619	14621
896.74	14598
896.861	14670
896.982	14929
897.103	14990
897.224	14902
897.345	14971
897.466	14758
897.587	14857
897.708	14979
897.828	14906
897.949	14712
898.07	14785
898.19	14788
898.311	14952
898.431	14853
898.552	14918
898.672	15066
898.792	15055
898.913	14944
899.033	14857
899.153	14864
899.273	14781
899.393	14731
899.513	14727
899.633	14762
899.753	14777
899.873	14735
899.993	14849
900.113	14689
900.232	14826
900.352	14819
900.472	14648
900.591	14583
900.711	14708
900.83	14667
900.95	14701
901.069	14720
901.189	14427
901.308	14393
901.427	14267
901.546	14259
901.665	14328
901.784	14282
901.904	14286
902.023	14100
902.141	13894
902.26	13841
902.379	13917
902.498	13928
902.617	13776
902.735	13913
902.854	13841
902.973	13799
903.091	13499
903.21	13525
903.328	13578
903.446	13559
903.565	13343
903.683	13422
903.801	13430
903.919	13472
904.038	13441
904.156	13278
904.274	13388
904.392	13228
904.51	13103
904.627	13179
904.745	13247
904.863	13297
904.981	13122
905.098	12909
905.216	12981
905.334	12989
905.451	12943
905.569	12905
905.686	12958
905.803	13019
905.921	12814
906.038	12878
906.155	12817
906.272	12715
906.389	12730
906.506	12502
906.623	12540
906.74	12616
906.857	12361
906.974	12494
907.091	12597
907.208	12570
907.324	12563
907.441	12513
907.557	12315
907.674	12311
907.79	12254
907.907	12258
908.023	12220
908.139	12285
908.256	12262
908.372	12152
908.488	12228
908.604	12140
908.72	11996
908.836	12057
908.952	11973
909.068	12091
909.184	12186
909.3	12011
909.415	12121
909.531	12060
909.647	11779
909.762	11866
909.878	11756
909.993	11832
910.108	11802
910.224	11794
910.339	11847
910.454	11710
910.57	11672
910.685	11589
910.8	11840
910.915	11756
911.03	11665
911.145	11433
911.259	11539
911.374	11490
911.489	11299
911.604	11372
911.718	11204
911.833	11258
911.947	11220
912.062	11098
912.176	11315
912.291	11280
912.405	11345
912.519	11459
912.633	11467
912.748	11337
912.862	11208
912.976	11117
913.09	10980
913.204	11060
913.318	11201
913.431	11223
913.545	11124
913.659	11242
913.772	11117
913.886	11079
914	10957
914.113	11041
914.226	11117
914.34	11064
914.453	10896
914.566	11128
914.68	11006
914.793	10927
914.906	10767
915.019	10744
915.132	10687
915.245	10679
915.358	10691
915.47	10774
915.583	10793
915.696	10790
915.809	10824
915.921	10961
916.034	10725
916.146	10702
916.259	10679
916.371	10812
916.483	10820
916.595	10656
916.708	10653
916.82	10653
916.932	10645
917.044	10706
917.156	10653
917.268	10546
917.38	10615
917.491	10519
917.603	10561
917.715	10653
917.826	10672
917.938	10596
918.049	10409
918.161	10565
918.272	10630
918.384	10725
918.495	10577
918.606	10500
918.717	10394
918.828	10474
918.939	10478
919.05	10363
919.161	10462
919.272	10295
919.383	10287
919.494	10436
919.604	10641
919.715	10440
919.826	10344
919.936	10436
920.047	10573
920.157	10508
920.267	10603
920.378	10535
920.488	10500
920.598	10637
920.708	10740
920.818	10653
920.928	10611
921.038	10797
921.148	10771
921.258	10436
921.368	10405
921.477	10333
921.587	10284
921.697	10162
921.806	10310
921.916	10234
922.025	10002
922.134	9975
922.244	9876
922.353	10059
922.462	9873
922.571	9770
922.68	9679
922.789	9679
922.898	9679
923.007	9675
923.116	9751
923.224	9701
923.333	9671
923.442	9576
923.55	9549
923.659	9595
923.767	9610
923.876	9561
923.984	9690
924.092	9435
924.201	9549
924.309	9534
924.417	9622
924.525	9511
924.633	9431
924.741	10291
924.849	9268
924.956	9534
925.064	9351
925.172	9222
925.279	9230
925.387	9302
925.494	9321
925.602	9450
925.709	9397
925.816	9329
925.924	9348
926.031	9374
926.138	9351
926.245	9367
926.352	9287
926.459	9351
926.566	9443
926.673	9382
926.779	9230
926.886	9199
926.993	9047
927.099	9077
927.206	9017
927.312	9001
927.419	9108
927.525	9028
927.631	9135
927.737	8967
927.843	8944
927.95	8830
928.056	8899
928.162	8994
928.267	8967
928.373	9603
928.479	9085
928.585	8746
928.69	8929
928.796	8933
928.901	8838
929.007	8777
929.112	8781
929.218	8857
929.323	8743
929.428	8693
929.533	8910
929.638	8739
929.743	8682
929.848	8781
929.953	8785
930.058	8682
930.163	8461
930.267	8537
930.372	8594
930.477	8457
930.581	8731
930.685	8556
930.79	8480
930.894	8526
930.998	8454
931.103	8556
931.207	8252
931.311	8183
931.415	8096
931.519	7940
931.623	7879
