Data from test_V78500241_2596.txt Node
Date: Fri Mar 25 14:51:47 CST 2022
User: usil
Spectrometer: V785-0024
Trigger mode: 0
Integration Time (sec): 4.000000E-1
Scans to average: 1
Nonlinearity correction enabled: false
Boxcar width: 0
Storing dark spectrum: false
XAxis mode: Wavelengths
Number of Pixels in Spectrum: 1024
>>>>>Begin Spectral Data<<<<<
801.071	22055
801.214	21895
801.356	21724
801.499	21526
801.641	21374
801.783	21359
801.926	21496
802.068	21283
802.211	21173
802.353	21108
802.496	20925
802.638	20918
802.78	20796
802.923	20807
803.065	20705
803.208	20686
803.35	20765
803.492	20735
803.635	20895
803.777	20849
803.919	20830
804.061	21142
804.204	20716
804.346	20663
804.488	20617
804.63	20648
804.773	20571
804.915	20602
805.057	20746
805.199	20594
805.341	20693
805.483	20796
805.626	20705
805.768	20682
805.91	20644
806.052	20613
806.194	20545
806.336	20632
806.478	20636
806.62	20514
806.762	20678
806.904	20800
807.046	21058
807.188	21020
807.33	20902
807.472	20963
807.614	20918
807.756	20883
807.898	20823
808.04	20621
808.182	20594
808.324	20533
808.465	20686
808.607	20921
808.749	21055
808.891	21077
809.033	21039
809.174	21100
809.316	21005
809.458	20990
809.6	21032
809.741	21085
809.883	21055
810.025	21096
810.166	21157
810.308	21142
810.45	21058
810.591	21077
810.733	20899
810.875	20678
811.016	20636
811.158	20636
811.299	20921
811.441	20906
811.582	20921
811.724	20705
811.865	20792
812.007	20625
812.148	20788
812.29	20762
812.431	20952
812.573	21077
812.714	21230
812.855	21336
812.997	21317
813.138	21428
813.279	21294
813.421	21195
813.562	21157
813.703	20986
813.845	20960
813.986	20682
814.127	20431
814.268	20301
814.41	20313
814.551	20343
814.692	20332
814.833	20240
814.974	20161
815.115	20282
815.256	20183
815.397	20244
815.539	20122
815.68	20020
815.821	19970
815.962	20081
816.103	20024
816.244	19845
816.385	19750
816.526	19723
816.666	19616
816.807	19502
816.948	19491
817.089	19514
817.23	19422
817.371	19441
817.512	19422
817.653	19445
817.793	19464
817.934	19396
818.075	19365
818.216	19392
818.356	19324
818.497	19225
818.638	19015
818.778	19000
818.919	19095
819.06	19114
819.2	19270
819.341	19304
819.481	19251
819.622	19441
819.762	19609
819.903	19518
820.043	19586
820.184	19518
820.324	19369
820.465	19514
820.605	19415
820.746	19403
820.886	19259
821.026	19388
821.167	19350
821.307	19362
821.447	19278
821.588	19240
821.728	19126
821.868	19042
822.008	18882
822.149	18863
822.289	18719
822.429	18623
822.569	18525
822.709	18509
822.849	18372
822.99	18342
823.13	18289
823.27	18315
823.41	18098
823.55	18148
823.69	18129
823.83	18125
823.97	17939
824.11	17893
824.25	17939
824.389	17882
824.529	17935
824.669	17756
824.809	18026
824.949	17954
825.089	17874
825.228	17832
825.368	17790
825.508	17672
825.648	17726
825.787	17695
825.927	17695
826.067	17634
826.206	17497
826.346	17745
826.485	17668
826.625	17627
826.765	17638
826.904	17710
827.044	17459
827.183	17547
827.323	17337
827.462	17372
827.601	17410
827.741	17429
827.88	17326
828.02	17284
828.159	17280
828.298	17360
828.437	17383
828.577	17273
828.716	17535
828.855	17326
828.994	17136
829.134	17140
829.273	17246
829.412	17090
829.551	16999
829.69	17124
829.829	17105
829.968	17155
830.107	17105
830.246	17121
830.385	17064
830.524	17056
830.663	16862
830.802	16877
830.941	16748
831.08	16706
831.219	16774
831.357	16771
831.496	16900
831.635	16774
831.774	16637
831.913	16546
832.051	16516
832.19	16535
832.329	16554
832.467	16462
832.606	16382
832.744	16363
832.883	16375
833.022	16405
833.16	16432
833.299	16516
833.437	16443
833.576	16474
833.714	16493
833.852	16451
833.991	16493
834.129	16516
834.267	16531
834.406	16432
834.544	16481
834.682	16436
834.821	16459
834.959	16641
835.097	16443
835.235	16645
835.373	16474
835.511	16440
835.65	16379
835.788	16424
835.926	16295
836.064	16226
836.202	16230
836.34	16466
836.478	16462
836.615	16371
836.753	16375
836.891	16508
837.029	16375
837.167	16409
837.305	16371
837.443	16249
837.58	16314
837.718	16287
837.856	16352
837.993	16242
838.131	16261
838.269	16166
838.406	16185
838.544	16074
838.681	15979
838.819	15972
838.956	15816
839.094	15892
839.231	15949
839.369	15975
839.506	16234
839.643	16090
839.781	15941
839.918	15827
840.055	15778
840.193	15831
840.33	15774
840.467	15743
840.604	15762
840.742	16025
840.879	15675
841.016	15766
841.153	15823
841.29	15876
841.427	15842
841.564	15800
841.701	15831
841.838	15755
841.975	15709
842.112	15682
842.249	15542
842.385	15644
842.522	15892
842.659	15633
842.796	15584
842.933	15656
843.069	15614
843.206	15576
843.343	15572
843.479	15637
843.616	15622
843.752	15336
843.889	15321
844.025	15500
844.162	15256
844.298	15534
844.435	15382
844.571	15317
844.708	15523
844.844	15633
844.98	15580
845.117	15599
845.253	15344
845.389	15272
845.525	15344
845.661	15317
845.798	15214
845.934	15241
846.07	15127
846.206	15256
846.342	15363
846.478	15165
846.614	15070
846.75	14990
846.886	15051
847.022	15127
847.158	15051
847.294	14948
847.429	15093
847.565	14895
847.701	15138
847.837	14762
847.972	14701
848.108	14815
848.244	14807
848.379	14629
848.515	14541
848.65	14518
848.786	14598
848.921	14602
849.057	14701
849.192	14678
849.328	14621
849.463	14598
849.598	14594
849.734	14518
849.869	14442
850.004	14476
850.14	14358
850.275	14324
850.41	14240
850.545	14244
850.68	14294
850.815	14275
850.95	14290
851.085	14492
851.22	14438
851.355	14286
851.49	14256
851.625	14278
851.76	14385
851.895	14328
852.03	14202
852.165	14225
852.299	14317
852.434	14393
852.569	14419
852.703	14381
852.838	14309
852.973	14530
853.107	14400
853.242	14313
853.376	14183
853.511	14172
853.645	14187
853.78	14229
853.914	14225
854.048	14126
854.183	14256
854.317	14149
854.451	14423
854.585	14183
854.72	14119
854.854	14313
854.988	14157
855.122	14100
855.256	14062
855.39	14172
855.524	14259
855.658	14339
855.792	14191
855.926	14320
856.06	14195
856.194	14275
856.327	14142
856.461	14157
856.595	14172
856.729	14138
856.862	14347
856.996	14275
857.13	14267
857.263	14275
857.397	14370
857.53	14142
857.664	14210
857.797	14324
857.931	14317
858.064	14233
858.197	14278
858.331	14233
858.464	14218
858.597	14153
858.731	14210
858.864	14096
858.997	14172
859.13	14317
859.263	14218
859.396	14336
859.529	14256
859.662	14164
859.795	14210
859.928	14225
860.061	14358
860.194	14438
860.327	14240
860.46	14244
860.592	14298
860.725	14336
860.858	14305
860.99	14252
861.123	14164
861.256	14100
861.388	14142
861.521	14773
861.653	14081
861.786	14096
861.918	14088
862.05	14157
862.183	14084
862.315	14252
862.447	14366
862.58	14046
862.712	13932
862.844	13917
862.976	14073
863.108	14031
863.24	14492
863.372	13944
863.504	13967
863.636	13993
863.768	14012
863.9	13890
864.032	13833
864.164	13989
864.296	13982
864.428	14077
864.559	14043
864.691	14183
864.823	14069
864.954	14065
865.086	14107
865.217	14020
865.349	13822
865.48	14050
865.612	13917
865.743	14107
865.875	14054
866.006	13913
866.137	13986
866.269	13925
866.4	13967
866.531	13936
866.662	13913
866.793	13849
866.924	13932
867.055	13970
867.186	13997
867.317	13970
867.448	13947
867.579	13963
867.71	13902
867.841	13814
867.972	14062
868.103	14024
868.233	13902
868.364	14092
868.495	14100
868.625	14176
868.756	14339
868.886	14259
869.017	14126
869.147	14305
869.278	14282
869.408	14202
869.539	14168
869.669	14343
869.799	14301
869.929	14389
870.06	14480
870.19	14518
870.32	14514
870.45	14541
870.58	14636
870.71	14720
870.84	14754
870.97	14636
871.1	14587
871.23	14765
871.36	14834
871.489	14727
871.619	14697
871.749	14868
871.879	14819
872.008	14895
872.138	14891
872.267	14826
872.397	14701
872.526	14621
872.656	14689
872.785	14651
872.915	14963
873.044	15024
873.173	14773
873.303	14861
873.432	14921
873.561	15017
873.69	14910
873.819	14910
873.948	14994
874.077	14941
874.206	14815
874.335	14891
874.464	15028
874.593	15184
874.722	15184
874.851	15199
874.979	15211
875.108	15287
875.237	15089
875.365	15062
875.494	15275
875.623	15317
875.751	15180
875.88	15275
876.008	15397
876.136	15492
876.265	15644
876.393	15679
876.521	15759
876.65	15667
876.778	15584
876.906	15625
877.034	15591
877.162	15644
877.29	15625
877.418	15625
877.546	15568
877.674	15599
877.802	15580
877.93	15625
878.058	15599
878.185	15561
878.313	15580
878.441	15644
878.568	15473
878.696	15603
878.824	15572
878.951	15667
879.079	15804
879.206	15869
879.333	15804
879.461	15705
879.588	15846
879.715	15804
879.842	15888
879.97	15690
880.097	15424
880.224	15450
880.351	15603
880.478	15420
880.605	15439
880.732	15359
880.859	15606
880.986	15488
881.112	15515
881.239	15447
881.366	15249
881.493	15207
881.619	15165
881.746	15089
881.872	15100
881.999	15176
882.125	15127
882.252	15214
882.378	15180
882.505	15211
882.631	15051
882.757	14914
882.883	15005
883.01	14902
883.136	14918
883.262	14880
883.388	14739
883.514	14975
883.64	15081
883.766	14861
883.892	14731
884.018	14788
884.143	14902
884.269	15058
884.395	14678
884.52	14583
884.646	14640
884.772	14427
884.897	14511
885.023	14579
885.148	14674
885.274	14838
885.399	14712
885.524	14617
885.65	14716
885.775	14670
885.9	14617
886.025	14788
886.15	14678
886.275	14575
886.4	14564
886.525	14587
886.65	14530
886.775	14568
886.9	14819
887.025	14887
887.149	14636
887.274	14469
887.399	14492
887.523	14377
887.648	14442
887.773	14339
887.897	14457
888.021	14583
888.146	14396
888.27	14594
888.395	14587
888.519	14507
888.643	14465
888.767	14571
888.891	14427
889.015	14396
889.139	14320
889.263	14309
889.387	14423
889.511	14568
889.635	14465
889.759	14343
889.883	14294
890.006	14393
890.13	14450
890.254	14313
890.377	14294
890.501	14065
890.624	14164
890.748	14252
890.871	14157
890.995	13928
891.118	13944
891.241	14020
891.364	13989
891.488	14081
891.611	14077
891.734	14062
891.857	14073
891.98	14096
892.103	14164
892.226	14046
892.349	14005
892.471	13906
892.594	13947
892.717	13982
892.839	14024
892.962	14073
893.085	14126
893.207	14058
893.33	13921
893.452	14005
893.575	14180
893.697	14054
893.819	14332
893.941	14275
894.064	14244
894.186	14050
894.308	14100
894.43	14218
894.552	14294
894.674	14157
894.796	14084
894.918	14077
895.04	14100
895.161	14221
895.283	14145
895.405	14096
895.526	14069
895.648	14134
895.769	14229
895.891	14138
896.012	14240
896.134	14202
896.255	14172
896.376	14168
896.498	14229
896.619	14218
896.74	14237
896.861	14286
896.982	14568
897.103	14720
897.224	14511
897.345	14408
897.466	14400
897.587	14492
897.708	14583
897.828	14533
897.949	14389
898.07	14317
898.19	14518
898.311	14617
898.431	14469
898.552	14610
898.672	14724
898.792	14682
898.913	14678
899.033	14526
899.153	14427
899.273	14408
899.393	14427
899.513	14473
899.633	14377
899.753	14419
899.873	14358
899.993	14507
900.113	14385
900.232	14434
900.352	14362
900.472	14400
900.591	14267
900.711	14298
900.83	14275
900.95	14290
901.069	14317
901.189	14259
901.308	14081
901.427	14001
901.546	14024
901.665	14001
901.784	13951
901.904	13852
902.023	13788
902.141	13548
902.26	13556
902.379	13647
902.498	13525
902.617	13552
902.735	13594
902.854	13514
902.973	13403
903.091	13282
903.21	13304
903.328	13274
903.446	13141
903.565	13107
903.683	13126
903.801	13061
903.919	13114
904.038	13122
904.156	12943
904.274	13046
904.392	12966
904.51	12875
904.627	12932
904.745	12958
904.863	12916
904.981	12768
905.098	12627
905.216	12601
905.334	12620
905.451	12688
905.569	12631
905.686	12665
905.803	12604
905.921	12426
906.038	12490
906.155	12376
906.272	12304
906.389	12342
906.506	12148
906.623	12140
906.74	12159
906.857	12060
906.974	12110
907.091	12243
907.208	12323
907.324	12239
907.441	12064
907.557	11885
907.674	11931
907.79	11950
907.907	11912
908.023	11988
908.139	12007
908.256	11927
908.372	11912
908.488	11889
908.604	11699
908.72	11646
908.836	11737
908.952	11653
909.068	11668
909.184	11790
909.3	11748
909.415	11718
909.531	11703
909.647	11501
909.762	11463
909.878	11471
909.993	11471
910.108	11452
910.224	11440
910.339	11463
910.454	11410
910.57	11387
910.685	11239
910.8	11551
910.915	11573
911.03	11387
911.145	11102
911.259	11227
911.374	11143
911.489	11094
911.604	10991
911.718	10980
911.833	10824
911.947	10793
912.062	10809
912.176	10957
912.291	10984
912.405	10900
912.519	11128
912.633	11212
912.748	11041
912.862	10927
912.976	10771
913.09	10687
913.204	10782
913.318	10869
913.431	10900
913.545	10908
913.659	10942
913.772	10858
913.886	10679
914	10656
914.113	10805
914.226	10854
914.34	10729
914.453	10637
914.566	10740
914.68	10641
914.793	10615
914.906	10455
915.019	10455
915.132	10287
915.245	10424
915.358	10428
915.47	10512
915.583	10489
915.696	10535
915.809	10584
915.921	10611
916.034	10367
916.146	10447
916.259	10394
916.371	10485
916.483	10481
916.595	10405
916.708	10375
916.82	10390
916.932	10356
917.044	10337
917.156	10322
917.268	10188
917.38	10253
917.491	10261
917.603	10287
917.715	10303
917.826	10341
917.938	10272
918.049	10185
918.161	10242
918.272	10443
918.384	10409
918.495	10348
918.606	10131
918.717	10112
918.828	10116
918.939	10211
919.05	10124
919.161	10112
919.272	9956
919.383	10021
919.494	10215
919.604	10348
919.715	10192
919.826	10078
919.936	10112
920.047	10219
920.157	10238
920.267	10447
920.378	10154
920.488	10192
920.598	10344
920.708	10523
920.818	10344
920.928	10447
921.038	10565
921.148	10531
921.258	10223
921.368	10071
921.477	10040
921.587	9975
921.697	9869
921.806	10040
921.916	9956
922.025	9785
922.134	9762
922.244	9671
922.353	9740
922.462	9622
922.571	9561
922.68	9435
922.789	9397
922.898	9439
923.007	9443
923.116	9485
923.224	9401
923.333	9435
923.442	9363
923.55	9245
923.659	9382
923.767	9329
923.876	9302
923.984	9408
924.092	9222
924.201	9279
924.309	9306
924.417	9340
924.525	9214
924.633	9298
924.741	10002
924.849	9055
924.956	9260
925.064	9043
925.172	9020
925.279	9043
925.387	9074
925.494	9077
925.602	9154
925.709	9188
925.816	9055
925.924	9211
926.031	9226
926.138	9131
926.245	9066
926.352	9032
926.459	9127
926.566	9199
926.673	9039
926.779	8906
926.886	8952
926.993	8777
927.099	8914
927.206	8754
927.312	8708
927.419	8902
927.525	8823
927.631	8872
927.737	8731
927.843	8697
927.95	8583
928.056	8648
928.162	8712
928.267	8807
928.373	9332
928.479	8853
928.585	8602
928.69	8705
928.796	8693
928.901	8625
929.007	8530
929.112	8598
929.218	8533
929.323	8526
929.428	8594
929.533	8579
929.638	8480
929.743	8465
929.848	8549
929.953	8484
930.058	8362
930.163	8229
930.267	8267
930.372	8522
930.477	8176
930.581	8492
930.685	8339
930.79	8210
930.894	8214
930.998	8221
931.103	8336
931.207	8073
931.311	7989
931.415	7989
931.519	7784
931.623	7742
