Data from test_V78500241_1150.txt Node
Date: Fri Mar 25 14:41:43 CST 2022
User: usil
Spectrometer: V785-0024
Trigger mode: 0
Integration Time (sec): 4.000000E-1
Scans to average: 1
Nonlinearity correction enabled: false
Boxcar width: 0
Storing dark spectrum: false
XAxis mode: Wavelengths
Number of Pixels in Spectrum: 1024
>>>>>Begin Spectral Data<<<<<
801.071	22497
801.214	22314
801.356	22135
801.499	22101
801.641	21861
801.783	21922
801.926	21934
802.068	21770
802.211	21854
802.353	21606
802.496	21534
802.638	21370
802.78	21336
802.923	21382
803.065	21150
803.208	21313
803.35	21127
803.492	21214
803.635	21424
803.777	21112
803.919	21268
804.061	21557
804.204	21329
804.346	21302
804.488	21237
804.63	21325
804.773	21131
804.915	21195
805.057	21241
805.199	21161
805.341	21157
805.483	21138
805.626	21302
805.768	21108
805.91	21127
806.052	21116
806.194	21108
806.336	21344
806.478	21180
806.62	21165
806.762	21294
806.904	21313
807.046	21622
807.188	21572
807.33	21545
807.472	21545
807.614	21447
807.756	21576
807.898	21469
808.04	21321
808.182	21340
808.324	21439
808.465	21447
808.607	21538
808.749	21732
808.891	21975
809.033	22101
809.174	21778
809.316	21644
809.458	21660
809.6	21580
809.741	21671
809.883	21679
810.025	21804
810.166	21739
810.308	21728
810.45	21663
810.591	21595
810.733	21408
810.875	21393
811.016	21367
811.158	21245
811.299	21302
811.441	21473
811.582	21401
811.724	21329
811.865	21374
812.007	21249
812.148	21329
812.29	21302
812.431	21519
812.573	21603
812.714	21610
812.855	21854
812.997	21979
813.138	22093
813.279	22006
813.421	21979
813.562	21785
813.703	21747
813.845	21542
813.986	21169
814.127	21051
814.268	21013
814.41	21013
814.551	20880
814.692	20971
814.833	20739
814.974	20826
815.115	20921
815.256	20804
815.397	20724
815.539	20632
815.68	20621
815.821	20575
815.962	20682
816.103	20522
816.244	20442
816.385	20339
816.526	20290
816.666	20233
816.807	20027
816.948	20233
817.089	20149
817.23	20157
817.371	20031
817.512	19989
817.653	20081
817.793	19944
817.934	20077
818.075	20073
818.216	20054
818.356	19963
818.497	19928
818.638	19655
818.778	19658
818.919	19814
819.06	19753
819.2	19978
819.341	19830
819.481	19925
819.622	20020
819.762	20294
819.903	20081
820.043	20161
820.184	20050
820.324	20024
820.465	20122
820.605	20119
820.746	20039
820.886	19932
821.026	20005
821.167	20039
821.307	20115
821.447	19951
821.588	19864
821.728	19719
821.868	19575
822.008	19449
822.149	19499
822.289	19430
822.429	19247
822.569	19156
822.709	19171
822.849	18958
822.99	18939
823.13	18989
823.27	18703
823.41	18810
823.55	18646
823.69	18692
823.83	18692
823.97	18726
824.11	18502
824.25	18502
824.389	18513
824.529	18623
824.669	18540
824.809	18570
824.949	18559
825.089	18620
825.228	18597
825.368	18365
825.508	18357
825.648	18296
825.787	18300
825.927	18334
826.067	18281
826.206	18372
826.346	18285
826.485	18346
826.625	18277
826.765	18369
826.904	18342
827.044	18091
827.183	18015
827.323	17878
827.462	18030
827.601	17999
827.741	17912
827.88	18003
828.02	17840
828.159	17958
828.298	18041
828.437	18083
828.577	17950
828.716	18205
828.855	17916
828.994	17786
829.134	17817
829.273	17748
829.412	17691
829.551	17703
829.69	17809
829.829	17741
829.968	17798
830.107	17729
830.246	17714
830.385	17680
830.524	17695
830.663	17532
830.802	17474
830.941	17356
831.08	17398
831.219	17372
831.357	17429
831.496	17524
831.635	17246
831.774	17254
831.913	17326
832.051	17147
832.19	17113
832.329	17193
832.467	17197
832.606	17079
832.744	17025
832.883	17060
833.022	17105
833.16	17197
833.299	17075
833.437	17105
833.576	17037
833.714	17140
833.852	17204
833.991	17227
834.129	17143
834.267	17204
834.406	17178
834.544	17254
834.682	17223
834.821	17227
834.959	17330
835.097	17060
835.235	17151
835.373	17170
835.511	17174
835.65	17060
835.788	17048
835.926	16812
836.064	16862
836.202	16767
836.34	16976
836.478	17033
836.615	16980
836.753	17075
836.891	17090
837.029	17121
837.167	16934
837.305	16946
837.443	16995
837.58	16850
837.718	16987
837.856	17006
837.993	16908
838.131	16835
838.269	16729
838.406	16793
838.544	16866
838.681	16641
838.819	16565
838.956	16413
839.094	16481
839.231	16516
839.369	16569
839.506	16873
839.643	16736
839.781	16516
839.918	16363
840.055	16523
840.193	16538
840.33	16478
840.467	16478
840.604	16417
840.742	16729
840.879	16154
841.016	16219
841.153	16306
841.29	16546
841.427	16443
841.564	16485
841.701	16432
841.838	16455
841.975	16447
842.112	16363
842.249	16234
842.385	16219
842.522	16276
842.659	16322
842.796	16162
842.933	16261
843.069	16314
843.206	16185
843.343	16162
843.479	16246
843.616	16265
843.752	15979
843.889	15930
844.025	16200
844.162	15865
844.298	16162
844.435	15941
844.571	15907
844.708	16063
844.844	16219
844.98	16169
845.117	16166
845.253	15964
845.389	15945
845.525	16010
845.661	16010
845.798	15991
845.934	16067
846.07	16048
846.206	16109
846.342	16071
846.478	15937
846.614	15698
846.75	15572
846.886	15492
847.022	15663
847.158	15644
847.294	15606
847.429	15580
847.565	15500
847.701	15751
847.837	15336
847.972	15359
848.108	15454
848.244	15367
848.379	15142
848.515	15135
848.65	15146
848.786	15169
848.921	15195
849.057	15294
849.192	15291
849.328	15195
849.463	15226
849.598	15047
849.734	15074
849.869	14986
850.004	14948
850.14	15020
850.275	15013
850.41	14834
850.545	14849
850.68	14944
850.815	15028
850.95	14914
851.085	15104
851.22	15097
851.355	14902
851.49	14868
851.625	14857
851.76	14796
851.895	14804
852.03	14842
852.165	14975
852.299	14971
852.434	15013
852.569	14883
852.703	14952
852.838	15032
852.973	15127
853.107	15100
853.242	14826
853.376	14868
853.511	14788
853.645	14792
853.78	14937
853.914	14838
854.048	14777
854.183	14826
854.317	14861
854.451	14971
854.585	14758
854.72	14853
854.854	14815
854.988	14708
855.122	14876
855.256	14750
855.39	14796
855.524	14842
855.658	14807
855.792	14861
855.926	14853
856.06	14883
856.194	14979
856.327	14880
856.461	14823
856.595	14667
856.729	14845
856.862	14975
856.996	14941
857.13	15001
857.263	14975
857.397	14857
857.53	14872
857.664	14864
857.797	14929
857.931	14990
858.064	14883
858.197	14906
858.331	14815
858.464	14815
858.597	14807
858.731	14727
858.864	14914
858.997	14758
859.13	14838
859.263	14807
859.396	14948
859.529	14746
859.662	14849
859.795	14727
859.928	14800
860.061	15013
860.194	14975
860.327	14864
860.46	14861
860.592	14842
860.725	14944
860.858	15066
860.99	14819
861.123	14773
861.256	14762
861.388	14902
861.521	15618
861.653	14788
861.786	14640
861.918	14651
862.05	14769
862.183	14781
862.315	14906
862.447	14792
862.58	14727
862.712	14632
862.844	14632
862.976	14678
863.108	14594
863.24	15070
863.372	14499
863.504	14556
863.636	14560
863.768	14667
863.9	14571
864.032	14564
864.164	14583
864.296	14644
864.428	14636
864.559	14743
864.691	14651
864.823	14579
864.954	14568
865.086	14625
865.217	14625
865.349	14617
865.48	14549
865.612	14541
865.743	14720
865.875	14629
866.006	14541
866.137	14701
866.269	14644
866.4	14530
866.531	14552
866.662	14480
866.793	14511
866.924	14552
867.055	14495
867.186	14610
867.317	14541
867.448	14461
867.579	14514
867.71	14518
867.841	14438
867.972	14549
868.103	14408
868.233	14545
868.364	14556
868.495	14724
868.625	14746
868.756	14914
868.886	14823
869.017	14758
869.147	14998
869.278	15024
869.408	14796
869.539	14792
869.669	14914
869.799	14902
869.929	14971
870.06	14880
870.19	15154
870.32	15058
870.45	15127
870.58	15230
870.71	15306
870.84	15245
870.97	15211
871.1	15150
871.23	15302
871.36	15389
871.489	15260
871.619	15466
871.749	15473
871.879	15492
872.008	15507
872.138	15462
872.267	15428
872.397	15298
872.526	15192
872.656	15256
872.785	15359
872.915	15367
873.044	15447
873.173	15389
873.303	15500
873.432	15447
873.561	15587
873.69	15428
873.819	15519
873.948	15614
874.077	15428
874.206	15428
874.335	15386
874.464	15633
874.593	15720
874.722	15679
874.851	15759
874.979	15785
875.108	15819
875.237	15751
875.365	15686
875.494	15781
875.623	15850
875.751	15850
875.88	15785
876.008	15956
876.136	15949
876.265	16223
876.393	16360
876.521	16276
876.65	16360
876.778	16097
876.906	16097
877.034	16181
877.162	16074
877.29	16223
877.418	16169
877.546	16101
877.674	16268
877.802	16188
877.93	16257
878.058	16055
878.185	16048
878.313	16154
878.441	16200
878.568	16032
878.696	16078
878.824	16306
878.951	16268
879.079	16459
879.206	16531
879.333	16432
879.461	16417
879.588	16451
879.715	16637
879.842	16649
879.97	16318
880.097	16097
880.224	16029
880.351	16032
880.478	16082
880.605	16036
880.732	16067
880.859	16246
880.986	15979
881.112	16147
881.239	15949
881.366	15850
881.493	15724
881.619	15618
881.746	15728
881.872	15755
881.999	15701
882.125	15652
882.252	15819
882.378	15728
882.505	15865
882.631	15530
882.757	15587
882.883	15500
883.01	15534
883.136	15500
883.262	15496
883.388	15401
883.514	15534
883.64	15599
883.766	15450
883.892	15450
884.018	15344
884.143	15511
884.269	15614
884.395	15256
884.52	15226
884.646	15218
884.772	15203
884.897	15119
885.023	15256
885.148	15431
885.274	15435
885.399	15355
885.524	15180
885.65	15268
885.775	15230
885.9	15226
886.025	15275
886.15	15268
886.275	15161
886.4	15051
886.525	15226
886.65	15135
886.775	15093
886.9	15359
887.025	15363
887.149	15165
887.274	15085
887.399	15043
887.523	15043
887.648	14956
887.773	14960
887.897	14990
888.021	15138
888.146	14918
888.27	15176
888.395	15176
888.519	15070
888.643	15066
888.767	15081
888.891	14967
889.015	14982
889.139	14872
889.263	14823
889.387	14952
889.511	15036
889.635	14929
889.759	14781
889.883	14921
890.006	14887
890.13	15074
890.254	14811
890.377	14834
890.501	14629
890.624	14743
890.748	14765
890.871	14556
890.995	14590
891.118	14419
891.241	14625
891.364	14621
891.488	14579
891.611	14625
891.734	14575
891.857	14617
891.98	14610
892.103	14590
892.226	14499
892.349	14522
892.471	14480
892.594	14484
892.717	14522
892.839	14537
892.962	14560
893.085	14590
893.207	14686
893.33	14454
893.452	14594
893.575	14606
893.697	14549
893.819	14705
893.941	14754
894.064	14693
894.186	14484
894.308	14564
894.43	14667
894.552	14739
894.674	14739
894.796	14613
894.918	14606
895.04	14522
895.161	14640
895.283	14667
895.405	14556
895.526	14625
895.648	14689
895.769	14629
895.891	14583
896.012	14804
896.134	14800
896.255	14845
896.376	14731
896.498	14758
896.619	14754
896.74	14769
896.861	14785
896.982	15024
897.103	15169
897.224	15013
897.345	14956
897.466	14868
897.587	14823
897.708	15123
897.828	14960
897.949	14921
898.07	14902
898.19	14975
898.311	15188
898.431	15009
898.552	15081
898.672	15070
898.792	15123
898.913	15089
899.033	14986
899.153	14887
899.273	14815
899.393	14883
899.513	14895
899.633	14937
899.753	14906
899.873	14815
899.993	15001
900.113	14788
900.232	14963
900.352	14864
900.472	14750
900.591	14686
900.711	14788
900.83	14697
900.95	14883
901.069	14807
901.189	14644
901.308	14507
901.427	14404
901.546	14469
901.665	14438
901.784	14442
901.904	14423
902.023	14202
902.141	14008
902.26	13947
902.379	14001
902.498	14005
902.617	13944
902.735	14092
902.854	14024
902.973	13875
903.091	13750
903.21	13677
903.328	13670
903.446	13563
903.565	13483
903.683	13556
903.801	13434
903.919	13510
904.038	13537
904.156	13419
904.274	13468
904.392	13441
904.51	13377
904.627	13335
904.745	13434
904.863	13362
904.981	13171
905.098	13088
905.216	13057
905.334	13103
905.451	13008
905.569	12958
905.686	13095
905.803	13034
905.921	12920
906.038	13015
906.155	12932
906.272	12772
906.389	12833
906.506	12627
906.623	12726
906.74	12578
906.857	12532
906.974	12551
907.091	12650
907.208	12745
907.324	12688
907.441	12471
907.557	12403
907.674	12395
907.79	12243
907.907	12369
908.023	12391
908.139	12296
908.256	12300
908.372	12346
908.488	12232
908.604	12201
908.72	12152
908.836	12079
908.952	12095
909.068	12076
909.184	12258
909.3	12114
909.415	12087
909.531	12209
909.647	11927
909.762	11942
909.878	11863
909.993	11901
910.108	11889
910.224	11851
910.339	11889
910.454	11821
910.57	11798
910.685	11668
910.8	11980
910.915	11935
911.03	11855
911.145	11638
911.259	11524
911.374	11661
911.489	11532
911.604	11433
911.718	11296
911.833	11322
911.947	11258
912.062	11277
912.176	11330
912.291	11307
912.405	11284
912.519	11596
912.633	11486
912.748	11433
912.862	11360
912.976	11189
913.09	11140
913.204	11155
913.318	11250
913.431	11315
913.545	11178
913.659	11334
913.772	11250
913.886	11102
914	11029
914.113	11231
914.226	11181
914.34	11189
914.453	10972
914.566	11185
914.68	10968
914.793	11071
914.906	10854
915.019	10767
915.132	10809
915.245	10755
915.358	10889
915.47	10820
915.583	10828
915.696	10972
915.809	10900
915.921	11033
916.034	10778
916.146	10790
916.259	10736
916.371	10771
916.483	10812
916.595	10740
916.708	10767
916.82	10717
916.932	10717
917.044	10691
917.156	10649
917.268	10622
917.38	10740
917.491	10626
917.603	10653
917.715	10717
917.826	10740
917.938	10641
918.049	10554
918.161	10664
918.272	10763
918.384	10774
918.495	10733
918.606	10577
918.717	10367
918.828	10516
918.939	10508
919.05	10470
919.161	10565
919.272	10329
919.383	10428
919.494	10569
919.604	10771
919.715	10599
919.826	10508
919.936	10485
920.047	10592
920.157	10607
920.267	10736
920.378	10599
920.488	10519
920.598	10801
920.708	10930
920.818	10714
920.928	10733
921.038	10828
921.148	10847
921.258	10645
921.368	10413
921.477	10440
921.587	10443
921.697	10276
921.806	10367
921.916	10310
922.025	10211
922.134	10147
922.244	10124
922.353	10112
922.462	10032
922.571	10013
922.68	9842
922.789	9800
922.898	9907
923.007	9762
923.116	9774
923.224	9766
923.333	9770
923.442	9660
923.55	9728
923.659	9724
923.767	9736
923.876	9618
923.984	9709
924.092	9568
924.201	9614
924.309	9595
924.417	9717
924.525	9584
924.633	9641
924.741	10459
924.849	9458
924.956	9595
925.064	9447
925.172	9351
925.279	9416
925.387	9447
925.494	9363
925.602	9625
925.709	9519
925.816	9424
925.924	9511
926.031	9584
926.138	9447
926.245	9458
926.352	9313
926.459	9466
926.566	9534
926.673	9313
926.779	9287
926.886	9317
926.993	9176
927.099	9157
927.206	9077
927.312	9169
927.419	9203
927.525	9207
927.631	9169
927.737	9036
927.843	9043
927.95	8952
928.056	9013
928.162	9055
928.267	9074
928.373	9644
928.479	9066
928.585	8883
928.69	9024
928.796	9036
928.901	8948
929.007	8823
929.112	8952
929.218	8937
929.323	8804
929.428	8880
929.533	8948
929.638	8766
929.743	8781
929.848	8849
929.953	8766
930.058	8716
930.163	8530
930.267	8610
930.372	8724
930.477	8583
930.581	8845
930.685	8629
930.79	8507
930.894	8522
930.998	8533
931.103	8689
931.207	8389
931.311	8210
931.415	8229
931.519	8035
931.623	8069
