Data from test_V78500241_953.txt Node
Date: Fri Mar 25 14:40:21 CST 2022
User: usil
Spectrometer: V785-0024
Trigger mode: 0
Integration Time (sec): 4.000000E-1
Scans to average: 1
Nonlinearity correction enabled: false
Boxcar width: 0
Storing dark spectrum: false
XAxis mode: Wavelengths
Number of Pixels in Spectrum: 1024
>>>>>Begin Spectral Data<<<<<
801.071	23596
801.214	23463
801.356	23372
801.499	23128
801.641	23064
801.783	22949
801.926	23079
802.068	22831
802.211	22786
802.353	22812
802.496	22516
802.638	22360
802.78	22371
802.923	22447
803.065	22185
803.208	22188
803.35	22280
803.492	22371
803.635	22432
803.777	22280
803.919	22360
804.061	22649
804.204	22287
804.346	22192
804.488	22097
804.63	22295
804.773	22192
804.915	22310
805.057	22291
805.199	22215
805.341	22333
805.483	22310
805.626	22382
805.768	22360
805.91	22329
806.052	22284
806.194	22318
806.336	22493
806.478	22489
806.62	22325
806.762	22424
806.904	22683
807.046	23014
807.188	22812
807.33	22854
807.472	23003
807.614	22957
807.756	23067
807.898	23086
808.04	23098
808.182	23322
808.324	23627
808.465	23946
808.607	24311
808.749	24833
808.891	25038
809.033	25099
809.174	24719
809.316	24361
809.458	24125
809.6	23726
809.741	23566
809.883	23410
810.025	23490
810.166	23311
810.308	23227
810.45	22976
810.591	23018
810.733	22752
810.875	22721
811.016	22725
811.158	22497
811.299	22713
811.441	22660
811.582	22626
811.724	22580
811.865	22493
812.007	22432
812.148	22535
812.29	22550
812.431	22786
812.573	22911
812.714	22961
812.855	22972
812.997	23242
813.138	23197
813.279	22984
813.421	23083
813.562	22862
813.703	22809
813.845	22763
813.986	22265
814.127	22207
814.268	22078
814.41	22017
814.551	21968
814.692	22051
814.833	21991
814.974	22105
815.115	22036
815.256	21903
815.397	21797
815.539	21838
815.68	21850
815.821	21751
815.962	21747
816.103	21614
816.244	21519
816.385	21504
816.526	21450
816.666	21275
816.807	21188
816.948	21211
817.089	21336
817.23	21214
817.371	21199
817.512	21138
817.653	21154
817.793	21032
817.934	21119
818.075	21237
818.216	21108
818.356	21051
818.497	20979
818.638	20868
818.778	20849
818.919	20788
819.06	20891
819.2	20807
819.341	21066
819.481	20967
819.622	21100
819.762	21344
819.903	21169
820.043	21157
820.184	21096
820.324	21089
820.465	21173
820.605	20990
820.746	21066
820.886	20960
821.026	20986
821.167	21077
821.307	21127
821.447	20963
821.588	20921
821.728	20701
821.868	20708
822.008	20560
822.149	20541
822.289	20259
822.429	20278
822.569	20100
822.709	20115
822.849	20016
822.99	20027
823.13	19951
823.27	19890
823.41	19769
823.55	19742
823.69	19723
823.83	19780
823.97	19696
824.11	19575
824.25	19403
824.389	19426
824.529	19647
824.669	19487
824.809	19708
824.949	19677
825.089	19609
825.228	19438
825.368	19282
825.508	19324
825.648	19308
825.787	19324
825.927	19285
826.067	19187
826.206	19198
826.346	19266
826.485	19293
826.625	19301
826.765	19365
826.904	19457
827.044	19122
827.183	19027
827.323	18993
827.462	18985
827.601	19012
827.741	18928
827.88	18985
828.02	18939
828.159	18973
828.298	18916
828.437	19065
828.577	18825
828.716	19084
828.855	18901
828.994	18658
829.134	18745
829.273	18817
829.412	18741
829.551	18635
829.69	18719
829.829	18700
829.968	18806
830.107	18772
830.246	18696
830.385	18585
830.524	18601
830.663	18517
830.802	18403
830.941	18342
831.08	18319
831.219	18418
831.357	18304
831.496	18475
831.635	18365
831.774	18338
831.913	18213
832.051	17961
832.19	18102
832.329	18254
832.467	18079
832.606	17847
832.744	18095
832.883	17950
833.022	17908
833.16	18026
833.299	18003
833.437	18057
833.576	18102
833.714	18129
833.852	18201
833.991	18201
834.129	18235
834.267	18205
834.406	18087
834.544	18167
834.682	18076
834.821	18060
834.959	18194
835.097	18098
835.235	18140
835.373	18072
835.511	18148
835.65	17958
835.788	17870
835.926	17855
836.064	17802
836.202	17813
836.34	17874
836.478	18106
836.615	17889
836.753	17973
836.891	17935
837.029	17969
837.167	17927
837.305	17775
837.443	17718
837.58	17665
837.718	17840
837.856	17794
837.993	17741
838.131	17672
838.269	17608
838.406	17741
838.544	17718
838.681	17535
838.819	17444
838.956	17284
839.094	17269
839.231	17387
839.369	17467
839.506	17630
839.643	17600
839.781	17356
839.918	17231
840.055	17227
840.193	17212
840.33	17284
840.467	17353
840.604	17296
840.742	17532
840.879	17113
841.016	17273
841.153	17136
841.29	17307
841.427	17254
841.564	17284
841.701	17280
841.838	17117
841.975	17121
842.112	17159
842.249	17033
842.385	17056
842.522	17178
842.659	17018
842.796	17056
842.933	17113
843.069	16942
843.206	17022
843.343	16961
843.479	17067
843.616	16987
843.752	16862
843.889	16820
844.025	16972
844.162	16923
844.298	16866
844.435	16915
844.571	16820
844.708	16919
844.844	17018
844.98	17208
845.117	17083
845.253	17060
845.389	17178
845.525	17516
845.661	17977
845.798	18601
845.934	19095
846.07	19350
846.206	19297
846.342	18920
846.478	18247
846.614	17501
846.75	16961
846.886	16778
847.022	16710
847.158	16538
847.294	16485
847.429	16436
847.565	16310
847.701	16679
847.837	16185
847.972	16090
848.108	16166
848.244	16131
848.379	16048
848.515	15983
848.65	15934
848.786	15937
848.921	15880
849.057	16006
849.192	15968
849.328	15956
849.463	15934
849.598	15975
849.734	15804
849.869	15785
850.004	15694
850.14	15789
850.275	15816
850.41	15618
850.545	15648
850.68	15679
850.815	15637
850.95	15698
851.085	15907
851.22	15728
851.355	15644
851.49	15656
851.625	15648
851.76	15656
851.895	15557
852.03	15633
852.165	15686
852.299	15622
852.434	15778
852.569	15724
852.703	15785
852.838	15705
852.973	15827
853.107	15797
853.242	15694
853.376	15606
853.511	15466
853.645	15485
853.78	15690
853.914	15568
854.048	15603
854.183	15545
854.317	15675
854.451	15797
854.585	15568
854.72	15629
854.854	15686
854.988	15545
855.122	15496
855.256	15405
855.39	15492
855.524	15698
855.658	15549
855.792	15637
855.926	15622
856.06	15675
856.194	15698
856.327	15523
856.461	15473
856.595	15576
856.729	15481
856.862	15774
856.996	15618
857.13	15587
857.263	15686
857.397	15637
857.53	15526
857.664	15614
857.797	15614
857.931	15564
858.064	15663
858.197	15667
858.331	15450
858.464	15492
858.597	15477
858.731	15511
858.864	15515
858.997	15443
859.13	15530
859.263	15599
859.396	15504
859.529	15530
859.662	15561
859.795	15500
859.928	15549
860.061	15618
860.194	15701
860.327	15656
860.46	15500
860.592	15652
860.725	15648
860.858	15747
860.99	15599
861.123	15485
861.256	15496
861.388	15473
861.521	16188
861.653	15401
861.786	15420
861.918	15359
862.05	15492
862.183	15549
862.315	15477
862.447	15587
862.58	15420
862.712	15317
862.844	15260
862.976	15348
863.108	15291
863.24	15804
863.372	15157
863.504	15298
863.636	15218
863.768	15268
863.9	15355
864.032	15203
864.164	15184
864.296	15310
864.428	15370
864.559	15401
864.691	15462
864.823	15370
864.954	15287
865.086	15370
865.217	15294
865.349	15165
865.48	15279
865.612	15321
865.743	15439
865.875	15131
866.006	15230
866.137	15336
866.269	15245
866.4	15211
866.531	15294
866.662	15233
866.793	15241
866.924	15199
867.055	15233
867.186	15233
867.317	15230
867.448	15066
867.579	15279
867.71	15184
867.841	15070
867.972	15188
868.103	15211
868.233	15306
868.364	15207
868.495	15325
868.625	15302
868.756	15572
868.886	15340
869.017	15462
869.147	15595
869.278	15633
869.408	15454
869.539	15485
869.669	15538
869.799	15477
869.929	15663
870.06	15644
870.19	15789
870.32	15778
870.45	15781
870.58	15949
870.71	15998
870.84	16017
870.97	15918
871.1	15793
871.23	16109
871.36	15991
871.489	15991
871.619	16044
871.749	16013
871.879	16097
872.008	16067
872.138	16204
872.267	16093
872.397	15911
872.526	15865
872.656	15918
872.785	15895
872.915	16226
873.044	16116
873.173	16082
873.303	16169
873.432	16181
873.561	16196
873.69	16196
873.819	16040
873.948	16242
874.077	16147
874.206	16101
874.335	16219
874.464	16360
874.593	16428
874.722	16337
874.851	16554
874.979	16466
875.108	16512
875.237	16447
875.365	16405
875.494	16443
875.623	16550
875.751	16485
875.88	16497
876.008	16687
876.136	16660
876.265	16984
876.393	17094
876.521	16877
876.65	17060
876.778	16911
876.906	16980
877.034	16957
877.162	16904
877.29	16812
877.418	17079
877.546	16930
877.674	16889
877.802	17037
877.93	16949
878.058	17056
878.185	16957
878.313	17022
878.441	17090
878.568	16957
878.696	17090
878.824	17307
878.951	17478
879.079	17737
879.206	17996
879.333	17965
879.461	18064
879.588	18319
879.715	18319
879.842	18376
879.97	17958
880.097	17566
880.224	17459
880.351	17311
880.478	17124
880.605	17143
880.732	17071
880.859	17280
880.986	17178
881.112	17147
881.239	16896
881.366	16892
881.493	16774
881.619	16664
881.746	16725
881.872	16656
881.999	16687
882.125	16622
882.252	16809
882.378	16649
882.505	16786
882.631	16634
882.757	16558
882.883	16497
883.01	16470
883.136	16462
883.262	16394
883.388	16375
883.514	16573
883.64	16538
883.766	16554
883.892	16318
884.018	16485
884.143	16436
884.269	16599
884.395	16280
884.52	16131
884.646	16173
884.772	16280
884.897	16154
885.023	16291
885.148	16303
885.274	16242
885.399	16257
885.524	16215
885.65	16204
885.775	16204
885.9	16120
886.025	16242
886.15	16147
886.275	16097
886.4	16055
886.525	16101
886.65	16082
886.775	16040
886.9	16071
887.025	16261
887.149	16074
887.274	15800
887.399	15861
887.523	15842
887.648	15709
887.773	15800
887.897	15930
888.021	15953
888.146	15850
888.27	15937
888.395	15953
888.519	15785
888.643	15808
888.767	15918
888.891	15686
889.015	15523
889.139	15652
889.263	15667
889.387	15625
889.511	15720
889.635	15747
889.759	15576
889.883	15705
890.006	15618
890.13	15701
890.254	15576
890.377	15542
890.501	15447
890.624	15367
890.748	15443
890.871	15389
890.995	15245
891.118	15100
891.241	15268
891.364	15245
891.488	15370
891.611	15313
891.734	15264
891.857	15325
891.98	15268
892.103	15245
892.226	15355
892.349	15173
892.471	15104
892.594	15169
892.717	15252
892.839	15241
892.962	15176
893.085	15348
893.207	15188
893.33	15074
893.452	15093
893.575	15321
893.697	15165
893.819	15439
893.941	15526
894.064	15321
894.186	15222
894.308	15112
894.43	15268
894.552	15466
894.674	15408
894.796	15188
894.918	15241
895.04	15104
895.161	15344
895.283	15226
895.405	15230
895.526	15291
895.648	15249
895.769	15325
895.891	15332
896.012	15382
896.134	15344
896.255	15382
896.376	15336
896.498	15317
896.619	15450
896.74	15336
896.861	15507
896.982	15705
897.103	15835
897.224	15625
897.345	15587
897.466	15485
897.587	15641
897.708	15739
897.828	15644
897.949	15542
898.07	15496
898.19	15564
898.311	15728
898.431	15584
898.552	15671
898.672	15751
898.792	15698
898.913	15705
899.033	15599
899.153	15572
899.273	15523
899.393	15458
899.513	15614
899.633	15477
899.753	15595
899.873	15504
899.993	15633
900.113	15523
900.232	15526
900.352	15507
900.472	15389
900.591	15428
900.711	15306
900.83	15389
900.95	15477
901.069	15545
901.189	15317
901.308	15085
901.427	15047
901.546	15081
901.665	15047
901.784	15104
901.904	14941
902.023	14826
902.141	14655
902.26	14571
902.379	14667
902.498	14507
902.617	14549
902.735	14629
902.854	14568
902.973	14434
903.091	14358
903.21	14275
903.328	14290
903.446	14248
903.565	14134
903.683	14161
903.801	14062
903.919	14126
904.038	14176
904.156	13982
904.274	13955
904.392	13814
904.51	13913
904.627	13864
904.745	13906
904.863	13894
904.981	13727
905.098	13639
905.216	13620
905.334	13613
905.451	13582
905.569	13609
905.686	13544
905.803	13620
905.921	13373
906.038	13441
906.155	13419
906.272	13358
906.389	13331
906.506	13152
906.623	13076
906.74	13194
906.857	13042
906.974	13080
907.091	13179
907.208	13282
907.324	13217
907.441	13080
907.557	12875
907.674	12837
907.79	12814
907.907	12848
908.023	12882
908.139	12939
908.256	12783
908.372	12681
908.488	12738
908.604	12665
908.72	12566
908.836	12574
908.952	12521
909.068	12703
909.184	12707
909.3	12547
909.415	12665
909.531	12555
909.647	12452
909.762	12289
909.878	12391
909.993	12376
910.108	12418
910.224	12327
910.339	12395
910.454	12334
910.57	12258
910.685	12102
910.8	12422
910.915	12448
911.03	12281
911.145	12087
911.259	12133
911.374	11999
911.489	12003
911.604	11969
911.718	11859
911.833	11775
911.947	11745
912.062	11642
912.176	11836
912.291	11775
912.405	11767
912.519	11992
912.633	12022
912.748	11824
912.862	11783
912.976	11646
913.09	11535
913.204	11581
913.318	11653
913.431	11737
913.545	11703
913.659	11729
913.772	11672
913.886	11501
914	11532
914.113	11611
914.226	11649
914.34	11570
914.453	11417
914.566	11543
914.68	11448
914.793	11436
914.906	11307
915.019	11246
915.132	11124
915.245	11159
915.358	11193
915.47	11239
915.583	11193
915.696	11242
915.809	11406
915.921	11379
916.034	11261
916.146	11197
916.259	11159
916.371	11288
916.483	11315
916.595	11242
916.708	11147
916.82	11140
916.932	11159
917.044	11128
917.156	11197
917.268	10968
917.38	11140
917.491	11010
917.603	11060
917.715	11159
917.826	11143
917.938	11041
918.049	10984
918.161	10949
918.272	11109
918.384	11193
918.495	11048
918.606	10866
918.717	10816
918.828	10908
918.939	10965
919.05	10828
919.161	10904
919.272	10702
919.383	10843
919.494	10930
919.604	11136
919.715	10927
919.826	10889
919.936	10858
920.047	10984
920.157	10987
920.267	11121
920.378	10896
920.488	10881
920.598	11071
920.708	11239
920.818	11181
920.928	11166
921.038	11235
921.148	11250
921.258	10942
921.368	10889
921.477	10736
921.587	10736
921.697	10596
921.806	10763
921.916	10634
922.025	10516
922.134	10424
922.244	10348
922.353	10451
922.462	10386
922.571	10280
922.68	10162
922.789	10192
922.898	10135
923.007	10048
923.116	10150
923.224	10150
923.333	10090
923.442	10013
923.55	10006
923.659	9979
923.767	10048
923.876	9968
923.984	10013
924.092	9968
924.201	10048
924.309	9949
924.417	9949
924.525	9934
924.633	10036
924.741	10694
924.849	9854
924.956	9915
925.064	9816
925.172	9648
925.279	9698
925.387	9823
925.494	9724
925.602	9774
925.709	9781
925.816	9736
925.924	9732
926.031	9819
926.138	9732
926.245	9728
926.352	9660
926.459	9789
926.566	9808
926.673	9732
926.779	9641
926.886	9591
926.993	9496
927.099	9428
927.206	9359
927.312	9435
927.419	9488
927.525	9420
927.631	9530
927.737	9363
927.843	9363
927.95	9233
928.056	9306
928.162	9275
928.267	9355
928.373	9915
928.479	9439
928.585	9116
928.69	9279
928.796	9340
928.901	9237
929.007	9077
929.112	9199
929.218	9173
929.323	9138
929.428	9150
929.533	9245
929.638	9070
929.743	9097
929.848	9146
929.953	9146
930.058	8994
930.163	8929
930.267	8952
930.372	9070
930.477	8819
930.581	9169
930.685	8929
930.79	8781
930.894	8781
930.998	8807
931.103	8876
931.207	8579
931.311	8495
931.415	8461
931.519	8305
931.623	8240
