Data from test_V78500241_3184.txt Node
Date: Fri Mar 25 14:55:53 CST 2022
User: usil
Spectrometer: V785-0024
Trigger mode: 0
Integration Time (sec): 4.000000E-1
Scans to average: 1
Nonlinearity correction enabled: false
Boxcar width: 0
Storing dark spectrum: false
XAxis mode: Wavelengths
Number of Pixels in Spectrum: 1024
>>>>>Begin Spectral Data<<<<<
801.071	22124
801.214	22021
801.356	21720
801.499	21663
801.641	21519
801.783	21488
801.926	21454
802.068	21370
802.211	21180
802.353	21184
802.496	20872
802.638	20963
802.78	20823
802.923	20792
803.065	20644
803.208	20636
803.35	20678
803.492	20902
803.635	20876
803.777	20796
803.919	20902
804.061	21058
804.204	20743
804.346	20648
804.488	20636
804.63	20712
804.773	20579
804.915	20705
805.057	20697
805.199	20632
805.341	20697
805.483	20705
805.626	20701
805.768	20575
805.91	20678
806.052	20720
806.194	20511
806.336	20754
806.478	20590
806.62	20545
806.762	20754
806.904	20845
807.046	21055
807.188	20910
807.33	20963
807.472	21001
807.614	20872
807.756	20906
807.898	20800
808.04	20678
808.182	20807
808.324	20689
808.465	20712
808.607	20777
808.749	20990
808.891	21066
809.033	21283
809.174	21009
809.316	20990
809.458	21005
809.6	21055
809.741	21077
809.883	21055
810.025	21135
810.166	21169
810.308	21066
810.45	21028
810.591	21058
810.733	20910
810.875	20815
811.016	20632
811.158	20682
811.299	20842
811.441	20933
811.582	20754
811.724	20861
811.865	20796
812.007	20777
812.148	20739
812.29	20872
812.431	20986
812.573	21135
812.714	21089
812.855	21184
812.997	21355
813.138	21629
813.279	21321
813.421	21127
813.562	21214
813.703	21028
813.845	21005
813.986	20651
814.127	20450
814.268	20396
814.41	20381
814.551	20286
814.692	20362
814.833	20320
814.974	20305
815.115	20377
815.256	20187
815.397	20153
815.539	20088
815.68	20115
815.821	19970
815.962	20043
816.103	19989
816.244	19856
816.385	19784
816.526	19803
816.666	19620
816.807	19453
816.948	19639
817.089	19597
817.23	19502
817.371	19430
817.512	19483
817.653	19434
817.793	19312
817.934	19472
818.075	19441
818.216	19396
818.356	19453
818.497	19225
818.638	19038
818.778	19137
818.919	19027
819.06	19023
819.2	19327
819.341	19259
819.481	19236
819.622	19365
819.762	19643
819.903	19590
820.043	19483
820.184	19575
820.324	19441
820.465	19480
820.605	19388
820.746	19396
820.886	19206
821.026	19327
821.167	19358
821.307	19506
821.447	19369
821.588	19225
821.728	19080
821.868	18909
822.008	18939
822.149	18852
822.289	18783
822.429	18540
822.569	18620
822.709	18513
822.849	18270
822.99	18304
823.13	18376
823.27	18190
823.41	18243
823.55	18159
823.69	18258
823.83	18148
823.97	18034
824.11	17973
824.25	17927
824.389	17961
824.529	17897
824.669	17866
824.809	18007
824.949	17942
825.089	17988
825.228	17950
825.368	17794
825.508	17760
825.648	17653
825.787	17668
825.927	17699
826.067	17634
826.206	17615
826.346	17722
826.485	17627
826.625	17676
826.765	17828
826.904	17615
827.044	17505
827.183	17455
827.323	17280
827.462	17448
827.601	17307
827.741	17433
827.88	17341
828.02	17128
828.159	17311
828.298	17349
828.437	17501
828.577	17239
828.716	17474
828.855	17360
828.994	17006
829.134	17109
829.273	17197
829.412	17117
829.551	17060
829.69	17033
829.829	17124
829.968	17277
830.107	17151
830.246	17098
830.385	16987
830.524	16957
830.663	17025
830.802	16831
830.941	16729
831.08	16672
831.219	16771
831.357	16778
831.496	16999
831.635	16691
831.774	16603
831.913	16565
832.051	16478
832.19	16428
832.329	16584
832.467	16436
832.606	16348
832.744	16409
832.883	16409
833.022	16417
833.16	16443
833.299	16424
833.437	16341
833.576	16550
833.714	16493
833.852	16577
833.991	16451
834.129	16558
834.267	16432
834.406	16489
834.544	16459
834.682	16470
834.821	16363
834.959	16554
835.097	16428
835.235	16561
835.373	16584
835.511	16500
835.65	16299
835.788	16409
835.926	16158
836.064	16059
836.202	16173
836.34	16344
836.478	16432
836.615	16246
836.753	16333
836.891	16451
837.029	16402
837.167	16360
837.305	16341
837.443	16219
837.58	16173
837.718	16371
837.856	16219
837.993	16154
838.131	16242
838.269	16173
838.406	16185
838.544	16181
838.681	16017
838.819	15934
838.956	15785
839.094	15751
839.231	15911
839.369	15964
839.506	16181
839.643	16044
839.781	15732
839.918	15736
840.055	15899
840.193	15755
840.33	15781
840.467	15797
840.604	15876
840.742	15903
840.879	15686
841.016	15709
841.153	15728
841.29	15873
841.427	15827
841.564	15774
841.701	15831
841.838	15629
841.975	15637
842.112	15679
842.249	15656
842.385	15519
842.522	15823
842.659	15656
842.796	15545
842.933	15580
843.069	15644
843.206	15591
843.343	15743
843.479	15584
843.616	15580
843.752	15378
843.889	15386
844.025	15530
844.162	15367
844.298	15416
844.435	15344
844.571	15336
844.708	15367
844.844	15515
844.98	15568
845.117	15431
845.253	15359
845.389	15207
845.525	15233
845.661	15241
845.798	15116
845.934	15146
846.07	15146
846.206	15317
846.342	15233
846.478	15207
846.614	15001
846.75	14868
846.886	14899
847.022	14979
847.158	14925
847.294	14979
847.429	14902
847.565	14925
847.701	15199
847.837	14792
847.972	14556
848.108	14663
848.244	14781
848.379	14579
848.515	14450
848.65	14598
848.786	14533
848.921	14514
849.057	14590
849.192	14644
849.328	14552
849.463	14541
849.598	14473
849.734	14446
849.869	14317
850.004	14309
850.14	14389
850.275	14347
850.41	14164
850.545	14278
850.68	14294
850.815	14244
850.95	14278
851.085	14442
851.22	14412
851.355	14294
851.49	14317
851.625	14301
851.76	14267
851.895	14111
852.03	14164
852.165	14290
852.299	14290
852.434	14358
852.569	14336
852.703	14298
852.838	14393
852.973	14423
853.107	14446
853.242	14168
853.376	14233
853.511	14005
853.645	14092
853.78	14240
853.914	14229
854.048	14107
854.183	14145
854.317	14157
854.451	14259
854.585	14161
854.72	14119
854.854	14244
854.988	14119
855.122	14062
855.256	14119
855.39	14153
855.524	14233
855.658	14210
855.792	14187
855.926	14187
856.06	14278
856.194	14221
856.327	14088
856.461	14035
856.595	14130
856.729	14138
856.862	14252
856.996	14256
857.13	14187
857.263	14332
857.397	14240
857.53	14142
857.664	14237
857.797	14259
857.931	14240
858.064	14164
858.197	14328
858.331	14119
858.464	14077
858.597	14046
858.731	14157
858.864	14126
858.997	14123
859.13	14161
859.263	14286
859.396	14336
859.529	14092
859.662	14084
859.795	14065
859.928	14115
860.061	14370
860.194	14305
860.327	14206
860.46	14138
860.592	14351
860.725	14328
860.858	14290
860.99	14142
861.123	14043
861.256	14024
861.388	14145
861.521	14933
861.653	14100
861.786	13921
861.918	14111
862.05	14107
862.183	13993
862.315	14176
862.447	14119
862.58	14176
862.712	13925
862.844	13944
862.976	13997
863.108	13944
863.24	14164
863.372	13788
863.504	13913
863.636	13864
863.768	14024
863.9	13967
864.032	13940
864.164	13917
864.296	14050
864.428	14096
864.559	14035
864.691	14073
864.823	14046
864.954	14012
865.086	13970
865.217	14035
865.349	13833
865.48	13963
865.612	13986
865.743	13963
865.875	13909
866.006	13925
866.137	14016
866.269	13936
866.4	13944
866.531	13921
866.662	13837
866.793	13845
866.924	13868
867.055	13917
867.186	13959
867.317	13944
867.448	13852
867.579	13887
867.71	13826
867.841	13822
867.972	13974
868.103	13887
868.233	14012
868.364	13974
868.495	13963
868.625	14240
868.756	14225
868.886	14161
869.017	14271
869.147	14305
869.278	14275
869.408	14252
869.539	14157
869.669	14218
869.799	14237
869.929	14290
870.06	14317
870.19	14446
870.32	14446
870.45	14556
870.58	14606
870.71	14804
870.84	14636
870.97	14629
871.1	14598
871.23	14823
871.36	14781
871.489	14689
871.619	14769
871.749	14796
871.879	14838
872.008	14815
872.138	14804
872.267	14785
872.397	14568
872.526	14678
872.656	14480
872.785	14625
872.915	14842
873.044	14887
873.173	14758
873.303	14906
873.432	14796
873.561	14967
873.69	14765
873.819	14933
873.948	14895
874.077	14807
874.206	14853
874.335	14861
874.464	15055
874.593	15100
874.722	15097
874.851	15207
874.979	15214
875.108	15192
875.237	15070
875.365	15032
875.494	15135
875.623	15207
875.751	15142
875.88	15211
876.008	15226
876.136	15340
876.265	15587
876.393	15686
876.521	15610
876.65	15557
876.778	15530
876.906	15595
877.034	15561
877.162	15576
877.29	15488
877.418	15618
877.546	15576
877.674	15633
877.802	15447
877.93	15603
878.058	15492
878.185	15473
878.313	15519
878.441	15576
878.568	15317
878.696	15469
878.824	15633
878.951	15644
879.079	15690
879.206	15816
879.333	15694
879.461	15576
879.588	15736
879.715	15694
879.842	15903
879.97	15629
880.097	15412
880.224	15374
880.351	15473
880.478	15443
880.605	15393
880.732	15428
880.859	15606
880.986	15374
881.112	15450
881.239	15336
881.366	15184
881.493	15131
881.619	14956
881.746	15123
881.872	15097
881.999	15013
882.125	15032
882.252	15237
882.378	15142
882.505	15150
882.631	14998
882.757	14845
882.883	14887
883.01	14925
883.136	14758
883.262	14785
883.388	14731
883.514	14899
883.64	15017
883.766	14811
883.892	14625
884.018	14788
884.143	14819
884.269	15009
884.395	14632
884.52	14552
884.646	14594
884.772	14507
884.897	14408
885.023	14613
885.148	14724
885.274	14746
885.399	14777
885.524	14552
885.65	14598
885.775	14655
885.9	14549
886.025	14667
886.15	14712
886.275	14541
886.4	14526
886.525	14568
886.65	14499
886.775	14579
886.9	14693
887.025	14758
887.149	14659
887.274	14396
887.399	14438
887.523	14400
887.648	14336
887.773	14396
887.897	14438
888.021	14370
888.146	14320
888.27	14499
888.395	14549
888.519	14473
888.643	14461
888.767	14450
888.891	14400
889.015	14248
889.139	14259
889.263	14218
889.387	14434
889.511	14457
889.635	14431
889.759	14237
889.883	14282
890.006	14290
890.13	14450
890.254	14195
890.377	14244
890.501	14172
890.624	14065
890.748	14202
890.871	14058
890.995	14039
891.118	13978
891.241	13970
891.364	14012
891.488	14107
891.611	13959
891.734	14008
891.857	14103
891.98	13906
892.103	14050
892.226	14123
892.349	13974
892.471	13791
892.594	14043
892.717	14046
892.839	13921
892.962	13947
893.085	14062
893.207	13986
893.33	13902
893.452	13974
893.575	14001
893.697	13944
893.819	14199
893.941	14168
894.064	14161
894.186	14039
894.308	14039
894.43	14065
894.552	14229
894.674	14202
894.796	13959
894.918	14050
895.04	14046
895.161	14100
895.283	14111
895.405	14020
895.526	14123
895.648	14103
895.769	14244
895.891	14221
896.012	14225
896.134	14145
896.255	14062
896.376	14149
896.498	14149
896.619	14164
896.74	14229
896.861	14145
896.982	14393
897.103	14659
897.224	14511
897.345	14396
897.466	14336
897.587	14381
897.708	14533
897.828	14488
897.949	14412
898.07	14244
898.19	14442
898.311	14617
898.431	14488
898.552	14492
898.672	14655
898.792	14651
898.913	14613
899.033	14454
899.153	14328
899.273	14286
899.393	14374
899.513	14355
899.633	14339
899.753	14377
899.873	14358
899.993	14465
900.113	14355
900.232	14461
900.352	14309
900.472	14168
900.591	14240
900.711	14267
900.83	14191
900.95	14358
901.069	14415
901.189	14111
901.308	14005
901.427	13898
901.546	13921
901.665	13959
901.784	14020
901.904	13776
902.023	13651
902.141	13487
902.26	13544
902.379	13563
902.498	13518
902.617	13434
902.735	13518
902.854	13518
902.973	13460
903.091	13304
903.21	13228
903.328	13343
903.446	13145
903.565	13053
903.683	13072
903.801	12935
903.919	13065
904.038	13034
904.156	12943
904.274	13012
904.392	12844
904.51	12848
904.627	12833
904.745	12996
904.863	12954
904.981	12665
905.098	12509
905.216	12551
905.334	12635
905.451	12681
905.569	12521
905.686	12570
905.803	12540
905.921	12304
906.038	12540
906.155	12304
906.272	12365
906.389	12376
906.506	12155
906.623	12209
906.74	12163
906.857	12030
906.974	12106
907.091	12201
907.208	12292
907.324	12163
907.441	12186
907.557	11961
907.674	11999
907.79	11942
907.907	11916
908.023	11836
908.139	11954
908.256	11836
908.372	11851
908.488	11786
908.604	11783
908.72	11642
908.836	11741
908.952	11672
909.068	11627
909.184	11828
909.3	11722
909.415	11745
909.531	11752
909.647	11417
909.762	11497
909.878	11356
909.993	11436
910.108	11497
910.224	11322
910.339	11425
910.454	11391
910.57	11261
910.685	11197
910.8	11520
910.915	11452
911.03	11414
911.145	11159
911.259	11151
911.374	11178
911.489	11056
911.604	11003
911.718	10881
911.833	10961
911.947	10809
912.062	10683
912.176	10900
912.291	10999
912.405	10847
912.519	11014
912.633	11064
912.748	10938
912.862	10896
912.976	10850
913.09	10786
913.204	10672
913.318	10782
913.431	10858
913.545	10889
913.659	10835
913.772	10816
913.886	10679
914	10637
914.113	10717
914.226	10782
914.34	10740
914.453	10622
914.566	10702
914.68	10641
914.793	10561
914.906	10455
915.019	10352
915.132	10291
915.245	10470
915.358	10409
915.47	10436
915.583	10443
915.696	10455
915.809	10516
915.921	10577
916.034	10413
916.146	10363
916.259	10310
916.371	10386
916.483	10379
916.595	10325
916.708	10303
916.82	10394
916.932	10306
917.044	10306
917.156	10371
917.268	10196
917.38	10238
917.491	10173
917.603	10227
917.715	10287
917.826	10363
917.938	10253
918.049	10097
918.161	10257
918.272	10379
918.384	10303
918.495	10280
918.606	10097
918.717	10044
918.828	10093
918.939	10139
919.05	10086
919.161	10040
919.272	9922
919.383	10021
919.494	10101
919.604	10337
919.715	10109
919.826	10029
919.936	10120
920.047	10207
920.157	10173
920.267	10329
920.378	10215
920.488	10131
920.598	10306
920.708	10466
920.818	10363
920.928	10432
921.038	10512
921.148	10417
921.258	10211
921.368	10086
921.477	10051
921.587	9964
921.697	9949
921.806	10055
921.916	9934
922.025	9781
922.134	9698
922.244	9690
922.353	9770
922.462	9603
922.571	9576
922.68	9370
922.789	9424
922.898	9428
923.007	9401
923.116	9443
923.224	9408
923.333	9405
923.442	9298
923.55	9253
923.659	9302
923.767	9378
923.876	9302
923.984	9348
924.092	9230
924.201	9310
924.309	9207
924.417	9260
924.525	9195
924.633	9233
924.741	10211
924.849	8994
924.956	9180
925.064	8986
925.172	8937
925.279	8990
925.387	9100
925.494	9051
925.602	9230
925.709	9097
925.816	8982
925.924	9043
926.031	9173
926.138	9074
926.245	9127
926.352	8994
926.459	9119
926.566	9233
926.673	8971
926.779	8941
926.886	8967
926.993	8845
927.099	8731
927.206	8758
927.312	8720
927.419	8853
927.525	8815
927.631	8861
927.737	8701
927.843	8667
927.95	8579
928.056	8610
928.162	8640
928.267	8670
928.373	9256
928.479	8826
928.585	8537
928.69	8629
928.796	8712
928.901	8507
929.007	8495
929.112	8678
929.218	8518
929.323	8545
929.428	8526
929.533	8552
929.638	8396
929.743	8503
929.848	8503
929.953	8454
930.058	8381
930.163	8263
930.267	8271
930.372	8351
930.477	8202
930.581	8469
930.685	8320
930.79	8256
930.894	8282
930.998	8252
931.103	8355
931.207	8035
931.311	7902
931.415	7890
931.519	7780
931.623	7700
