Data from test_V78500241_2956.txt Node
Date: Fri Mar 25 14:54:17 CST 2022
User: usil
Spectrometer: V785-0024
Trigger mode: 0
Integration Time (sec): 4.000000E-1
Scans to average: 1
Nonlinearity correction enabled: false
Boxcar width: 0
Storing dark spectrum: false
XAxis mode: Wavelengths
Number of Pixels in Spectrum: 1024
>>>>>Begin Spectral Data<<<<<
801.071	22173
801.214	21972
801.356	21724
801.499	21694
801.641	21542
801.783	21492
801.926	21622
802.068	21473
802.211	21260
802.353	21367
802.496	21066
802.638	20963
802.78	20986
802.923	20899
803.065	20800
803.208	20697
803.35	20845
803.492	20956
803.635	20861
803.777	20773
803.919	20872
804.061	21180
804.204	20845
804.346	20648
804.488	20693
804.63	20689
804.773	20712
804.915	20746
805.057	20788
805.199	20663
805.341	20773
805.483	20918
805.626	20758
805.768	20636
805.91	20819
806.052	20754
806.194	20636
806.336	20712
806.478	20621
806.62	20556
806.762	20838
806.904	20956
807.046	21138
807.188	21112
807.33	21100
807.472	21192
807.614	20880
807.756	20952
807.898	20883
808.04	20796
808.182	20872
808.324	20868
808.465	20708
808.607	20937
808.749	21036
808.891	21260
809.033	21294
809.174	21222
809.316	20960
809.458	21157
809.6	21017
809.741	21135
809.883	21237
810.025	21287
810.166	21325
810.308	21310
810.45	21272
810.591	21100
810.733	20918
810.875	20937
811.016	20788
811.158	20705
811.299	20758
811.441	20887
811.582	21077
811.724	20880
811.865	20746
812.007	20769
812.148	20876
812.29	20906
812.431	21081
812.573	21127
812.714	21336
812.855	21374
812.997	21515
813.138	21591
813.279	21363
813.421	21439
813.562	21340
813.703	21233
813.845	21089
813.986	20826
814.127	20583
814.268	20537
814.41	20400
814.551	20400
814.692	20533
814.833	20412
814.974	20358
815.115	20427
815.256	20271
815.397	20259
815.539	20290
815.68	20069
815.821	20092
815.962	20221
816.103	20103
816.244	20054
816.385	19845
816.526	19898
816.666	19696
816.807	19563
816.948	19662
817.089	19674
817.23	19613
817.371	19499
817.512	19537
817.653	19533
817.793	19464
817.934	19480
818.075	19521
818.216	19594
818.356	19476
818.497	19278
818.638	19168
818.778	19263
818.919	19232
819.06	19202
819.2	19255
819.341	19285
819.481	19396
819.622	19506
819.762	19662
819.903	19689
820.043	19639
820.184	19434
820.324	19548
820.465	19521
820.605	19506
820.746	19335
820.886	19419
821.026	19441
821.167	19476
821.307	19441
821.447	19460
821.588	19350
821.728	19232
821.868	18966
822.008	18924
822.149	18958
822.289	18932
822.429	18684
822.569	18585
822.709	18589
822.849	18418
822.99	18441
823.13	18281
823.27	18346
823.41	18296
823.55	18205
823.69	18209
823.83	18243
823.97	18106
824.11	17942
824.25	17901
824.389	17939
824.529	18125
824.669	17904
824.809	18102
824.949	18083
825.089	18022
825.228	18041
825.368	17813
825.508	17790
825.648	17809
825.787	17840
825.927	17866
826.067	17722
826.206	17695
826.346	17764
826.485	17691
826.625	17756
826.765	17847
826.904	17737
827.044	17554
827.183	17493
827.323	17452
827.462	17516
827.601	17474
827.741	17364
827.88	17512
828.02	17455
828.159	17558
828.298	17478
828.437	17566
828.577	17376
828.716	17600
828.855	17356
828.994	17159
829.134	17151
829.273	17246
829.412	17174
829.551	17174
829.69	17181
829.829	17299
829.968	17318
830.107	17223
830.246	17174
830.385	17113
830.524	17212
830.663	17003
830.802	16942
830.941	16896
831.08	16847
831.219	16995
831.357	16938
831.496	17109
831.635	16820
831.774	16694
831.913	16736
832.051	16698
832.19	16656
832.329	16615
832.467	16607
832.606	16504
832.744	16478
832.883	16493
833.022	16550
833.16	16497
833.299	16519
833.437	16561
833.576	16481
833.714	16538
833.852	16584
833.991	16637
834.129	16634
834.267	16569
834.406	16592
834.544	16626
834.682	16580
834.821	16561
834.959	16767
835.097	16523
835.235	16618
835.373	16565
835.511	16565
835.65	16493
835.788	16409
835.926	16306
836.064	16230
836.202	16261
836.34	16504
836.478	16527
836.615	16462
836.753	16519
836.891	16531
837.029	16569
837.167	16447
837.305	16466
837.443	16394
837.58	16318
837.718	16474
837.856	16249
837.993	16329
838.131	16356
838.269	16299
838.406	16219
838.544	16166
838.681	16067
838.819	15972
838.956	15854
839.094	15903
839.231	15953
839.369	16059
839.506	16196
839.643	16181
839.781	15873
839.918	15793
840.055	15922
840.193	15884
840.33	15922
840.467	15960
840.604	15926
840.742	16116
840.879	15732
841.016	15759
841.153	15861
841.29	15975
841.427	15945
841.564	15907
841.701	15907
841.838	15816
841.975	15656
842.112	15759
842.249	15686
842.385	15641
842.522	15857
842.659	15625
842.796	15637
842.933	15606
843.069	15667
843.206	15637
843.343	15652
843.479	15675
843.616	15667
843.752	15393
843.889	15408
844.025	15701
844.162	15504
844.298	15519
844.435	15428
844.571	15412
844.708	15454
844.844	15584
844.98	15584
845.117	15466
845.253	15462
845.389	15431
845.525	15370
845.661	15302
845.798	15192
845.934	15260
846.07	15211
846.206	15279
846.342	15374
846.478	15287
846.614	15077
846.75	14902
846.886	14963
847.022	15093
847.158	14982
847.294	15051
847.429	14990
847.565	14956
847.701	15165
847.837	14651
847.972	14708
848.108	14830
848.244	14769
848.379	14632
848.515	14629
848.65	14427
848.786	14689
848.921	14617
849.057	14731
849.192	14663
849.328	14644
849.463	14640
849.598	14537
849.734	14511
849.869	14431
850.004	14343
850.14	14385
850.275	14408
850.41	14332
850.545	14366
850.68	14328
850.815	14343
850.95	14404
851.085	14590
851.22	14454
851.355	14362
851.49	14393
851.625	14290
851.76	14404
851.895	14202
852.03	14206
852.165	14336
852.299	14259
852.434	14442
852.569	14339
852.703	14339
852.838	14457
852.973	14514
853.107	14522
853.242	14347
853.376	14275
853.511	14123
853.645	14237
853.78	14389
853.914	14256
854.048	14168
854.183	14229
854.317	14149
854.451	14434
854.585	14339
854.72	14183
854.854	14362
854.988	14138
855.122	14229
855.256	14134
855.39	14142
855.524	14400
855.658	14267
855.792	14301
855.926	14240
856.06	14275
856.194	14396
856.327	14244
856.461	14103
856.595	14107
856.729	14164
856.862	14347
856.996	14282
857.13	14313
857.263	14355
857.397	14385
857.53	14225
857.664	14267
857.797	14343
857.931	14438
858.064	14244
858.197	14317
858.331	14199
858.464	14183
858.597	14031
858.731	14221
858.864	14164
858.997	14206
859.13	14290
859.263	14286
859.396	14377
859.529	14195
859.662	14164
859.795	14206
859.928	14199
860.061	14446
860.194	14404
860.327	14244
860.46	14225
860.592	14263
860.725	14396
860.858	14339
860.99	14263
861.123	14172
861.256	14271
861.388	14290
861.521	14720
861.653	14180
861.786	13997
861.918	14024
862.05	14191
862.183	14218
862.315	14206
862.447	14275
862.58	14161
862.712	13955
862.844	13940
862.976	14001
863.108	14058
863.24	14343
863.372	13989
863.504	13989
863.636	13982
863.768	14073
863.9	13944
864.032	13982
864.164	13936
864.296	14043
864.428	14119
864.559	14130
864.691	14092
864.823	14130
864.954	14103
865.086	14027
865.217	13970
865.349	13955
865.48	14012
865.612	14043
865.743	14225
865.875	14039
866.006	13887
866.137	14001
866.269	13925
866.4	13974
866.531	13868
866.662	13970
866.793	13849
866.924	14020
867.055	14046
867.186	13894
867.317	14100
867.448	13917
867.579	13940
867.71	13830
867.841	13852
867.972	14069
868.103	13959
868.233	14012
868.364	13978
868.495	14100
868.625	14195
868.756	14290
868.886	14199
869.017	14225
869.147	14332
869.278	14370
869.408	14355
869.539	14305
869.669	14278
869.799	14343
869.929	14385
870.06	14419
870.19	14434
870.32	14564
870.45	14617
870.58	14659
870.71	14758
870.84	14769
870.97	14640
871.1	14648
871.23	14918
871.36	14906
871.489	14826
871.619	14815
871.749	14838
871.879	14823
872.008	14906
872.138	14876
872.267	14739
872.397	14629
872.526	14716
872.656	14686
872.785	14705
872.915	14868
873.044	14921
873.173	14804
873.303	14944
873.432	14944
873.561	15047
873.69	14914
873.819	14880
873.948	14899
874.077	14986
874.206	14899
874.335	14941
874.464	15097
874.593	15176
874.722	15146
874.851	15226
874.979	15184
875.108	15291
875.237	15135
875.365	15154
875.494	15154
875.623	15294
875.751	15138
875.88	15199
876.008	15382
876.136	15405
876.265	15663
876.393	15717
876.521	15629
876.65	15762
876.778	15606
876.906	15526
877.034	15656
877.162	15580
877.29	15545
877.418	15679
877.546	15511
877.674	15644
877.802	15603
877.93	15690
878.058	15625
878.185	15519
878.313	15663
878.441	15595
878.568	15405
878.696	15557
878.824	15656
878.951	15606
879.079	15823
879.206	15907
879.333	15797
879.461	15610
879.588	15709
879.715	15751
879.842	15861
879.97	15671
880.097	15496
880.224	15504
880.351	15511
880.478	15504
880.605	15439
880.732	15519
880.859	15717
880.986	15435
881.112	15431
881.239	15363
881.366	15214
881.493	15127
881.619	15089
881.746	15169
881.872	15039
881.999	15066
882.125	15058
882.252	15116
882.378	15157
882.505	15207
882.631	15089
882.757	14876
882.883	15013
883.01	14906
883.136	14853
883.262	14762
883.388	14682
883.514	14910
883.64	14998
883.766	14895
883.892	14834
884.018	14796
884.143	14998
884.269	15138
884.395	14701
884.52	14568
884.646	14693
884.772	14674
884.897	14495
885.023	14590
885.148	14731
885.274	14815
885.399	14739
885.524	14705
885.65	14769
885.775	14701
885.9	14720
886.025	14800
886.15	14739
886.275	14651
886.4	14530
886.525	14613
886.65	14568
886.775	14571
886.9	14796
887.025	14876
887.149	14629
887.274	14454
887.399	14450
887.523	14454
887.648	14465
887.773	14412
887.897	14514
888.021	14495
888.146	14552
888.27	14522
888.395	14587
888.519	14556
888.643	14560
888.767	14571
888.891	14366
889.015	14286
889.139	14351
889.263	14259
889.387	14434
889.511	14568
889.635	14476
889.759	14313
889.883	14298
890.006	14362
890.13	14320
890.254	14199
890.377	14298
890.501	14183
890.624	14123
890.748	14081
890.871	14058
890.995	13913
891.118	13936
891.241	14027
891.364	14043
891.488	14103
891.611	14062
891.734	14008
891.857	14027
891.98	14027
892.103	14081
892.226	14161
892.349	14008
892.471	13841
892.594	14043
892.717	14073
892.839	14054
892.962	14039
893.085	14107
893.207	14016
893.33	13928
893.452	13932
893.575	14092
893.697	14088
893.819	14229
893.941	14149
894.064	14176
894.186	14092
894.308	14050
894.43	14176
894.552	14240
894.674	14259
894.796	14024
894.918	14008
895.04	14111
895.161	14107
895.283	14157
895.405	14107
895.526	14187
895.648	14119
895.769	14229
895.891	14218
896.012	14271
896.134	14320
896.255	14157
896.376	14092
896.498	14221
896.619	14210
896.74	14248
896.861	14336
896.982	14575
897.103	14693
897.224	14526
897.345	14488
897.466	14488
897.587	14518
897.708	14617
897.828	14530
897.949	14438
898.07	14499
898.19	14423
898.311	14556
898.431	14526
898.552	14503
898.672	14621
898.792	14617
898.913	14678
899.033	14556
899.153	14415
899.273	14404
899.393	14332
899.513	14450
899.633	14412
899.753	14488
899.873	14442
899.993	14393
900.113	14400
900.232	14480
900.352	14404
900.472	14301
900.591	14336
900.711	14263
900.83	14256
900.95	14396
901.069	14465
901.189	14313
901.308	14012
901.427	13970
901.546	14016
901.665	14031
901.784	14039
901.904	13856
902.023	13837
902.141	13487
902.26	13491
902.379	13677
902.498	13430
902.617	13403
902.735	13582
902.854	13422
902.973	13578
903.091	13270
903.21	13304
903.328	13251
903.446	13247
903.565	13171
903.683	13141
903.801	13031
903.919	13129
904.038	13050
904.156	12909
904.274	12939
904.392	12890
904.51	12890
904.627	12859
904.745	12954
904.863	13004
904.981	12779
905.098	12582
905.216	12532
905.334	12623
905.451	12616
905.569	12593
905.686	12616
905.803	12593
905.921	12502
906.038	12540
906.155	12509
906.272	12239
906.389	12323
906.506	12190
906.623	12232
906.74	12175
906.857	12076
906.974	12110
907.091	12262
907.208	12273
907.324	12311
907.441	12140
907.557	11939
907.674	12019
907.79	11927
907.907	11992
908.023	12064
908.139	11965
908.256	11935
908.372	11882
908.488	11840
908.604	11779
908.72	11726
908.836	11672
908.952	11684
909.068	11783
909.184	11821
909.3	11604
909.415	11783
909.531	11741
909.647	11463
909.762	11414
909.878	11395
909.993	11501
910.108	11478
910.224	11440
910.339	11493
910.454	11448
910.57	11269
910.685	11181
910.8	11592
910.915	11547
911.03	11429
911.145	11220
911.259	11140
911.374	11246
911.489	11113
911.604	11045
911.718	10946
911.833	10904
911.947	10831
912.062	10729
912.176	10915
912.291	10896
912.405	10961
912.519	11102
912.633	11208
912.748	10957
912.862	10965
912.976	10858
913.09	10660
913.204	10721
913.318	10835
913.431	10930
913.545	10904
913.659	10908
913.772	10900
913.886	10702
914	10561
914.113	10820
914.226	10847
914.34	10824
914.453	10656
914.566	10725
914.68	10611
914.793	10687
914.906	10428
915.019	10375
915.132	10363
915.245	10424
915.358	10409
915.47	10436
915.583	10447
915.696	10531
915.809	10554
915.921	10592
916.034	10417
916.146	10322
916.259	10409
916.371	10523
916.483	10413
916.595	10333
916.708	10440
916.82	10386
916.932	10310
917.044	10394
917.156	10325
917.268	10242
917.38	10367
917.491	10219
917.603	10272
917.715	10329
917.826	10390
917.938	10200
918.049	10143
918.161	10284
918.272	10424
918.384	10382
918.495	10268
918.606	10162
918.717	10116
918.828	10147
918.939	10192
919.05	10044
919.161	10177
919.272	9975
919.383	10017
919.494	10162
919.604	10337
919.715	10169
919.826	10044
919.936	10169
920.047	10219
920.157	10143
920.267	10344
920.378	10215
920.488	10101
920.598	10390
920.708	10500
920.818	10341
920.928	10371
921.038	10481
921.148	10554
921.258	10322
921.368	10135
921.477	10059
921.587	9975
921.697	9899
921.806	10101
921.916	10006
922.025	9732
922.134	9759
922.244	9641
922.353	9701
922.462	9572
922.571	9557
922.68	9412
922.789	9420
922.898	9408
923.007	9370
923.116	9523
923.224	9496
923.333	9401
923.442	9351
923.55	9256
923.659	9264
923.767	9336
923.876	9321
923.984	9405
924.092	9218
924.201	9351
924.309	9241
924.417	9249
924.525	9256
924.633	9249
924.741	10200
924.849	9070
924.956	9195
925.064	8990
925.172	8960
925.279	9127
925.387	9119
925.494	9097
925.602	9230
925.709	9157
925.816	9043
925.924	9123
926.031	9131
926.138	9093
926.245	9161
926.352	9036
926.459	9154
926.566	9169
926.673	9017
926.779	8986
926.886	8952
926.993	8830
927.099	8811
927.206	8800
927.312	8739
927.419	8807
927.525	8796
927.631	8815
927.737	8689
927.843	8735
927.95	8632
928.056	8629
928.162	8724
928.267	8773
928.373	9340
928.479	8807
928.585	8590
928.69	8731
928.796	8807
928.901	8640
929.007	8427
929.112	8640
929.218	8571
929.323	8488
929.428	8499
929.533	8659
929.638	8503
929.743	8511
929.848	8560
929.953	8507
930.058	8480
930.163	8290
930.267	8313
930.372	8427
930.477	8263
930.581	8526
930.685	8400
930.79	8225
930.894	8279
930.998	8202
931.103	8362
931.207	8008
931.311	8008
931.415	7887
931.519	7715
931.623	7750
