Data from test_V78500241_944.txt Node
Date: Fri Mar 25 14:40:17 CST 2022
User: usil
Spectrometer: V785-0024
Trigger mode: 0
Integration Time (sec): 4.000000E-1
Scans to average: 1
Nonlinearity correction enabled: false
Boxcar width: 0
Storing dark spectrum: false
XAxis mode: Wavelengths
Number of Pixels in Spectrum: 1024
>>>>>Begin Spectral Data<<<<<
801.071	24224
801.214	24266
801.356	23977
801.499	23817
801.641	23733
801.783	23646
801.926	23592
802.068	23592
802.211	23478
802.353	23463
802.496	23193
802.638	23029
802.78	23109
802.923	23041
803.065	22957
803.208	23018
803.35	22908
803.492	22976
803.635	22957
803.777	23014
803.919	22999
804.061	23227
804.204	23109
804.346	22953
804.488	22900
804.63	22980
804.773	22828
804.915	22946
805.057	23075
805.199	22987
805.341	22999
805.483	23025
805.626	23155
805.768	22919
805.91	22976
806.052	23010
806.194	22942
806.336	23216
806.478	23166
806.62	23143
806.762	23284
806.904	23326
807.046	23589
807.188	23687
807.33	23756
807.472	23813
807.614	23775
807.756	23984
807.898	23939
808.04	24053
808.182	24464
808.324	24414
808.465	24863
808.607	25324
808.749	25830
808.891	25868
809.033	26016
809.174	25620
809.316	25312
809.458	25061
809.6	24665
809.741	24437
809.883	24262
810.025	24171
810.166	24117
810.308	23961
810.45	23973
810.591	23828
810.733	23623
810.875	23455
811.016	23330
811.158	23261
811.299	23452
811.441	23554
811.582	23345
811.724	23280
811.865	23220
812.007	23288
812.148	23151
812.29	23299
812.431	23516
812.573	23691
812.714	23703
812.855	23885
812.997	23817
813.138	24003
813.279	23878
813.421	23817
813.562	23577
813.703	23543
813.845	23414
813.986	23170
814.127	22767
814.268	22831
814.41	22854
814.551	22869
814.692	22877
814.833	22687
814.974	22672
815.115	22668
815.256	22557
815.397	22649
815.539	22554
815.68	22344
815.821	22504
815.962	22607
816.103	22478
816.244	22314
816.385	22238
816.526	22173
816.666	22090
816.807	21895
816.948	22002
817.089	22101
817.23	21937
817.371	21838
817.512	21915
817.653	21778
817.793	21804
817.934	21930
818.075	21903
818.216	21785
818.356	21812
818.497	21686
818.638	21629
818.778	21526
818.919	21576
819.06	21580
819.2	21686
819.341	21793
819.481	21644
819.622	21739
819.762	22090
819.903	21949
820.043	21816
820.184	21785
820.324	21888
820.465	21842
820.605	21816
820.746	21842
820.886	21599
821.026	21831
821.167	21812
821.307	21766
821.447	21720
821.588	21698
821.728	21393
821.868	21192
822.008	21192
822.149	21154
822.289	21096
822.429	20769
822.569	20872
822.709	20861
822.849	20785
822.99	20651
823.13	20663
823.27	20533
823.41	20427
823.55	20396
823.69	20476
823.83	20492
823.97	20457
824.11	20328
824.25	20172
824.389	20282
824.529	20214
824.669	20229
824.809	20256
824.949	20286
825.089	20259
825.228	20355
825.368	20092
825.508	19959
825.648	20031
825.787	20084
825.927	20012
826.067	20073
826.206	19913
826.346	20111
826.485	19967
826.625	19951
826.765	20039
826.904	20027
827.044	19791
827.183	19833
827.323	19594
827.462	19746
827.601	19727
827.741	19540
827.88	19708
828.02	19575
828.159	19693
828.298	19662
828.437	19731
828.577	19605
828.716	19795
828.855	19586
828.994	19457
829.134	19426
829.273	19521
829.412	19411
829.551	19419
829.69	19411
829.829	19499
829.968	19502
830.107	19525
830.246	19426
830.385	19392
830.524	19270
830.663	19225
830.802	19053
830.941	19084
831.08	19057
831.219	19023
831.357	19088
831.496	19198
831.635	19031
831.774	18962
831.913	18863
832.051	18875
832.19	18821
832.329	18829
832.467	18734
832.606	18677
832.744	18783
832.883	18798
833.022	18741
833.16	18814
833.299	18825
833.437	18791
833.576	18844
833.714	18928
833.852	18829
833.991	18886
834.129	18909
834.267	18928
834.406	18882
834.544	18966
834.682	18779
834.821	18863
834.959	18947
835.097	18681
835.235	18791
835.373	18681
835.511	18738
835.65	18582
835.788	18673
835.926	18544
836.064	18441
836.202	18384
836.34	18582
836.478	18776
836.615	18684
836.753	18582
836.891	18681
837.029	18589
837.167	18540
837.305	18464
837.443	18467
837.58	18483
837.718	18593
837.856	18486
837.993	18330
838.131	18585
838.269	18445
838.406	18224
838.544	18270
838.681	18186
838.819	18133
838.956	17942
839.094	18011
839.231	17954
839.369	18091
839.506	18372
839.643	18209
839.781	17988
839.918	17775
840.055	17969
840.193	17817
840.33	17824
840.467	17954
840.604	17958
840.742	18155
840.879	17779
841.016	17771
841.153	17855
841.29	18053
841.427	17969
841.564	17999
841.701	17847
841.838	17836
841.975	17802
842.112	17661
842.249	17756
842.385	17634
842.522	17855
842.659	17729
842.796	17577
842.933	17676
843.069	17604
843.206	17581
843.343	17608
843.479	17638
843.616	17535
843.752	17444
843.889	17505
844.025	17532
844.162	17520
844.298	17558
844.435	17646
844.571	17429
844.708	17433
844.844	17707
844.98	17741
845.117	17802
845.253	17790
845.389	17809
845.525	18292
845.661	18726
845.798	19415
845.934	20046
846.07	20180
846.206	20153
846.342	19845
846.478	18928
846.614	18194
846.75	17672
846.886	17505
847.022	17463
847.158	17170
847.294	17117
847.429	17105
847.565	17006
847.701	17254
847.837	16809
847.972	16675
848.108	16839
848.244	16835
848.379	16561
848.515	16588
848.65	16626
848.786	16550
848.921	16596
849.057	16702
849.192	16710
849.328	16535
849.463	16535
849.598	16493
849.734	16371
849.869	16508
850.004	16363
850.14	16337
850.275	16405
850.41	16200
850.545	16295
850.68	16280
850.815	16322
850.95	16455
851.085	16588
851.22	16310
851.355	16322
851.49	16325
851.625	16314
851.76	16257
851.895	16253
852.03	16291
852.165	16147
852.299	16223
852.434	16428
852.569	16367
852.703	16356
852.838	16329
852.973	16474
853.107	16386
853.242	16268
853.376	16207
853.511	16021
853.645	16185
853.78	16276
853.914	16128
854.048	16101
854.183	16215
854.317	16265
854.451	16299
854.585	16158
854.72	16162
854.854	16272
854.988	16105
855.122	16093
855.256	16048
855.39	16147
855.524	16261
855.658	16238
855.792	16219
855.926	16238
856.06	16291
856.194	16276
856.327	16135
856.461	16105
856.595	16101
856.729	16131
856.862	16253
856.996	16158
857.13	16181
857.263	16356
857.397	16207
857.53	16128
857.664	16173
857.797	16261
857.931	16226
858.064	16071
858.197	16291
858.331	16177
858.464	15964
858.597	16048
858.731	16044
858.864	16154
858.997	16116
859.13	16086
859.263	16162
859.396	16295
859.529	16067
859.662	16181
859.795	16025
859.928	16101
860.061	16230
860.194	16306
860.327	16211
860.46	16101
860.592	16181
860.725	16257
860.858	16268
860.99	16071
861.123	16013
861.256	16097
861.388	16086
861.521	16675
861.653	16025
861.786	16006
861.918	16017
862.05	16063
862.183	16097
862.315	16010
862.447	16139
862.58	15979
862.712	15911
862.844	15831
862.976	15850
863.108	15884
863.24	16284
863.372	15819
863.504	15838
863.636	15808
863.768	15964
863.9	15857
864.032	15732
864.164	15835
864.296	15918
864.428	15953
864.559	15953
864.691	15907
864.823	15945
864.954	15899
865.086	15903
865.217	15770
865.349	15739
865.48	15857
865.612	15823
865.743	15991
865.875	15804
866.006	15774
866.137	15926
866.269	15789
866.4	15774
866.531	15774
866.662	15762
866.793	15690
866.924	15857
867.055	15793
867.186	15850
867.317	15728
867.448	15667
867.579	15736
867.71	15686
867.841	15759
867.972	15717
868.103	15728
868.233	15747
868.364	15770
868.495	15850
868.625	16002
868.756	16086
868.886	15892
869.017	16055
869.147	16196
869.278	16150
869.408	16074
869.539	16029
869.669	16059
869.799	16071
869.929	16143
870.06	16131
870.19	16188
870.32	16291
870.45	16356
870.58	16443
870.71	16531
870.84	16649
870.97	16421
871.1	16379
871.23	16622
871.36	16645
871.489	16493
871.619	16637
871.749	16481
871.879	16694
872.008	16786
872.138	16596
872.267	16615
872.397	16542
872.526	16565
872.656	16466
872.785	16592
872.915	16797
873.044	16858
873.173	16691
873.303	16748
873.432	16824
873.561	16843
873.69	16793
873.819	16683
873.948	16812
874.077	16733
874.206	16656
874.335	16653
874.464	16790
874.593	16987
874.722	16987
874.851	17037
874.979	17014
875.108	17045
875.237	16980
875.365	16873
875.494	16976
875.623	17052
875.751	16919
875.88	17060
876.008	17174
876.136	17376
876.265	17448
876.393	17539
876.521	17406
876.65	17551
876.778	17482
876.906	17391
877.034	17436
877.162	17467
877.29	17486
877.418	17360
877.546	17463
877.674	17490
877.802	17535
877.93	17551
878.058	17551
878.185	17459
878.313	17577
878.441	17684
878.568	17596
878.696	17745
878.824	17882
878.951	17980
879.079	18201
879.206	18620
879.333	18642
879.461	18825
879.588	19061
879.715	19027
879.842	18939
879.97	18498
880.097	18201
880.224	17965
880.351	17904
880.478	17733
880.605	17714
880.732	17748
880.859	17923
880.986	17634
881.112	17596
881.239	17551
881.366	17383
881.493	17311
881.619	17200
881.746	17330
881.872	17334
881.999	17258
882.125	17189
882.252	17429
882.378	17288
882.505	17337
882.631	17250
882.757	17121
882.883	17231
883.01	16984
883.136	16972
883.262	16976
883.388	16972
883.514	17113
883.64	17147
883.766	17056
883.892	16843
884.018	16946
884.143	17117
884.269	17147
884.395	16824
884.52	16801
884.646	16793
884.772	16691
884.897	16736
885.023	16782
885.148	16805
885.274	17067
885.399	16854
885.524	16786
885.65	16828
885.775	16740
885.9	16668
886.025	16774
886.15	16736
886.275	16622
886.4	16573
886.525	16637
886.65	16485
886.775	16580
886.9	16793
887.025	16869
887.149	16702
887.274	16459
887.399	16356
887.523	16356
887.648	16299
887.773	16299
887.897	16409
888.021	16341
888.146	16265
888.27	16474
888.395	16462
888.519	16356
888.643	16428
888.767	16386
888.891	16234
889.015	16185
889.139	16177
889.263	16207
889.387	16314
889.511	16344
889.635	16306
889.759	16143
889.883	16177
890.006	16143
890.13	16265
890.254	16071
890.377	16055
890.501	15888
890.624	15880
890.748	15972
890.871	15873
890.995	15755
891.118	15770
891.241	15827
891.364	15831
891.488	15941
891.611	15644
891.734	15842
891.857	15854
891.98	15759
892.103	15907
892.226	15823
892.349	15774
892.471	15599
892.594	15759
892.717	15705
892.839	15663
892.962	15724
893.085	15865
893.207	15724
893.33	15553
893.452	15564
893.575	15759
893.697	15701
893.819	15876
893.941	15899
894.064	15827
894.186	15637
894.308	15644
894.43	15762
894.552	15895
894.674	15793
894.796	15580
894.918	15717
895.04	15732
895.161	15854
895.283	15797
895.405	15660
895.526	15713
895.648	15717
895.769	15804
895.891	15793
896.012	15808
896.134	15880
896.255	15743
896.376	15755
896.498	15797
896.619	15876
896.74	15854
896.861	15804
896.982	16109
897.103	16249
897.224	16188
897.345	16143
897.466	15960
897.587	16040
897.708	16295
897.828	16090
897.949	16010
898.07	15895
898.19	15991
898.311	16173
898.431	16029
898.552	16101
898.672	16223
898.792	16242
898.913	16211
899.033	16013
899.153	16063
899.273	15838
899.393	15922
899.513	16105
899.633	15972
899.753	15987
899.873	15899
899.993	16013
900.113	15991
900.232	15987
900.352	15907
900.472	15812
900.591	15812
900.711	15888
900.83	15873
900.95	15903
901.069	15922
901.189	15736
901.308	15523
901.427	15435
901.546	15496
901.665	15492
901.784	15561
901.904	15363
902.023	15146
902.141	15131
902.26	15001
902.379	14990
902.498	15024
902.617	14921
902.735	15028
902.854	15005
902.973	14941
903.091	14644
903.21	14697
903.328	14667
903.446	14606
903.565	14488
903.683	14507
903.801	14454
903.919	14533
904.038	14446
904.156	14290
904.274	14419
904.392	14351
904.51	14286
904.627	14298
904.745	14298
904.863	14305
904.981	14058
905.098	13902
905.216	14043
905.334	14077
905.451	13928
905.569	13993
905.686	13989
905.803	13955
905.921	13818
906.038	13879
906.155	13765
906.272	13658
906.389	13666
906.506	13616
906.623	13502
906.74	13556
906.857	13438
906.974	13487
907.091	13571
907.208	13567
907.324	13556
907.441	13449
907.557	13285
907.674	13324
907.79	13190
907.907	13183
908.023	13236
908.139	13255
908.256	13187
908.372	13145
908.488	13137
908.604	13053
908.72	12973
908.836	12966
908.952	12913
909.068	13034
909.184	13057
909.3	12958
909.415	12966
909.531	12996
909.647	12715
909.762	12719
909.878	12745
909.993	12768
910.108	12673
910.224	12757
910.339	12681
910.454	12627
910.57	12578
910.685	12528
910.8	12821
910.915	12730
911.03	12597
911.145	12357
911.259	12494
911.374	12395
911.489	12304
911.604	12315
911.718	12194
911.833	12209
911.947	12015
912.062	11984
912.176	12155
912.291	12148
912.405	12076
912.519	12357
912.633	12376
912.748	12220
912.862	12098
912.976	11984
913.09	11946
913.204	11939
913.318	11992
913.431	12110
913.545	12125
913.659	12121
913.772	11935
913.886	11935
914	11859
914.113	12030
914.226	12003
914.34	11950
914.453	11843
914.566	11977
914.68	11824
914.793	11878
914.906	11611
915.019	11520
915.132	11615
915.245	11600
915.358	11672
915.47	11627
915.583	11638
915.696	11619
915.809	11729
915.921	11802
916.034	11600
916.146	11516
916.259	11562
916.371	11619
916.483	11577
916.595	11474
916.708	11482
916.82	11516
916.932	11425
917.044	11474
917.156	11474
917.268	11341
917.38	11383
917.491	11406
917.603	11417
917.715	11429
917.826	11471
917.938	11372
918.049	11250
918.161	11387
918.272	11478
918.384	11539
918.495	11395
918.606	11318
918.717	11235
918.828	11239
918.939	11269
919.05	11128
919.161	11193
919.272	11037
919.383	11048
919.494	11288
919.604	11410
919.715	11235
919.826	11208
919.936	11201
920.047	11345
920.157	11239
920.267	11360
920.378	11303
920.488	11204
920.598	11436
920.708	11596
920.818	11391
920.928	11356
921.038	11562
921.148	11520
921.258	11201
921.368	11143
921.477	11052
921.587	11060
921.697	11006
921.806	11056
921.916	10934
922.025	10710
922.134	10744
922.244	10615
922.353	10801
922.462	10626
922.571	10599
922.68	10436
922.789	10394
922.898	10428
923.007	10318
923.116	10428
923.224	10409
923.333	10451
923.442	10306
923.55	10291
923.659	10318
923.767	10375
923.876	10253
923.984	10280
924.092	10131
924.201	10207
924.309	10249
924.417	10238
924.525	10105
924.633	10230
924.741	10946
924.849	10013
924.956	10177
925.064	9930
925.172	9949
925.279	9953
925.387	10002
925.494	10040
925.602	10097
925.709	10036
925.816	9998
925.924	9945
926.031	10105
926.138	10044
926.245	10044
926.352	9949
926.459	10013
926.566	10128
926.673	10021
926.779	9808
926.886	9827
926.993	9698
927.099	9641
927.206	9641
927.312	9644
927.419	9709
927.525	9694
927.631	9747
927.737	9603
927.843	9500
927.95	9458
928.056	9614
928.162	9576
928.267	9568
928.373	10086
928.479	9656
928.585	9397
928.69	9469
928.796	9610
928.901	9500
929.007	9363
929.112	9443
929.218	9477
929.323	9389
929.428	9439
929.533	9511
929.638	9256
929.743	9272
929.848	9355
929.953	9313
930.058	9260
930.163	9146
930.267	9161
930.372	9279
930.477	9119
930.581	9405
930.685	9195
930.79	9043
930.894	9150
930.998	9066
931.103	9150
931.207	8861
931.311	8720
931.415	8689
931.519	8526
931.623	8511
