Data from test_V78500241_537.txt Node
Date: Fri Mar 25 14:37:27 CST 2022
User: usil
Spectrometer: V785-0024
Trigger mode: 0
Integration Time (sec): 4.000000E-1
Scans to average: 1
Nonlinearity correction enabled: false
Boxcar width: 0
Storing dark spectrum: false
XAxis mode: Wavelengths
Number of Pixels in Spectrum: 1024
>>>>>Begin Spectral Data<<<<<
801.071	27332
801.214	27249
801.356	27070
801.499	26990
801.641	26788
801.783	26830
801.926	26765
802.068	26712
802.211	26629
802.353	26632
802.496	26286
802.638	26400
802.78	26366
802.923	26267
803.065	26225
803.208	26282
803.35	26389
803.492	26381
803.635	26377
803.777	26412
803.919	26351
804.061	26735
804.204	26469
804.346	26374
804.488	26225
804.63	26328
804.773	26248
804.915	26355
805.057	26583
805.199	26476
805.341	26351
805.483	26648
805.626	26518
805.768	26495
805.91	26556
806.052	26511
806.194	26522
806.336	26754
806.478	26800
806.62	26823
806.762	26982
806.904	27119
807.046	27538
807.188	27572
807.33	27739
807.472	27934
807.614	28029
807.756	28337
807.898	28702
808.04	29136
808.182	29866
808.324	30821
808.465	31769
808.607	32929
808.749	33812
808.891	34523
809.033	34481
809.174	33785
809.316	32655
809.458	31635
809.6	30582
809.741	29771
809.883	29250
810.025	28691
810.166	28500
810.308	28078
810.45	27812
810.591	27641
810.733	27526
810.875	27222
811.016	27154
811.158	27032
811.299	27150
811.441	27142
811.582	26914
811.724	26864
811.865	26929
812.007	26750
812.148	26644
812.29	26940
812.431	26857
812.573	26990
812.714	27093
812.855	27199
812.997	27154
813.138	27458
813.279	27363
813.421	27230
813.562	26960
813.703	26933
813.845	26819
813.986	26457
814.127	26202
814.268	26210
814.41	26145
814.551	26073
814.692	26161
814.833	26077
814.974	26039
815.115	26119
815.256	25723
815.397	25890
815.539	25936
815.68	25845
815.821	25715
815.962	25833
816.103	25731
816.244	25567
816.385	25499
816.526	25324
816.666	25369
816.807	25244
816.948	25183
817.089	25278
817.23	25285
817.371	25099
817.512	25148
817.653	25141
817.793	24985
817.934	25148
818.075	25095
818.216	25126
818.356	24848
818.497	24905
818.638	24825
818.778	24681
818.919	24837
819.06	24840
819.2	24894
819.341	24798
819.481	25091
819.622	25046
819.762	25251
819.903	25152
820.043	25164
820.184	25072
820.324	24966
820.465	25046
820.605	24966
820.746	24996
820.886	24863
821.026	24939
821.167	24871
821.307	25084
821.447	24897
821.588	24768
821.728	24601
821.868	24479
822.008	24273
822.149	24384
822.289	24311
822.429	23946
822.569	24114
822.709	23942
822.849	23809
822.99	23710
823.13	23630
823.27	23608
823.41	23596
823.55	23398
823.69	23573
823.83	23459
823.97	23417
824.11	23246
824.25	23269
824.389	23261
824.529	23280
824.669	23345
824.809	23493
824.949	23387
825.089	23417
825.228	23277
825.368	23147
825.508	23220
825.648	23174
825.787	23098
825.927	23086
826.067	23067
826.206	23025
826.346	23094
826.485	23121
826.625	23113
826.765	23140
826.904	23113
827.044	22816
827.183	22835
827.323	22881
827.462	22828
827.601	22645
827.741	22637
827.88	22820
828.02	22675
828.159	22759
828.298	22611
828.437	22752
828.577	22706
828.716	22854
828.855	22672
828.994	22519
829.134	22557
829.273	22462
829.412	22413
829.551	22402
829.69	22394
829.829	22424
829.968	22379
830.107	22493
830.246	22417
830.385	22265
830.524	22352
830.663	22257
830.802	22154
830.941	21987
831.08	21956
831.219	22131
831.357	22177
831.496	22272
831.635	22010
831.774	22006
831.913	21956
832.051	21781
832.19	21857
832.329	21800
832.467	21751
832.606	21644
832.744	21743
832.883	21789
833.022	21800
833.16	21736
833.299	21800
833.437	21964
833.576	22017
833.714	21934
833.852	22070
833.991	22078
834.129	22086
834.267	22128
834.406	22086
834.544	22143
834.682	22063
834.821	21865
834.959	21994
835.097	21812
835.235	21918
835.373	21857
835.511	21869
835.65	21610
835.788	21485
835.926	21458
836.064	21382
836.202	21363
836.34	21561
836.478	21614
836.615	21435
836.753	21614
836.891	21675
837.029	21500
837.167	21466
837.305	21424
837.443	21355
837.58	21279
837.718	21386
837.856	21405
837.993	21203
838.131	21485
838.269	21256
838.406	21287
838.544	21104
838.681	21005
838.819	20929
838.956	20857
839.094	20834
839.231	20906
839.369	20883
839.506	21230
839.643	20990
839.781	20830
839.918	20739
840.055	20765
840.193	20785
840.33	20720
840.467	20765
840.604	20750
840.742	20986
840.879	20568
841.016	20609
841.153	20632
841.29	20792
841.427	20773
841.564	20762
841.701	20750
841.838	20716
841.975	20545
842.112	20564
842.249	20412
842.385	20457
842.522	20686
842.659	20514
842.796	20423
842.933	20518
843.069	20427
843.206	20431
843.343	20598
843.479	20480
843.616	20492
843.752	20294
843.889	20225
844.025	20507
844.162	20294
844.298	20537
844.435	20355
844.571	20362
844.708	20587
844.844	20819
844.98	20960
845.117	21017
845.253	21214
845.389	21724
845.525	22759
845.661	24616
845.798	26769
845.934	28645
846.07	29379
846.206	29056
846.342	27682
846.478	25495
846.614	23258
846.75	21892
846.886	21188
847.022	20727
847.158	20324
847.294	20233
847.429	20103
847.565	19864
847.701	20107
847.837	19681
847.972	19609
848.108	19658
848.244	19510
848.379	19422
848.515	19327
848.65	19247
848.786	19297
848.921	19312
849.057	19278
849.192	19259
849.328	19320
849.463	19202
849.598	19198
849.734	19088
849.869	19175
850.004	19107
850.14	19069
850.275	19072
850.41	18897
850.545	18840
850.68	18977
850.815	18977
850.95	19027
851.085	19145
851.22	19042
851.355	18951
851.49	18909
851.625	18894
851.76	19027
851.895	18954
852.03	18871
852.165	19118
852.299	18943
852.434	19053
852.569	19004
852.703	18894
852.838	18966
852.973	19099
853.107	19091
853.242	19046
853.376	18947
853.511	18787
853.645	18859
853.78	19027
853.914	18924
854.048	18882
854.183	18840
854.317	18947
854.451	19156
854.585	18890
854.72	18939
854.854	19053
854.988	18829
855.122	18947
855.256	18745
855.39	18943
855.524	18867
855.658	18886
855.792	18886
855.926	18844
856.06	18886
856.194	18897
856.327	18840
856.461	18798
856.595	18787
856.729	18810
856.862	18894
856.996	18863
857.13	18848
857.263	18833
857.397	18848
857.53	18726
857.664	18817
857.797	18802
857.931	18783
858.064	18760
858.197	18935
858.331	18726
858.464	18745
858.597	18623
858.731	18722
858.864	18760
858.997	18700
859.13	18711
859.263	18730
859.396	18696
859.529	18661
859.662	18722
859.795	18627
859.928	18658
860.061	18833
860.194	18852
860.327	18726
860.46	18677
860.592	18882
860.725	18829
860.858	18890
860.99	18703
861.123	18540
861.256	18738
861.388	18703
861.521	19453
861.653	18589
861.786	18593
861.918	18650
862.05	18597
862.183	18700
862.315	18726
862.447	18760
862.58	18623
862.712	18483
862.844	18441
862.976	18601
863.108	18448
863.24	18734
863.372	18353
863.504	18376
863.636	18311
863.768	18513
863.9	18353
864.032	18292
864.164	18399
864.296	18399
864.428	18475
864.559	18403
864.691	18555
864.823	18399
864.954	18418
865.086	18327
865.217	18300
865.349	18239
865.48	18289
865.612	18289
865.743	18486
865.875	18410
866.006	18319
866.137	18350
866.269	18365
866.4	18277
866.531	18277
866.662	18300
866.793	18197
866.924	18323
867.055	18247
867.186	18224
867.317	18209
867.448	18232
867.579	18304
867.71	18171
867.841	18140
867.972	18388
868.103	18247
868.233	18304
868.364	18323
868.495	18391
868.625	18471
868.756	18665
868.886	18380
869.017	18353
869.147	18570
869.278	18631
869.408	18521
869.539	18494
869.669	18612
869.799	18601
869.929	18627
870.06	18684
870.19	18913
870.32	18772
870.45	18882
870.58	18840
870.71	18996
870.84	18977
870.97	18920
871.1	18947
871.23	19034
871.36	19206
871.489	19137
871.619	19164
871.749	19190
871.879	19160
872.008	19263
872.138	19069
872.267	19145
872.397	19076
872.526	18993
872.656	18951
872.785	18985
872.915	19183
873.044	19179
873.173	19304
873.303	19202
873.432	19190
873.561	19304
873.69	19274
873.819	19278
873.948	19381
874.077	19308
874.206	19160
874.335	19282
874.464	19308
874.593	19594
874.722	19537
874.851	19655
874.979	19540
875.108	19632
875.237	19624
875.365	19578
875.494	19674
875.623	19632
875.751	19685
875.88	19715
876.008	19765
876.136	19868
876.265	20134
876.393	20358
876.521	20259
876.65	20202
876.778	20149
876.906	20202
877.034	20202
877.162	20309
877.29	20180
877.418	20343
877.546	20389
877.674	20351
877.802	20263
877.93	20537
878.058	20370
878.185	20366
878.313	20644
878.441	20705
878.568	20541
878.696	20990
878.824	21291
878.951	21739
879.079	22440
879.206	23083
879.333	23741
879.461	24144
879.588	24703
879.715	24593
879.842	24433
879.97	23767
880.097	22831
880.224	22211
880.351	21876
880.478	21667
880.605	21416
880.732	21249
880.859	21332
880.986	21195
881.112	20994
881.239	20880
881.366	20724
881.493	20811
881.619	20564
881.746	20678
881.872	20571
881.999	20629
882.125	20785
882.252	20689
882.378	20739
882.505	20819
882.631	20632
882.757	20609
882.883	20655
883.01	20549
883.136	20415
883.262	20351
883.388	20240
883.514	20396
883.64	20514
883.766	20370
883.892	20263
884.018	20294
884.143	20393
884.269	20461
884.395	20381
884.52	20195
884.646	20161
884.772	20138
884.897	20031
885.023	20199
885.148	20244
885.274	20202
885.399	20195
885.524	20081
885.65	20092
885.775	20043
885.9	19868
886.025	20005
886.15	19913
886.275	19757
886.4	19696
886.525	19643
886.65	19670
886.775	19468
886.9	19700
887.025	19913
887.149	19499
887.274	19266
887.399	19187
887.523	19293
887.648	19133
887.773	19137
887.897	19278
888.021	19168
888.146	19069
888.27	19137
888.395	19247
888.519	19133
888.643	19046
888.767	19171
888.891	18947
889.015	18875
889.139	18962
889.263	18852
889.387	18977
889.511	18996
889.635	18901
889.759	18707
889.883	18779
890.006	18684
890.13	18810
890.254	18620
890.377	18616
890.501	18540
890.624	18445
890.748	18509
890.871	18475
890.995	18281
891.118	18266
891.241	18471
891.364	18254
891.488	18342
891.611	18338
891.734	18357
891.857	18338
891.98	18327
892.103	18323
892.226	18270
892.349	18194
892.471	18098
892.594	18155
892.717	18167
892.839	18079
892.962	18125
893.085	18159
893.207	18155
893.33	17920
893.452	18030
893.575	18068
893.697	18083
893.819	18239
893.941	18258
894.064	18144
894.186	17942
894.308	17935
894.43	18224
894.552	18209
894.674	18068
894.796	17973
894.918	17977
895.04	18049
895.161	18186
895.283	18152
895.405	17988
895.526	18068
895.648	18003
895.769	18072
895.891	18041
896.012	18114
896.134	17980
896.255	18064
896.376	18083
896.498	17946
896.619	18194
896.74	18091
896.861	18140
896.982	18319
897.103	18631
897.224	18448
897.345	18182
897.466	18216
897.587	18251
897.708	18414
897.828	18308
897.949	18213
898.07	18057
898.19	18079
898.311	18296
898.431	18319
898.552	18258
898.672	18235
898.792	18235
898.913	18300
899.033	18106
899.153	18041
899.273	17863
899.393	18060
899.513	17973
899.633	18034
899.753	18171
899.873	18003
899.993	18079
900.113	18022
900.232	18095
900.352	17973
900.472	17908
900.591	17790
900.711	17904
900.83	17897
900.95	17870
901.069	17999
901.189	17726
901.308	17497
901.427	17326
901.546	17421
901.665	17539
901.784	17467
901.904	17337
902.023	17242
902.141	17045
902.26	17037
902.379	17098
902.498	16972
902.617	16972
902.735	17022
902.854	16919
902.973	16805
903.091	16573
903.21	16611
903.328	16672
903.446	16405
903.565	16455
903.683	16440
903.801	16306
903.919	16519
904.038	16295
904.156	16200
904.274	16322
904.392	16093
904.51	16192
904.627	16101
904.745	16219
904.863	16306
904.981	15907
905.098	15846
905.216	15762
905.334	15930
905.451	15728
905.569	15800
905.686	15876
905.803	15755
905.921	15599
906.038	15781
906.155	15644
906.272	15557
906.389	15504
906.506	15420
906.623	15313
906.74	15321
906.857	15218
906.974	15268
907.091	15329
907.208	15458
907.324	15374
907.441	15176
907.557	15135
907.674	15047
907.79	15013
907.907	14982
908.023	15055
908.139	15108
908.256	14967
908.372	14849
908.488	14910
908.604	14811
908.72	14708
908.836	14773
908.952	14708
909.068	14674
909.184	14796
909.3	14663
909.415	14792
909.531	14598
909.647	14526
909.762	14518
909.878	14309
909.993	14473
910.108	14454
910.224	14404
910.339	14438
910.454	14298
910.57	14233
910.685	14248
910.8	14526
910.915	14377
911.03	14237
911.145	14168
911.259	14081
911.374	14119
911.489	13986
911.604	13944
911.718	13856
911.833	13906
911.947	13780
912.062	13636
912.176	13780
912.291	13791
912.405	13727
912.519	14081
912.633	14046
912.748	13917
912.862	13765
912.976	13609
913.09	13563
913.204	13590
913.318	13670
913.431	13788
913.545	13811
913.659	13769
913.772	13681
913.886	13472
914	13457
914.113	13655
914.226	13677
914.34	13464
914.453	13419
914.566	13578
914.68	13445
914.793	13400
914.906	13179
915.019	13194
915.132	13137
915.245	13050
915.358	13251
915.47	13259
915.583	13297
915.696	13236
915.809	13244
915.921	13232
916.034	13122
916.146	13187
916.259	13114
916.371	13217
916.483	13190
916.595	13118
916.708	13034
916.82	12993
916.932	13103
917.044	13038
917.156	13015
917.268	12901
917.38	12951
917.491	12977
917.603	12882
917.715	12985
917.826	13031
917.938	12897
918.049	12810
918.161	12867
918.272	13008
918.384	12932
918.495	12837
918.606	12734
918.717	12669
918.828	12783
918.939	12684
919.05	12597
919.161	12623
919.272	12540
919.383	12479
919.494	12665
919.604	12875
919.715	12722
919.826	12578
919.936	12681
920.047	12760
920.157	12665
920.267	12852
920.378	12639
920.488	12658
920.598	12772
920.708	12886
920.818	12821
920.928	12791
921.038	12951
921.148	12886
921.258	12578
921.368	12532
921.477	12513
921.587	12448
921.697	12323
921.806	12452
921.916	12296
922.025	12133
922.134	12053
922.244	12026
922.353	12148
922.462	11950
922.571	11863
922.68	11783
922.789	11764
922.898	11783
923.007	11653
923.116	11836
923.224	11653
923.333	11737
923.442	11604
923.55	11611
923.659	11729
923.767	11672
923.876	11516
923.984	11668
924.092	11562
924.201	11589
924.309	11566
924.417	11501
924.525	11387
924.633	11433
924.741	12144
924.849	11254
924.956	11429
925.064	11280
925.172	11143
925.279	11235
925.387	11246
925.494	11311
925.602	11360
925.709	11269
925.816	11223
925.924	11193
926.031	11246
926.138	11197
926.245	11273
926.352	11132
926.459	11303
926.566	11345
926.673	11185
926.779	11025
926.886	11033
926.993	10991
927.099	10774
927.206	10835
927.312	10809
927.419	10938
927.525	10889
927.631	10835
927.737	10847
927.843	10744
927.95	10577
928.056	10736
928.162	10767
928.267	10854
928.373	11258
928.479	10828
928.585	10607
928.69	10717
928.796	10763
928.901	10615
929.007	10481
929.112	10565
929.218	10512
929.323	10516
929.428	10497
929.533	10645
929.638	10447
929.743	10466
929.848	10432
929.953	10497
930.058	10329
930.163	10246
930.267	10242
930.372	10303
930.477	10261
930.581	10440
930.685	10280
930.79	10150
930.894	10128
930.998	10120
931.103	10211
931.207	9888
931.311	9804
931.415	9736
931.519	9606
931.623	9519
