Data from test_V78500241_3432.txt Node
Date: Fri Mar 25 14:57:36 CST 2022
User: usil
Spectrometer: V785-0024
Trigger mode: 0
Integration Time (sec): 4.000000E-1
Scans to average: 1
Nonlinearity correction enabled: false
Boxcar width: 0
Storing dark spectrum: false
XAxis mode: Wavelengths
Number of Pixels in Spectrum: 1024
>>>>>Begin Spectral Data<<<<<
801.071	21960
801.214	21991
801.356	21511
801.499	21606
801.641	21351
801.783	21192
801.926	21389
802.068	21214
802.211	21184
802.353	21146
802.496	20895
802.638	20769
802.78	20765
802.923	20613
803.065	20587
803.208	20552
803.35	20583
803.492	20678
803.635	20697
803.777	20613
803.919	20739
804.061	21055
804.204	20632
804.346	20644
804.488	20530
804.63	20613
804.773	20438
804.915	20442
805.057	20579
805.199	20503
805.341	20560
805.483	20484
805.626	20499
805.768	20374
805.91	20602
806.052	20575
806.194	20469
806.336	20640
806.478	20484
806.62	20408
806.762	20556
806.904	20788
807.046	20864
807.188	20861
807.33	20880
807.472	20872
807.614	20762
807.756	20697
807.898	20670
808.04	20522
808.182	20507
808.324	20560
808.465	20716
808.607	20746
808.749	20796
808.891	20906
809.033	21024
809.174	20823
809.316	20842
809.458	20861
809.6	20781
809.741	20921
809.883	21009
810.025	21032
810.166	21081
810.308	20979
810.45	20895
810.591	20739
810.733	20716
810.875	20651
811.016	20621
811.158	20522
811.299	20648
811.441	20743
811.582	20792
811.724	20697
811.865	20526
812.007	20575
812.148	20613
812.29	20476
812.431	20891
812.573	21001
812.714	21119
812.855	21207
812.997	21249
813.138	21310
813.279	21237
813.421	21184
813.562	21173
813.703	20845
813.845	20743
813.986	20495
814.127	20305
814.268	20206
814.41	20225
814.551	20122
814.692	20210
814.833	20126
814.974	20100
815.115	20183
815.256	19959
815.397	20107
815.539	20069
815.68	19894
815.821	19860
815.962	19803
816.103	19887
816.244	19681
816.385	19651
816.526	19597
816.666	19362
816.807	19270
816.948	19487
817.089	19396
817.23	19495
817.371	19369
817.512	19301
817.653	19278
817.793	19331
817.934	19293
818.075	19301
818.216	19400
818.356	19251
818.497	19088
818.638	19015
818.778	19027
818.919	18977
819.06	19046
819.2	19122
819.341	19160
819.481	19202
819.622	19301
819.762	19502
819.903	19346
820.043	19312
820.184	19400
820.324	19297
820.465	19343
820.605	19285
820.746	19285
820.886	19213
821.026	19266
821.167	19152
821.307	19365
821.447	19183
821.588	19076
821.728	19012
821.868	18901
822.008	18741
822.149	18639
822.289	18563
822.429	18426
822.569	18376
822.709	18300
822.849	18174
822.99	18224
823.13	18315
823.27	18186
823.41	18019
823.55	17977
823.69	17973
823.83	17988
823.97	17889
824.11	17798
824.25	17767
824.389	17813
824.529	17760
824.669	17802
824.809	17832
824.949	17817
825.089	17836
825.228	17859
825.368	17581
825.508	17577
825.648	17573
825.787	17653
825.927	17630
826.067	17463
826.206	17505
826.346	17444
826.485	17566
826.625	17573
826.765	17699
826.904	17668
827.044	17315
827.183	17277
827.323	17204
827.462	17265
827.601	17212
827.741	17292
827.88	17212
828.02	17140
828.159	17181
828.298	17239
828.437	17330
828.577	17250
828.716	17288
828.855	17193
828.994	17155
829.134	17064
829.273	16991
829.412	17025
829.551	16873
829.69	16987
829.829	17086
829.968	17147
830.107	17102
830.246	16949
830.385	17022
830.524	16843
830.663	16801
830.802	16725
830.941	16618
831.08	16736
831.219	16634
831.357	16615
831.496	16759
831.635	16687
831.774	16508
831.913	16573
832.051	16455
832.19	16443
832.329	16481
832.467	16417
832.606	16265
832.744	16375
832.883	16219
833.022	16322
833.16	16329
833.299	16409
833.437	16253
833.576	16382
833.714	16440
833.852	16375
833.991	16333
834.129	16363
834.267	16443
834.406	16398
834.544	16462
834.682	16405
834.821	16322
834.959	16580
835.097	16421
835.235	16462
835.373	16382
835.511	16405
835.65	16223
835.788	16249
835.926	16246
836.064	16128
836.202	16204
836.34	16242
836.478	16329
836.615	16185
836.753	16325
836.891	16538
837.029	16360
837.167	16211
837.305	16329
837.443	16074
837.58	16147
837.718	16242
837.856	16154
837.993	16173
838.131	16166
838.269	16238
838.406	16051
838.544	16044
838.681	15865
838.819	15876
838.956	15770
839.094	15644
839.231	15774
839.369	15899
839.506	16154
839.643	16078
839.781	15728
839.918	15629
840.055	15774
840.193	15717
840.33	15614
840.467	15743
840.604	15800
840.742	15945
840.879	15603
841.016	15652
841.153	15656
841.29	15869
841.427	15759
841.564	15759
841.701	15762
841.838	15751
841.975	15644
842.112	15690
842.249	15504
842.385	15500
842.522	15797
842.659	15591
842.796	15477
842.933	15454
843.069	15420
843.206	15488
843.343	15587
843.479	15652
843.616	15580
843.752	15199
843.889	15294
844.025	15435
844.162	15306
844.298	15469
844.435	15291
844.571	15203
844.708	15374
844.844	15523
844.98	15401
845.117	15428
845.253	15260
845.389	15184
845.525	15260
845.661	15138
845.798	15081
845.934	15199
846.07	15032
846.206	15279
846.342	15203
846.478	15077
846.614	15051
846.75	14765
846.886	14792
847.022	14986
847.158	14887
847.294	14849
847.429	14975
847.565	14853
847.701	15104
847.837	14648
847.972	14587
848.108	14731
848.244	14670
848.379	14549
848.515	14511
848.65	14431
848.786	14446
848.921	14549
849.057	14568
849.192	14579
849.328	14530
849.463	14385
849.598	14484
849.734	14442
849.869	14278
850.004	14282
850.14	14267
850.275	14267
850.41	14218
850.545	14218
850.68	14252
850.815	14237
850.95	14301
851.085	14393
851.22	14343
851.355	14252
851.49	14210
851.625	14290
851.76	14206
851.895	14103
852.03	14027
852.165	14218
852.299	14313
852.434	14351
852.569	14256
852.703	14210
852.838	14324
852.973	14450
853.107	14473
853.242	14161
853.376	14058
853.511	14046
853.645	14088
853.78	14267
853.914	14168
854.048	14107
854.183	14153
854.317	14130
854.451	14259
854.585	14123
854.72	13928
854.854	14142
854.988	14050
855.122	14100
855.256	14012
855.39	14008
855.524	14275
855.658	14172
855.792	14218
855.926	14202
856.06	14237
856.194	14259
856.327	14138
856.461	14088
856.595	14111
856.729	14111
856.862	14153
856.996	14161
857.13	14161
857.263	14191
857.397	14149
857.53	14145
857.664	14180
857.797	14233
857.931	14290
858.064	14164
858.197	14202
858.331	14024
858.464	14062
858.597	13932
858.731	14054
858.864	14183
858.997	14050
859.13	14191
859.263	14161
859.396	14180
859.529	14024
859.662	14134
859.795	14039
859.928	14084
860.061	14309
860.194	14370
860.327	14172
860.46	14153
860.592	14229
860.725	14237
860.858	14256
860.99	14138
861.123	14001
861.256	14058
861.388	14123
861.521	14815
861.653	14039
861.786	14016
861.918	13936
862.05	14043
862.183	14149
862.315	14077
862.447	14069
862.58	14168
862.712	13944
862.844	13727
862.976	13959
863.108	13921
863.24	14377
863.372	13845
863.504	13913
863.636	13921
863.768	14035
863.9	13906
864.032	13811
864.164	13906
864.296	14001
864.428	13978
864.559	14043
864.691	13944
864.823	13932
864.954	13932
865.086	13887
865.217	13921
865.349	13795
865.48	13849
865.612	13959
865.743	14020
865.875	13871
866.006	13852
866.137	13795
866.269	13944
866.4	13887
866.531	13856
866.662	13868
866.793	13746
866.924	13856
867.055	13841
867.186	13875
867.317	13845
867.448	13689
867.579	13772
867.71	13890
867.841	13784
867.972	13890
868.103	13852
868.233	13845
868.364	13906
868.495	13951
868.625	14191
868.756	14301
868.886	14096
869.017	14107
869.147	14301
869.278	14282
869.408	14176
869.539	14103
869.669	14278
869.799	14103
869.929	14176
870.06	14282
870.19	14336
870.32	14438
870.45	14450
870.58	14514
870.71	14682
870.84	14594
870.97	14644
871.1	14568
871.23	14788
871.36	14701
871.489	14640
871.619	14651
871.749	14754
871.879	14739
872.008	14800
872.138	14724
872.267	14670
872.397	14560
872.526	14610
872.656	14579
872.785	14629
872.915	14716
873.044	14819
873.173	14735
873.303	14853
873.432	14823
873.561	14895
873.69	14861
873.819	14716
873.948	14830
874.077	14929
874.206	14708
874.335	14880
874.464	14944
874.593	15039
874.722	15001
874.851	15146
874.979	15218
875.108	15055
875.237	14982
875.365	15009
875.494	15116
875.623	15161
875.751	15055
875.88	15093
876.008	15340
876.136	15386
876.265	15507
876.393	15698
876.521	15610
876.65	15557
876.778	15576
876.906	15511
877.034	15477
877.162	15397
877.29	15443
877.418	15580
877.546	15568
877.674	15580
877.802	15515
877.93	15618
878.058	15443
878.185	15500
878.313	15469
878.441	15553
878.568	15397
878.696	15542
878.824	15584
878.951	15610
879.079	15663
879.206	15911
879.333	15720
879.461	15530
879.588	15663
879.715	15709
879.842	15797
879.97	15599
880.097	15431
880.224	15336
880.351	15401
880.478	15382
880.605	15313
880.732	15348
880.859	15595
880.986	15485
881.112	15351
881.239	15321
881.366	15222
881.493	15142
881.619	15047
881.746	15009
881.872	15138
881.999	14982
882.125	14971
882.252	15131
882.378	15077
882.505	15207
882.631	15039
882.757	14792
882.883	14880
883.01	14906
883.136	14830
883.262	14758
883.388	14667
883.514	14887
883.64	14823
883.766	14792
883.892	14659
884.018	14697
884.143	14880
884.269	14910
884.395	14678
884.52	14518
884.646	14514
884.772	14579
884.897	14511
885.023	14590
885.148	14781
885.274	14693
885.399	14720
885.524	14549
885.65	14568
885.775	14507
885.9	14636
886.025	14598
886.15	14579
886.275	14545
886.4	14473
886.525	14571
886.65	14488
886.775	14541
886.9	14705
887.025	14735
887.149	14568
887.274	14488
887.399	14298
887.523	14301
887.648	14454
887.773	14343
887.897	14358
888.021	14457
888.146	14423
888.27	14484
888.395	14518
888.519	14469
888.643	14476
888.767	14461
888.891	14328
889.015	14225
889.139	14278
889.263	14221
889.387	14324
889.511	14396
889.635	14396
889.759	14298
889.883	14252
890.006	14218
890.13	14343
890.254	14271
890.377	14256
890.501	14050
890.624	14176
890.748	14100
890.871	13997
890.995	13967
891.118	13841
891.241	14081
891.364	14031
891.488	14164
891.611	13940
891.734	14031
891.857	13986
891.98	13959
892.103	14005
892.226	13944
892.349	13963
892.471	13811
892.594	14005
892.717	14016
892.839	14065
892.962	14046
893.085	14065
893.207	13997
893.33	13887
893.452	13898
893.575	14088
893.697	13936
893.819	14107
893.941	14214
894.064	14115
894.186	14035
894.308	13921
894.43	14123
894.552	14210
894.674	14046
894.796	14024
894.918	14050
895.04	13921
895.161	14164
895.283	14191
895.405	13997
895.526	14084
895.648	14149
895.769	14065
895.891	14054
896.012	14134
896.134	14256
896.255	14138
896.376	14157
896.498	14172
896.619	14168
896.74	14164
896.861	14225
896.982	14617
897.103	14606
897.224	14423
897.345	14393
897.466	14507
897.587	14484
897.708	14526
897.828	14541
897.949	14351
898.07	14320
898.19	14324
898.311	14587
898.431	14336
898.552	14446
898.672	14549
898.792	14549
898.913	14598
899.033	14450
899.153	14381
899.273	14263
899.393	14389
899.513	14366
899.633	14347
899.753	14347
899.873	14358
899.993	14450
900.113	14351
900.232	14336
900.352	14393
900.472	14244
900.591	14206
900.711	14324
900.83	14103
900.95	14240
901.069	14366
901.189	14130
901.308	13917
901.427	13841
901.546	13875
901.665	13925
901.784	13959
901.904	13715
902.023	13689
902.141	13464
902.26	13464
902.379	13578
902.498	13502
902.617	13483
902.735	13502
902.854	13449
902.973	13411
903.091	13198
903.21	13141
903.328	13255
903.446	13061
903.565	13061
903.683	13187
903.801	12905
903.919	13000
904.038	13038
904.156	12935
904.274	12943
904.392	12859
904.51	12867
904.627	12878
904.745	12875
904.863	12825
904.981	12688
905.098	12490
905.216	12528
905.334	12597
905.451	12559
905.569	12532
905.686	12604
905.803	12547
905.921	12380
906.038	12540
906.155	12353
906.272	12224
906.389	12300
906.506	12095
906.623	12102
906.74	12155
906.857	12091
906.974	12106
907.091	12095
907.208	12228
907.324	12197
907.441	12129
907.557	11885
907.674	11901
907.79	11851
907.907	11920
908.023	11984
908.139	11939
908.256	11863
908.372	11794
908.488	11824
908.604	11684
908.72	11558
908.836	11619
908.952	11619
909.068	11604
909.184	11840
909.3	11646
909.415	11783
909.531	11688
909.647	11436
909.762	11452
909.878	11395
909.993	11463
910.108	11391
910.224	11383
910.339	11444
910.454	11296
910.57	11227
910.685	11189
910.8	11535
910.915	11429
911.03	11280
911.145	11197
911.259	11094
911.374	11140
911.489	10995
911.604	11060
911.718	10911
911.833	10938
911.947	10759
912.062	10653
912.176	10904
912.291	10938
912.405	10885
912.519	11109
912.633	11083
912.748	10987
912.862	10965
912.976	10736
913.09	10664
913.204	10721
913.318	10736
913.431	10904
913.545	10831
913.659	10873
913.772	10820
913.886	10645
914	10558
914.113	10710
914.226	10820
914.34	10725
914.453	10527
914.566	10725
914.68	10618
914.793	10558
914.906	10459
915.019	10402
915.132	10409
915.245	10371
915.358	10295
915.47	10398
915.583	10497
915.696	10394
915.809	10550
915.921	10554
916.034	10356
916.146	10360
916.259	10363
916.371	10485
916.483	10447
916.595	10371
916.708	10337
916.82	10386
916.932	10337
917.044	10333
917.156	10382
917.268	10204
917.38	10166
917.491	10204
917.603	10207
917.715	10322
917.826	10390
917.938	10242
918.049	10063
918.161	10287
918.272	10306
918.384	10363
918.495	10318
918.606	10032
918.717	10090
918.828	10093
918.939	10131
919.05	10101
919.161	10101
919.272	9892
919.383	10021
919.494	10105
919.604	10272
919.715	10181
919.826	10063
919.936	10086
920.047	10211
920.157	10169
920.267	10405
920.378	10177
920.488	10128
920.598	10306
920.708	10451
920.818	10310
920.928	10348
921.038	10466
921.148	10455
921.258	10105
921.368	10090
921.477	10025
921.587	9987
921.697	9903
921.806	10013
921.916	9873
922.025	9682
922.134	9724
922.244	9656
922.353	9667
922.462	9561
922.571	9526
922.68	9382
922.789	9389
922.898	9424
923.007	9272
923.116	9386
923.224	9329
923.333	9424
923.442	9310
923.55	9237
923.659	9363
923.767	9329
923.876	9306
923.984	9306
924.092	9264
924.201	9294
924.309	9279
924.417	9237
924.525	9222
924.633	9203
924.741	10090
924.849	8960
924.956	9127
925.064	8979
925.172	8979
925.279	9085
925.387	9001
925.494	8982
925.602	9184
925.709	9108
925.816	8971
925.924	9119
926.031	9131
926.138	9097
926.245	9077
926.352	8986
926.459	9150
926.566	9100
926.673	9081
926.779	8963
926.886	8902
926.993	8838
927.099	8811
927.206	8777
927.312	8720
927.419	8819
927.525	8834
927.631	8762
927.737	8648
927.843	8621
927.95	8571
928.056	8613
928.162	8648
928.267	8686
928.373	9363
928.479	8720
928.585	8549
928.69	8678
928.796	8636
928.901	8560
929.007	8423
929.112	8579
929.218	8484
929.323	8495
929.428	8480
929.533	8674
929.638	8450
929.743	8499
929.848	8556
929.953	8499
930.058	8408
930.163	8202
930.267	8286
930.372	8431
930.477	8214
930.581	8431
930.685	8294
930.79	8187
930.894	8191
930.998	8161
931.103	8355
931.207	8058
931.311	7963
931.415	7849
931.519	7685
931.623	7693
