Data from test_V78500241_3426.txt Node
Date: Fri Mar 25 14:57:34 CST 2022
User: usil
Spectrometer: V785-0024
Trigger mode: 0
Integration Time (sec): 4.000000E-1
Scans to average: 1
Nonlinearity correction enabled: false
Boxcar width: 0
Storing dark spectrum: false
XAxis mode: Wavelengths
Number of Pixels in Spectrum: 1024
>>>>>Begin Spectral Data<<<<<
801.071	21846
801.214	21903
801.356	21561
801.499	21378
801.641	21401
801.783	21283
801.926	21367
802.068	21230
802.211	21275
802.353	21039
802.496	20937
802.638	20891
802.78	20716
802.923	20621
803.065	20609
803.208	20617
803.35	20602
803.492	20754
803.635	20689
803.777	20575
803.919	20686
804.061	20948
804.204	20693
804.346	20583
804.488	20419
804.63	20598
804.773	20408
804.915	20583
805.057	20621
805.199	20461
805.341	20454
805.483	20518
805.626	20522
805.768	20499
805.91	20507
806.052	20476
806.194	20511
806.336	20594
806.478	20571
806.62	20461
806.762	20560
806.904	20648
807.046	20902
807.188	20941
807.33	20781
807.472	20963
807.614	20796
807.756	20781
807.898	20644
808.04	20522
808.182	20568
808.324	20598
808.465	20454
808.607	20758
808.749	20975
808.891	20963
809.033	20990
809.174	20941
809.316	20781
809.458	20891
809.6	20750
809.741	20811
809.883	20937
810.025	21001
810.166	20845
810.308	21066
810.45	20891
810.591	20929
810.733	20804
810.875	20613
811.016	20495
811.158	20571
811.299	20667
811.441	20800
811.582	20731
811.724	20667
811.865	20575
812.007	20522
812.148	20621
812.29	20693
812.431	20731
812.573	20872
812.714	20982
812.855	21150
812.997	21264
813.138	21279
813.279	21241
813.421	21077
813.562	20986
813.703	20960
813.845	20758
813.986	20404
814.127	20210
814.268	20229
814.41	20180
814.551	20183
814.692	20183
814.833	20157
814.974	20122
815.115	20145
815.256	19925
815.397	19913
815.539	19928
815.68	20046
815.821	19841
815.962	19890
816.103	19955
816.244	19791
816.385	19662
816.526	19723
816.666	19514
816.807	19343
816.948	19327
817.089	19362
817.23	19354
817.371	19354
817.512	19301
817.653	19240
817.793	19251
817.934	19278
818.075	19384
818.216	19304
818.356	19263
818.497	19137
818.638	18882
818.778	19027
818.919	19069
819.06	19012
819.2	19107
819.341	19213
819.481	19171
819.622	19365
819.762	19483
819.903	19358
820.043	19354
820.184	19407
820.324	19259
820.465	19354
820.605	19320
820.746	19293
820.886	19175
821.026	19289
821.167	19168
821.307	19221
821.447	19278
821.588	19057
821.728	18985
821.868	18867
822.008	18764
822.149	18608
822.289	18779
822.429	18384
822.569	18445
822.709	18452
822.849	18190
822.99	18220
823.13	18159
823.27	18216
823.41	18114
823.55	17931
823.69	17904
823.83	17961
823.97	17851
824.11	17798
824.25	17672
824.389	17767
824.529	17790
824.669	17745
824.809	17855
824.949	17916
825.089	17851
825.228	17813
825.368	17585
825.508	17524
825.648	17619
825.787	17516
825.927	17687
826.067	17589
826.206	17440
826.346	17615
826.485	17668
826.625	17410
826.765	17608
826.904	17623
827.044	17524
827.183	17360
827.323	17242
827.462	17311
827.601	17258
827.741	17265
827.88	17227
828.02	17151
828.159	17128
828.298	17178
828.437	17341
828.577	17318
828.716	17292
828.855	17273
828.994	17041
829.134	16904
829.273	17083
829.412	17022
829.551	16919
829.69	16968
829.829	16927
829.968	17159
830.107	17124
830.246	16965
830.385	16908
830.524	16847
830.663	16816
830.802	16763
830.941	16512
831.08	16561
831.219	16748
831.357	16675
831.496	16767
831.635	16626
831.774	16622
831.913	16645
832.051	16459
832.19	16462
832.329	16474
832.467	16432
832.606	16348
832.744	16417
832.883	16287
833.022	16291
833.16	16325
833.299	16363
833.437	16344
833.576	16440
833.714	16303
833.852	16409
833.991	16382
834.129	16405
834.267	16523
834.406	16356
834.544	16443
834.682	16276
834.821	16341
834.959	16527
835.097	16348
835.235	16550
835.373	16402
835.511	16459
835.65	16295
835.788	16329
835.926	16063
836.064	16032
836.202	16234
836.34	16276
836.478	16375
836.615	16333
836.753	16291
836.891	16314
837.029	16280
837.167	16284
837.305	16276
837.443	16211
837.58	16169
837.718	16295
837.856	16185
837.993	16097
838.131	16223
838.269	16101
838.406	16150
838.544	16025
838.681	15876
838.819	15861
838.956	15766
839.094	15755
839.231	15774
839.369	15850
839.506	16143
839.643	15884
839.781	15797
839.918	15675
840.055	15679
840.193	15694
840.33	15709
840.467	15675
840.604	15797
840.742	16025
840.879	15656
841.016	15587
841.153	15652
841.29	15873
841.427	15800
841.564	15743
841.701	15755
841.838	15614
841.975	15572
842.112	15667
842.249	15622
842.385	15500
842.522	15663
842.659	15534
842.796	15553
842.933	15572
843.069	15443
843.206	15488
843.343	15538
843.479	15553
843.616	15561
843.752	15252
843.889	15233
844.025	15393
844.162	15252
844.298	15416
844.435	15199
844.571	15199
844.708	15340
844.844	15515
844.98	15481
845.117	15466
845.253	15298
845.389	15097
845.525	15313
845.661	15199
845.798	15161
845.934	15169
846.07	15085
846.206	15135
846.342	15146
846.478	15089
846.614	14845
846.75	14849
846.886	14918
847.022	14982
847.158	14868
847.294	14925
847.429	14921
847.565	14929
847.701	15077
847.837	14571
847.972	14552
848.108	14720
848.244	14712
848.379	14499
848.515	14465
848.65	14434
848.786	14503
848.921	14514
849.057	14621
849.192	14602
849.328	14450
849.463	14556
849.598	14434
849.734	14457
849.869	14404
850.004	14294
850.14	14347
850.275	14313
850.41	14180
850.545	14294
850.68	14202
850.815	14286
850.95	14199
851.085	14454
851.22	14282
851.355	14343
851.49	14199
851.625	14176
851.76	14149
851.895	14153
852.03	14088
852.165	14214
852.299	14256
852.434	14324
852.569	14278
852.703	14259
852.838	14374
852.973	14507
853.107	14362
853.242	14195
853.376	14115
853.511	14031
853.645	14103
853.78	14278
853.914	14161
854.048	14088
854.183	14031
854.317	14183
854.451	14263
854.585	14096
854.72	14126
854.854	14176
854.988	14039
855.122	14123
855.256	13940
855.39	14172
855.524	14149
855.658	14161
855.792	14084
855.926	14199
856.06	14206
856.194	14164
856.327	14092
856.461	14065
856.595	14031
856.729	14240
856.862	14142
856.996	14130
857.13	14183
857.263	14206
857.397	14305
857.53	14107
857.664	14275
857.797	14210
857.931	14290
858.064	14210
858.197	14244
858.331	14149
858.464	14005
858.597	14039
858.731	14073
858.864	14191
858.997	14100
859.13	14050
859.263	14145
859.396	14244
859.529	14073
859.662	14103
859.795	14062
859.928	14115
860.061	14298
860.194	14336
860.327	14111
860.46	14149
860.592	14115
860.725	14221
860.858	14240
860.99	14142
861.123	14096
861.256	14065
861.388	14138
861.521	14739
861.653	13989
861.786	13906
861.918	14054
862.05	13974
862.183	14202
862.315	14130
862.447	14153
862.58	14142
862.712	13890
862.844	13875
862.976	14031
863.108	14012
863.24	14381
863.372	13746
863.504	13906
863.636	13856
863.768	14008
863.9	13913
864.032	13830
864.164	13928
864.296	13928
864.428	14065
864.559	14008
864.691	14001
864.823	13940
864.954	13993
865.086	13955
865.217	14012
865.349	13791
865.48	13955
865.612	13982
865.743	14050
865.875	13868
866.006	13837
866.137	13925
866.269	13932
866.4	13871
866.531	13894
866.662	13852
866.793	13811
866.924	13856
867.055	13974
867.186	13932
867.317	13845
867.448	13837
867.579	13784
867.71	13765
867.841	13951
867.972	13906
868.103	13894
868.233	13928
868.364	13890
868.495	14024
868.625	13978
868.756	14267
868.886	14084
869.017	14153
869.147	14214
869.278	14347
869.408	14126
869.539	14164
869.669	14123
869.799	14202
869.929	14240
870.06	14218
870.19	14541
870.32	14423
870.45	14465
870.58	14537
870.71	14686
870.84	14560
870.97	14594
871.1	14571
871.23	14697
871.36	14785
871.489	14625
871.619	14621
871.749	14739
871.879	14834
872.008	14739
872.138	14785
872.267	14678
872.397	14640
872.526	14636
872.656	14556
872.785	14587
872.915	14796
873.044	14758
873.173	14838
873.303	14815
873.432	14800
873.561	14887
873.69	14739
873.819	14781
873.948	14876
874.077	14769
874.206	14716
874.335	14735
874.464	14971
874.593	15123
874.722	15058
874.851	15116
874.979	15173
875.108	15077
875.237	14979
875.365	15070
875.494	15032
875.623	15214
875.751	15036
875.88	15184
876.008	15218
876.136	15325
876.265	15405
876.393	15595
876.521	15542
876.65	15564
876.778	15477
876.906	15435
877.034	15420
877.162	15568
877.29	15408
877.418	15450
877.546	15564
877.674	15591
877.802	15545
877.93	15530
878.058	15481
878.185	15393
878.313	15473
878.441	15469
878.568	15466
878.696	15435
878.824	15500
878.951	15637
879.079	15766
879.206	15816
879.333	15698
879.461	15568
879.588	15679
879.715	15778
879.842	15854
879.97	15481
880.097	15336
880.224	15389
880.351	15306
880.478	15412
880.605	15367
880.732	15401
880.859	15618
880.986	15344
881.112	15462
881.239	15275
881.366	15222
881.493	15097
881.619	14975
881.746	15085
881.872	15051
881.999	15055
882.125	14948
882.252	15005
882.378	15093
882.505	15119
882.631	15024
882.757	14849
882.883	14944
883.01	14895
883.136	14796
883.262	14727
883.388	14731
883.514	14899
883.64	14864
883.766	14815
883.892	14568
884.018	14804
884.143	14868
884.269	14929
884.395	14587
884.52	14518
884.646	14587
884.772	14465
884.897	14530
885.023	14560
885.148	14693
885.274	14697
885.399	14705
885.524	14575
885.65	14514
885.775	14617
885.9	14636
886.025	14625
886.15	14632
886.275	14663
886.4	14526
886.525	14480
886.65	14446
886.775	14556
886.9	14583
887.025	14720
887.149	14560
887.274	14396
887.399	14320
887.523	14423
887.648	14408
887.773	14294
887.897	14514
888.021	14488
888.146	14339
888.27	14457
888.395	14644
888.519	14434
888.643	14461
888.767	14438
888.891	14324
889.015	14355
889.139	14358
889.263	14168
889.387	14332
889.511	14450
889.635	14457
889.759	14195
889.883	14294
890.006	14301
890.13	14393
890.254	14096
890.377	14298
890.501	14168
890.624	14027
890.748	14138
890.871	13951
890.995	13974
891.118	13856
891.241	14054
891.364	13951
891.488	14043
891.611	14008
891.734	14027
891.857	14054
891.98	13944
892.103	13967
892.226	14043
892.349	13989
892.471	13795
892.594	13959
892.717	13947
892.839	13936
892.962	14065
893.085	13970
893.207	14058
893.33	13913
893.452	13951
893.575	14069
893.697	13997
893.819	14153
893.941	14187
894.064	14176
894.186	13944
894.308	13909
894.43	14039
894.552	14229
894.674	14123
894.796	13989
894.918	14046
895.04	13944
895.161	14123
895.283	14100
895.405	13947
895.526	14054
895.648	14103
895.769	14214
895.891	14123
896.012	14138
896.134	14172
896.255	14153
896.376	14149
896.498	14153
896.619	14115
896.74	14218
896.861	14218
896.982	14461
897.103	14712
897.224	14446
897.345	14480
897.466	14221
897.587	14393
897.708	14484
897.828	14518
897.949	14366
898.07	14419
898.19	14324
898.311	14579
898.431	14415
898.552	14545
898.672	14545
898.792	14621
898.913	14549
899.033	14419
899.153	14320
899.273	14336
899.393	14267
899.513	14389
899.633	14374
899.753	14332
899.873	14301
899.993	14385
900.113	14351
900.232	14374
900.352	14225
900.472	14328
900.591	14176
900.711	14267
900.83	14134
900.95	14218
901.069	14263
901.189	14183
901.308	13932
901.427	13913
901.546	13925
901.665	13940
901.784	13864
901.904	13807
902.023	13734
902.141	13540
902.26	13430
902.379	13525
902.498	13559
902.617	13381
902.735	13453
902.854	13369
902.973	13403
903.091	13228
903.21	13251
903.328	13156
903.446	13076
903.565	12981
903.683	13050
903.801	12939
903.919	13031
904.038	12932
904.156	12928
904.274	12894
904.392	12791
904.51	12779
904.627	12772
904.745	12981
904.863	12920
904.981	12662
905.098	12475
905.216	12540
905.334	12513
905.451	12612
905.569	12483
905.686	12555
905.803	12601
905.921	12403
906.038	12414
906.155	12346
906.272	12296
906.389	12292
906.506	12117
906.623	12136
906.74	12102
906.857	11950
906.974	11992
907.091	12209
907.208	12205
907.324	12163
907.441	12057
907.557	11878
907.674	11904
907.79	11901
907.907	11832
908.023	11901
908.139	11901
908.256	11836
908.372	11821
908.488	11802
908.604	11756
908.72	11684
908.836	11642
908.952	11577
909.068	11665
909.184	11809
909.3	11566
909.415	11627
909.531	11661
909.647	11421
909.762	11440
909.878	11398
909.993	11429
910.108	11376
910.224	11398
910.339	11391
910.454	11318
910.57	11326
910.685	11208
910.8	11524
910.915	11433
911.03	11307
911.145	11143
911.259	11045
911.374	11109
911.489	11136
911.604	11003
911.718	10850
911.833	10949
911.947	10839
912.062	10736
912.176	10885
912.291	10843
912.405	10801
912.519	11052
912.633	11117
912.748	11003
912.862	10816
912.976	10729
913.09	10710
913.204	10725
913.318	10812
913.431	10831
913.545	10858
913.659	10869
913.772	10672
913.886	10687
914	10672
914.113	10759
914.226	10805
914.34	10748
914.453	10558
914.566	10744
914.68	10687
914.793	10538
914.906	10432
915.019	10352
915.132	10329
915.245	10413
915.358	10417
915.47	10424
915.583	10375
915.696	10432
915.809	10451
915.921	10554
916.034	10371
916.146	10341
916.259	10360
916.371	10489
916.483	10455
916.595	10318
916.708	10344
916.82	10284
916.932	10352
917.044	10375
917.156	10291
917.268	10166
917.38	10280
917.491	10166
917.603	10306
917.715	10371
917.826	10348
917.938	10272
918.049	10112
918.161	10207
918.272	10390
918.384	10291
918.495	10337
918.606	10067
918.717	10112
918.828	10120
918.939	10188
919.05	9975
919.161	10112
919.272	9956
919.383	9998
919.494	10166
919.604	10322
919.715	10154
919.826	10086
919.936	10055
920.047	10154
920.157	10131
920.267	10314
920.378	10185
920.488	10074
920.598	10303
920.708	10413
920.818	10306
920.928	10295
921.038	10523
921.148	10455
921.258	10242
921.368	10036
921.477	10021
921.587	9876
921.697	9774
921.806	10006
921.916	9854
922.025	9766
922.134	9675
922.244	9587
922.353	9762
922.462	9549
922.571	9622
922.68	9389
922.789	9386
922.898	9386
923.007	9367
923.116	9412
923.224	9374
923.333	9393
923.442	9275
923.55	9237
923.659	9260
923.767	9416
923.876	9272
923.984	9329
924.092	9260
924.201	9237
924.309	9298
924.417	9351
924.525	9374
924.633	9180
924.741	10120
924.849	9066
924.956	9154
925.064	9097
925.172	9001
925.279	8963
925.387	9058
925.494	9089
925.602	9199
925.709	9017
925.816	8986
925.924	9024
926.031	9123
926.138	9055
926.245	9100
926.352	9024
926.459	9131
926.566	9123
926.673	8963
926.779	8887
926.886	8933
926.993	8811
927.099	8720
927.206	8769
927.312	8754
927.419	8834
927.525	8819
927.631	8792
927.737	8640
927.843	8606
927.95	8526
928.056	8678
928.162	8590
928.267	8716
928.373	9298
928.479	8705
928.585	8537
928.69	8670
928.796	8689
928.901	8613
929.007	8495
929.112	8454
929.218	8526
929.323	8473
929.428	8522
929.533	8659
929.638	8415
929.743	8492
929.848	8480
929.953	8556
930.058	8332
930.163	8161
930.267	8172
930.372	8385
930.477	8206
930.581	8499
930.685	8351
930.79	8199
930.894	8191
930.998	8123
931.103	8267
931.207	8005
931.311	7913
931.415	7837
931.519	7681
931.623	7761
