Data from test_V78500241_494.txt Node
Date: Fri Mar 25 14:37:09 CST 2022
User: usil
Spectrometer: V785-0024
Trigger mode: 0
Integration Time (sec): 4.000000E-1
Scans to average: 1
Nonlinearity correction enabled: false
Boxcar width: 0
Storing dark spectrum: false
XAxis mode: Wavelengths
Number of Pixels in Spectrum: 1024
>>>>>Begin Spectral Data<<<<<
801.071	26739
801.214	26708
801.356	26374
801.499	26244
801.641	26278
801.783	26199
801.926	26233
802.068	26225
802.211	25951
802.353	25909
802.496	25791
802.638	25795
802.78	25647
802.923	25518
803.065	25639
803.208	25495
803.35	25712
803.492	25693
803.635	25723
803.777	25575
803.919	25681
804.061	25974
804.204	25780
804.346	25594
804.488	25559
804.63	25571
804.773	25472
804.915	25860
805.057	25765
805.199	25624
805.341	25723
805.483	25639
805.626	25696
805.768	25624
805.91	25708
806.052	25727
806.194	25491
806.336	25750
806.478	25495
806.62	25693
806.762	25757
806.904	26001
807.046	26225
807.188	26024
807.33	26073
807.472	26256
807.614	25982
807.756	26035
807.898	25982
808.04	25963
808.182	25989
808.324	26275
808.465	26122
808.607	26415
808.749	26674
808.891	26842
809.033	26990
809.174	26705
809.316	26629
809.458	26549
809.6	26366
809.741	26351
809.883	26328
810.025	26427
810.166	26495
810.308	26377
810.45	26237
810.591	26202
810.733	26122
810.875	26058
811.016	25982
811.158	25898
811.299	26024
811.441	25974
811.582	26126
811.724	26119
811.865	26001
812.007	25944
812.148	26008
812.29	26115
812.431	26142
812.573	26267
812.714	26248
812.855	26358
812.997	26549
813.138	26587
813.279	26408
813.421	26434
813.562	26404
813.703	26206
813.845	26077
813.986	25849
814.127	25647
814.268	25354
814.41	25518
814.551	25552
814.692	25616
814.833	25460
814.974	25453
815.115	25362
815.256	25441
815.397	25335
815.539	25327
815.68	25320
815.821	25095
815.962	25225
816.103	25122
816.244	25122
816.385	24867
816.526	25023
816.666	24749
816.807	24593
816.948	24878
817.089	24787
817.23	24681
817.371	24616
817.512	24627
817.653	24570
817.793	24574
817.934	24616
818.075	24467
818.216	24623
818.356	24494
818.497	24353
818.638	24163
818.778	24182
818.919	24243
819.06	24273
819.2	24353
819.341	24391
819.481	24486
819.622	24650
819.762	24814
819.903	24722
820.043	24677
820.184	24673
820.324	24593
820.465	24578
820.605	24593
820.746	24521
820.886	24551
821.026	24433
821.167	24608
821.307	24661
821.447	24410
821.588	24304
821.728	24209
821.868	23999
822.008	23847
822.149	23885
822.289	23843
822.429	23783
822.569	23573
822.709	23478
822.849	23318
822.99	23478
823.13	23349
823.27	23337
823.41	23220
823.55	23041
823.69	23010
823.83	23140
823.97	23067
824.11	22881
824.25	22824
824.389	22919
824.529	22995
824.669	22953
824.809	22942
824.949	22889
825.089	23003
825.228	22953
825.368	22645
825.508	22713
825.648	22740
825.787	22774
825.927	22805
826.067	22656
826.206	22713
826.346	22683
826.485	22752
826.625	22645
826.765	22786
826.904	22782
827.044	22462
827.183	22375
827.323	22325
827.462	22436
827.601	22268
827.741	22310
827.88	22371
828.02	22207
828.159	22276
828.298	22386
828.437	22398
828.577	22211
828.716	22318
828.855	22261
828.994	22158
829.134	21998
829.273	22074
829.412	21987
829.551	21979
829.69	21991
829.829	21960
829.968	22029
830.107	22063
830.246	22105
830.385	21991
830.524	21956
830.663	21888
830.802	21717
830.941	21603
831.08	21652
831.219	21717
831.357	21728
831.496	21915
831.635	21660
831.774	21603
831.913	21519
832.051	21561
832.19	21370
832.329	21454
832.467	21291
832.606	21207
832.744	21275
832.883	21275
833.022	21157
833.16	21199
833.299	21332
833.437	21351
833.576	21169
833.714	21386
833.852	21344
833.991	21348
834.129	21397
834.267	21272
834.406	21268
834.544	21348
834.682	21405
834.821	21287
834.959	21416
835.097	21207
835.235	21313
835.373	21192
835.511	21230
835.65	21237
835.788	21169
835.926	21070
836.064	20921
836.202	20849
836.34	21116
836.478	21237
836.615	21112
836.753	21188
836.891	21161
837.029	21165
837.167	21135
837.305	21032
837.443	21009
837.58	20994
837.718	21093
837.856	21081
837.993	20910
838.131	20929
838.269	20739
838.406	20910
838.544	20868
838.681	20617
838.819	20564
838.956	20476
839.094	20377
839.231	20476
839.369	20590
839.506	20807
839.643	20503
839.781	20351
839.918	20324
840.055	20309
840.193	20343
840.33	20393
840.467	20301
840.604	20473
840.742	20541
840.879	20126
841.016	20202
841.153	20256
841.29	20343
841.427	20389
841.564	20465
841.701	20393
841.838	20256
841.975	20157
842.112	20210
842.249	20199
842.385	20020
842.522	20199
842.659	20183
842.796	20054
842.933	19974
843.069	20100
843.206	19928
843.343	20199
843.479	20100
843.616	20084
843.752	19830
843.889	19833
844.025	19917
844.162	19689
844.298	19833
844.435	19818
844.571	19693
844.708	19906
844.844	19955
844.98	20024
845.117	19970
845.253	19898
845.389	19799
845.525	19932
845.661	20122
845.798	20130
845.934	20347
846.07	20324
846.206	20328
846.342	20298
846.478	20107
846.614	19776
846.75	19377
846.886	19377
847.022	19457
847.158	19282
847.294	19331
847.429	19316
847.565	19247
847.701	19415
847.837	19046
847.972	19031
848.108	19069
848.244	18947
848.379	18970
848.515	18844
848.65	18875
848.786	18715
848.921	18848
849.057	18814
849.192	18901
849.328	18821
849.463	18772
849.598	18924
849.734	18722
849.869	18612
850.004	18707
850.14	18593
850.275	18578
850.41	18551
850.545	18654
850.68	18498
850.815	18513
850.95	18528
851.085	18753
851.22	18673
851.355	18521
851.49	18513
851.625	18418
851.76	18601
851.895	18479
852.03	18388
852.165	18559
852.299	18623
852.434	18486
852.569	18410
852.703	18532
852.838	18711
852.973	18703
853.107	18696
853.242	18429
853.376	18376
853.511	18254
853.645	18376
853.78	18521
853.914	18277
854.048	18239
854.183	18414
854.317	18372
854.451	18608
854.585	18357
854.72	18399
854.854	18391
854.988	18270
855.122	18357
855.256	18258
855.39	18300
855.524	18365
855.658	18494
855.792	18445
855.926	18247
856.06	18357
856.194	18464
856.327	18376
856.461	18243
856.595	18311
856.729	18380
856.862	18441
856.996	18414
857.13	18418
857.263	18357
857.397	18467
857.53	18285
857.664	18365
857.797	18456
857.931	18334
858.064	18452
858.197	18479
858.331	18239
858.464	18201
858.597	18258
858.731	18289
858.864	18209
858.997	18277
859.13	18311
859.263	18292
859.396	18308
859.529	18353
859.662	18361
859.795	18232
859.928	18319
860.061	18357
860.194	18467
860.327	18372
860.46	18152
860.592	18338
860.725	18486
860.858	18498
860.99	18327
861.123	18239
861.256	18209
861.388	18323
861.521	19065
861.653	18159
861.786	18197
861.918	18114
862.05	18201
862.183	18220
862.315	18429
862.447	18403
862.58	18353
862.712	18053
862.844	18091
862.976	18121
863.108	18098
863.24	18475
863.372	17999
863.504	17935
863.636	18019
863.768	18045
863.9	17961
864.032	17939
864.164	17897
864.296	18079
864.428	18079
864.559	18019
864.691	18064
864.823	17996
864.954	17973
865.086	18038
865.217	17866
865.349	17870
865.48	17859
865.612	18030
865.743	17950
865.875	17973
866.006	17954
866.137	17882
866.269	17908
866.4	17939
866.531	17882
866.662	17863
866.793	17889
866.924	17866
867.055	18106
867.186	17870
867.317	17809
867.448	17847
867.579	17821
867.71	17817
867.841	17790
867.972	17992
868.103	17847
868.233	17916
868.364	17961
868.495	18003
868.625	17999
868.756	18285
868.886	18110
869.017	18068
869.147	18346
869.278	18155
869.408	18167
869.539	18144
869.669	18281
869.799	18133
869.929	18273
870.06	18209
870.19	18391
870.32	18498
870.45	18418
870.58	18490
870.71	18688
870.84	18517
870.97	18456
871.1	18525
871.23	18711
871.36	18681
871.489	18589
871.619	18741
871.749	18741
871.879	18791
872.008	18894
872.138	18730
872.267	18749
872.397	18608
872.526	18532
872.656	18494
872.785	18521
872.915	18772
873.044	18962
873.173	18821
873.303	18856
873.432	18745
873.561	18875
873.69	18715
873.819	18783
873.948	18798
874.077	18795
874.206	18806
874.335	18810
874.464	18840
874.593	19046
874.722	19027
874.851	19072
874.979	19095
875.108	19168
875.237	18916
875.365	19038
875.494	19008
875.623	19225
875.751	19012
875.88	19046
876.008	19209
876.136	19282
876.265	19514
876.393	19681
876.521	19605
876.65	19548
876.778	19616
876.906	19453
877.034	19434
877.162	19392
877.29	19419
877.418	19419
877.546	19480
877.674	19506
877.802	19403
877.93	19525
878.058	19320
878.185	19308
878.313	19502
878.441	19457
878.568	19301
878.696	19468
878.824	19571
878.951	19609
879.079	19647
879.206	20043
879.333	19955
879.461	19868
879.588	19951
879.715	20062
879.842	20157
879.97	19818
880.097	19559
880.224	19480
880.351	19499
880.478	19464
880.605	19327
880.732	19308
880.859	19719
880.986	19438
881.112	19384
881.239	19282
881.366	19156
881.493	19107
881.619	18894
881.746	19031
881.872	18977
881.999	19000
882.125	19019
882.252	19057
882.378	18943
882.505	19183
882.631	18882
882.757	18745
882.883	18856
883.01	18867
883.136	18688
883.262	18669
883.388	18585
883.514	18772
883.64	18821
883.766	18631
883.892	18566
884.018	18616
884.143	18749
884.269	18760
884.395	18509
884.52	18513
884.646	18414
884.772	18426
884.897	18357
885.023	18422
885.148	18551
885.274	18642
885.399	18471
885.524	18467
885.65	18376
885.775	18353
885.9	18327
886.025	18513
886.15	18414
886.275	18319
886.4	18235
886.525	18258
886.65	18311
886.775	18266
886.9	18555
887.025	18506
887.149	18388
887.274	18220
887.399	18133
887.523	18106
887.648	18034
887.773	18102
887.897	18254
888.021	18178
888.146	18007
888.27	18129
888.395	18251
888.519	18152
888.643	18262
888.767	18167
888.891	18030
889.015	17939
889.139	17965
889.263	17878
889.387	18049
889.511	18186
889.635	18076
889.759	17885
889.883	17802
890.006	17958
890.13	18117
890.254	17752
890.377	17752
890.501	17741
890.624	17741
890.748	17809
890.871	17672
890.995	17532
891.118	17463
891.241	17539
891.364	17604
891.488	17745
891.611	17642
891.734	17589
891.857	17596
891.98	17551
892.103	17604
892.226	17478
892.349	17478
892.471	17406
892.594	17452
892.717	17535
892.839	17398
892.962	17490
893.085	17604
893.207	17585
893.33	17368
893.452	17417
893.575	17573
893.697	17600
893.819	17665
893.941	17657
894.064	17592
894.186	17376
894.308	17486
894.43	17493
894.552	17676
894.674	17623
894.796	17387
894.918	17455
895.04	17471
895.161	17585
895.283	17547
895.405	17455
895.526	17490
895.648	17547
895.769	17539
895.891	17467
896.012	17474
896.134	17573
896.255	17547
896.376	17608
896.498	17467
896.619	17646
896.74	17497
896.861	17722
896.982	17912
897.103	18076
897.224	17832
897.345	17824
897.466	17790
897.587	17745
897.708	17923
897.828	17874
897.949	17783
898.07	17691
898.19	17707
898.311	17859
898.431	17840
898.552	17912
898.672	17863
898.792	17828
898.913	17767
899.033	17760
899.153	17577
899.273	17554
899.393	17570
899.513	17600
899.633	17729
899.753	17691
899.873	17493
899.993	17619
900.113	17573
900.232	17604
900.352	17558
900.472	17528
900.591	17414
900.711	17398
900.83	17459
900.95	17532
901.069	17642
901.189	17383
901.308	17147
901.427	17140
901.546	17052
901.665	17117
901.784	17052
901.904	16938
902.023	16991
902.141	16736
902.26	16664
902.379	16752
902.498	16660
902.617	16519
902.735	16523
902.854	16565
902.973	16497
903.091	16318
903.21	16177
903.328	16261
903.446	16257
903.565	16150
903.683	16143
903.801	15956
903.919	16116
904.038	16090
904.156	15934
904.274	15998
904.392	15850
904.51	15770
904.627	15793
904.745	15922
904.863	15968
904.981	15629
905.098	15492
905.216	15523
905.334	15599
905.451	15511
905.569	15485
905.686	15538
905.803	15591
905.921	15428
906.038	15488
906.155	15435
906.272	15291
906.389	15256
906.506	15146
906.623	15180
906.74	15024
906.857	14948
906.974	15036
907.091	15199
907.208	15306
907.324	15062
907.441	14998
907.557	14864
907.674	14762
907.79	14746
907.907	14758
908.023	14804
908.139	14762
908.256	14785
908.372	14670
908.488	14648
908.604	14377
908.72	14438
908.836	14530
908.952	14400
909.068	14457
909.184	14617
909.3	14400
909.415	14552
909.531	14415
909.647	14244
909.762	14240
909.878	14142
909.993	14210
910.108	14180
910.224	14161
910.339	14153
910.454	14138
910.57	14092
910.685	13913
910.8	14240
910.915	14081
911.03	14001
911.145	13830
911.259	13769
911.374	13807
911.489	13776
911.604	13639
911.718	13601
911.833	13670
911.947	13499
912.062	13285
912.176	13601
912.291	13575
912.405	13540
912.519	13776
912.633	13704
912.748	13594
912.862	13556
912.976	13464
913.09	13377
913.204	13297
913.318	13438
913.431	13514
913.545	13457
913.659	13533
913.772	13331
913.886	13266
914	13244
914.113	13324
914.226	13381
914.34	13278
914.453	13183
914.566	13225
914.68	13023
914.793	13175
914.906	13004
915.019	12951
915.132	12825
915.245	12966
915.358	12897
915.47	12970
915.583	12882
915.696	12993
915.809	13099
915.921	13069
916.034	12935
916.146	12844
916.259	12768
916.371	13000
916.483	12878
916.595	12768
916.708	12829
916.82	12852
916.932	12681
917.044	12779
917.156	12730
917.268	12673
917.38	12665
917.491	12681
917.603	12582
917.715	12711
917.826	12833
917.938	12597
918.049	12566
918.161	12544
918.272	12711
918.384	12787
918.495	12563
918.606	12414
918.717	12388
918.828	12479
918.939	12551
919.05	12426
919.161	12334
919.272	12262
919.383	12273
919.494	12490
919.604	12688
919.715	12460
919.826	12395
919.936	12414
920.047	12452
920.157	12395
920.267	12574
920.378	12388
920.488	12422
920.598	12627
920.708	12642
920.818	12593
920.928	12608
921.038	12779
921.148	12711
921.258	12403
921.368	12350
921.477	12216
921.587	12224
921.697	12136
921.806	12205
921.916	12091
922.025	11897
922.134	11809
922.244	11790
922.353	11904
922.462	11767
922.571	11695
922.68	11554
922.789	11467
922.898	11493
923.007	11486
923.116	11649
923.224	11512
923.333	11516
923.442	11368
923.55	11395
923.659	11353
923.767	11425
923.876	11318
923.984	11406
924.092	11220
924.201	11391
924.309	11341
924.417	11303
924.525	11220
924.633	11223
924.741	12205
924.849	11083
924.956	11193
925.064	11079
925.172	11037
925.279	11094
925.387	11083
925.494	11105
925.602	11269
925.709	11109
925.816	11064
925.924	11079
926.031	11124
926.138	10968
926.245	11060
926.352	10961
926.459	11025
926.566	11124
926.673	10942
926.779	10889
926.886	10923
926.993	10793
927.099	10706
927.206	10664
927.312	10626
927.419	10698
927.525	10733
927.631	10782
927.737	10599
927.843	10523
927.95	10424
928.056	10516
928.162	10554
928.267	10599
928.373	11060
928.479	10725
928.585	10394
928.69	10546
928.796	10512
928.901	10363
929.007	10329
929.112	10508
929.218	10428
929.323	10360
929.428	10272
929.533	10447
929.638	10173
929.743	10280
929.848	10367
929.953	10325
930.058	10230
930.163	10048
930.267	10032
930.372	10192
930.477	9968
930.581	10246
930.685	10109
930.79	9854
930.894	9960
930.998	9934
931.103	10010
931.207	9629
931.311	9667
931.415	9606
931.519	9420
931.623	9420
