Data from test_V78500241_3043.txt Node
Date: Fri Mar 25 14:54:54 CST 2022
User: usil
Spectrometer: V785-0024
Trigger mode: 0
Integration Time (sec): 4.000000E-1
Scans to average: 1
Nonlinearity correction enabled: false
Boxcar width: 0
Storing dark spectrum: false
XAxis mode: Wavelengths
Number of Pixels in Spectrum: 1024
>>>>>Begin Spectral Data<<<<<
801.071	22048
801.214	22055
801.356	21793
801.499	21694
801.641	21485
801.783	21534
801.926	21340
802.068	21462
802.211	21214
802.353	21230
802.496	21104
802.638	21005
802.78	21066
802.923	20944
803.065	20743
803.208	20739
803.35	20811
803.492	20834
803.635	21005
803.777	20883
803.919	20849
804.061	21112
804.204	20887
804.346	20750
804.488	20655
804.63	20724
804.773	20670
804.915	20785
805.057	20845
805.199	20640
805.341	20777
805.483	20830
805.626	20746
805.768	20678
805.91	20686
806.052	20773
806.194	20556
806.336	20773
806.478	20640
806.62	20720
806.762	20758
806.904	20967
807.046	21150
807.188	21013
807.33	21066
807.472	21100
807.614	20849
807.756	20998
807.898	20982
808.04	20804
808.182	20902
808.324	20937
808.465	20823
808.607	21074
808.749	21089
808.891	21237
809.033	21298
809.174	21070
809.316	21085
809.458	21081
809.6	21100
809.741	21135
809.883	21123
810.025	21294
810.166	21245
810.308	21135
810.45	21024
810.591	21150
810.733	21005
810.875	20918
811.016	20754
811.158	20765
811.299	20941
811.441	21032
811.582	20845
811.724	20769
811.865	20815
812.007	20849
812.148	20918
812.29	20857
812.431	21013
812.573	21294
812.714	21317
812.855	21287
812.997	21641
813.138	21545
813.279	21450
813.421	21473
813.562	21272
813.703	21104
813.845	20952
813.986	20674
814.127	20583
814.268	20438
814.41	20587
814.551	20377
814.692	20438
814.833	20210
814.974	20339
815.115	20450
815.256	20301
815.397	20218
815.539	20389
815.68	20103
815.821	20233
815.962	20229
816.103	20069
816.244	20069
816.385	19868
816.526	19803
816.666	19837
816.807	19624
816.948	19537
817.089	19575
817.23	19712
817.371	19540
817.512	19552
817.653	19468
817.793	19358
817.934	19476
818.075	19495
818.216	19548
818.356	19495
818.497	19381
818.638	19194
818.778	19293
818.919	19209
819.06	19263
819.2	19285
819.341	19320
819.481	19388
819.622	19514
819.762	19734
819.903	19635
820.043	19563
820.184	19457
820.324	19502
820.465	19506
820.605	19426
820.746	19472
820.886	19392
821.026	19499
821.167	19514
821.307	19441
821.447	19460
821.588	19354
821.728	19194
821.868	19050
822.008	19019
822.149	18924
822.289	19061
822.429	18631
822.569	18688
822.709	18475
822.849	18460
822.99	18426
823.13	18369
823.27	18433
823.41	18152
823.55	18182
823.69	18262
823.83	18205
823.97	18163
824.11	18015
824.25	17939
824.389	17961
824.529	18030
824.669	17999
824.809	18007
824.949	17965
825.089	18106
825.228	17897
825.368	17813
825.508	17729
825.648	17802
825.787	17840
825.927	17707
826.067	17680
826.206	17722
826.346	17756
826.485	17809
826.625	17729
826.765	17821
826.904	17748
827.044	17509
827.183	17512
827.323	17391
827.462	17486
827.601	17398
827.741	17372
827.88	17471
828.02	17296
828.159	17372
828.298	17379
828.437	17425
828.577	17337
828.716	17539
828.855	17326
828.994	17250
829.134	17208
829.273	17200
829.412	17223
829.551	17185
829.69	17193
829.829	17113
829.968	17277
830.107	17197
830.246	17128
830.385	17132
830.524	17075
830.663	16972
830.802	16957
830.941	16736
831.08	16675
831.219	16828
831.357	16869
831.496	16900
831.635	16812
831.774	16672
831.913	16733
832.051	16664
832.19	16550
832.329	16573
832.467	16588
832.606	16405
832.744	16455
832.883	16462
833.022	16409
833.16	16306
833.299	16481
833.437	16489
833.576	16626
833.714	16470
833.852	16649
833.991	16470
834.129	16538
834.267	16569
834.406	16512
834.544	16531
834.682	16573
834.821	16554
834.959	16645
835.097	16360
835.235	16607
835.373	16538
835.511	16466
835.65	16363
835.788	16500
835.926	16299
836.064	16299
836.202	16200
836.34	16394
836.478	16508
836.615	16363
836.753	16287
836.891	16500
837.029	16394
837.167	16436
837.305	16333
837.443	16306
837.58	16223
837.718	16360
837.856	16325
837.993	16246
838.131	16303
838.269	16242
838.406	16272
838.544	16112
838.681	15934
838.819	16002
838.956	15785
839.094	15770
839.231	15998
839.369	15956
839.506	16242
839.643	16032
839.781	15888
839.918	15667
840.055	15842
840.193	15846
840.33	15774
840.467	15774
840.604	15915
840.742	16097
840.879	15686
841.016	15747
841.153	15686
841.29	15918
841.427	15876
841.564	15899
841.701	15865
841.838	15797
841.975	15759
842.112	15732
842.249	15587
842.385	15504
842.522	15812
842.659	15637
842.796	15622
842.933	15557
843.069	15580
843.206	15557
843.343	15675
843.479	15545
843.616	15549
843.752	15370
843.889	15450
844.025	15568
844.162	15268
844.298	15473
844.435	15351
844.571	15355
844.708	15393
844.844	15481
844.98	15545
845.117	15538
845.253	15336
845.389	15241
845.525	15291
845.661	15279
845.798	15161
845.934	15195
846.07	15157
846.206	15268
846.342	15252
846.478	15249
846.614	15077
846.75	14994
846.886	14971
847.022	15051
847.158	14975
847.294	14944
847.429	15058
847.565	14975
847.701	15294
847.837	14708
847.972	14659
848.108	14796
848.244	14758
848.379	14450
848.515	14526
848.65	14522
848.786	14583
848.921	14606
849.057	14629
849.192	14602
849.328	14629
849.463	14560
849.598	14575
849.734	14492
849.869	14377
850.004	14351
850.14	14328
850.275	14309
850.41	14336
850.545	14214
850.68	14240
850.815	14309
850.95	14336
851.085	14393
851.22	14473
851.355	14396
851.49	14286
851.625	14233
851.76	14339
851.895	14233
852.03	14149
852.165	14199
852.299	14328
852.434	14484
852.569	14290
852.703	14294
852.838	14404
852.973	14450
853.107	14533
853.242	14313
853.376	14240
853.511	14100
853.645	14157
853.78	14278
853.914	14218
854.048	14225
854.183	14134
854.317	14225
854.451	14294
854.585	14149
854.72	14199
854.854	14298
854.988	14073
855.122	14221
855.256	14043
855.39	14111
855.524	14267
855.658	14161
855.792	14138
855.926	14221
856.06	14187
856.194	14248
856.327	14187
856.461	14088
856.595	14123
856.729	14229
856.862	14214
856.996	14176
857.13	14347
857.263	14259
857.397	14301
857.53	14218
857.664	14218
857.797	14309
857.931	14271
858.064	14305
858.197	14305
858.331	14206
858.464	14123
858.597	14081
858.731	14183
858.864	14180
858.997	14107
859.13	14172
859.263	14210
859.396	14286
859.529	14130
859.662	14069
859.795	14103
859.928	14233
860.061	14320
860.194	14294
860.327	14119
860.46	14172
860.592	14286
860.725	14309
860.858	14271
860.99	14164
861.123	14027
861.256	14062
861.388	14210
861.521	14804
861.653	14096
861.786	13997
861.918	14088
862.05	14088
862.183	14111
862.315	14218
862.447	14244
862.58	14202
862.712	13978
862.844	13894
862.976	13932
863.108	13978
863.24	14450
863.372	13917
863.504	13970
863.636	13982
863.768	13986
863.9	13970
864.032	13951
864.164	14020
864.296	14016
864.428	14046
864.559	14005
864.691	13986
864.823	14073
864.954	14001
865.086	13959
865.217	13898
865.349	13814
865.48	13917
865.612	13906
865.743	14043
865.875	13997
866.006	13959
866.137	14008
866.269	13936
866.4	13925
866.531	13913
866.662	13890
866.793	13974
866.924	13868
867.055	13913
867.186	13986
867.317	13963
867.448	13826
867.579	13932
867.71	13784
867.841	13822
867.972	13955
868.103	13982
868.233	13982
868.364	14020
868.495	14035
868.625	14244
868.756	14240
868.886	14069
869.017	14237
869.147	14275
869.278	14294
869.408	14187
869.539	14183
869.669	14256
869.799	14229
869.929	14267
870.06	14282
870.19	14522
870.32	14530
870.45	14533
870.58	14632
870.71	14648
870.84	14686
870.97	14526
871.1	14556
871.23	14773
871.36	14743
871.489	14655
871.619	14796
871.749	14853
871.879	14838
872.008	14929
872.138	14838
872.267	14739
872.397	14651
872.526	14564
872.656	14663
872.785	14625
872.915	14823
873.044	14925
873.173	14838
873.303	14925
873.432	14853
873.561	14883
873.69	14883
873.819	14830
873.948	14868
874.077	14925
874.206	14796
874.335	14921
874.464	15028
874.593	15199
874.722	15066
874.851	15100
874.979	15146
875.108	15237
875.237	15123
875.365	15119
875.494	15093
875.623	15226
875.751	15161
875.88	15207
876.008	15306
876.136	15329
876.265	15728
876.393	15724
876.521	15751
876.65	15644
876.778	15618
876.906	15481
877.034	15534
877.162	15557
877.29	15496
877.418	15504
877.546	15542
877.674	15572
877.802	15564
877.93	15492
878.058	15553
878.185	15416
878.313	15580
878.441	15629
878.568	15374
878.696	15439
878.824	15534
878.951	15751
879.079	15835
879.206	15850
879.333	15778
879.461	15587
879.588	15614
879.715	15808
879.842	15781
879.97	15526
880.097	15378
880.224	15348
880.351	15492
880.478	15367
880.605	15302
880.732	15412
880.859	15622
880.986	15351
881.112	15473
881.239	15317
881.366	15214
881.493	15211
881.619	14979
881.746	15085
881.872	15104
881.999	15020
882.125	15058
882.252	15074
882.378	15123
882.505	15123
882.631	15039
882.757	14815
882.883	14876
883.01	14960
883.136	14849
883.262	14769
883.388	14815
883.514	14963
883.64	14933
883.766	14891
883.892	14651
884.018	14689
884.143	14895
884.269	15028
884.395	14727
884.52	14610
884.646	14560
884.772	14610
884.897	14465
885.023	14583
885.148	14712
885.274	14830
885.399	14716
885.524	14552
885.65	14590
885.775	14598
885.9	14560
886.025	14598
886.15	14693
886.275	14537
886.4	14545
886.525	14522
886.65	14537
886.775	14629
886.9	14754
887.025	14883
887.149	14697
887.274	14381
887.399	14415
887.523	14389
887.648	14347
887.773	14320
887.897	14461
888.021	14393
888.146	14351
888.27	14651
888.395	14602
888.519	14488
888.643	14522
888.767	14530
888.891	14393
889.015	14225
889.139	14347
889.263	14328
889.387	14355
889.511	14438
889.635	14332
889.759	14206
889.883	14336
890.006	14313
890.13	14415
890.254	14377
890.377	14305
890.501	14134
890.624	14024
890.748	14180
890.871	13951
890.995	13978
891.118	13894
891.241	14088
891.364	13989
891.488	14145
891.611	14092
891.734	14050
891.857	14046
891.98	14024
892.103	14073
892.226	13970
892.349	14020
892.471	13894
892.594	13932
892.717	13959
892.839	13959
892.962	14073
893.085	14035
893.207	13970
893.33	13894
893.452	13947
893.575	14027
893.697	13932
893.819	14138
893.941	14271
894.064	14168
894.186	14001
894.308	13944
894.43	14043
894.552	14240
894.674	14191
894.796	14073
894.918	13978
895.04	14024
895.161	14180
895.283	14100
895.405	14119
895.526	14035
895.648	14153
895.769	14172
895.891	14187
896.012	14286
896.134	14168
896.255	14206
896.376	14202
896.498	14123
896.619	14187
896.74	14123
896.861	14290
896.982	14495
897.103	14727
897.224	14522
897.345	14495
897.466	14332
897.587	14389
897.708	14610
897.828	14514
897.949	14400
898.07	14218
898.19	14450
898.311	14568
898.431	14469
898.552	14613
898.672	14632
898.792	14511
898.913	14568
899.033	14514
899.153	14434
899.273	14332
899.393	14370
899.513	14290
899.633	14476
899.753	14317
899.873	14374
899.993	14450
900.113	14393
900.232	14377
900.352	14362
900.472	14275
900.591	14199
900.711	14278
900.83	14210
900.95	14347
901.069	14473
901.189	14252
901.308	14031
901.427	13940
901.546	13898
901.665	13921
901.784	14065
901.904	13909
902.023	13750
902.141	13655
902.26	13544
902.379	13666
902.498	13567
902.617	13449
902.735	13544
902.854	13582
902.973	13396
903.091	13350
903.21	13244
903.328	13171
903.446	13232
903.565	13076
903.683	13114
903.801	12943
903.919	13088
904.038	12989
904.156	12817
904.274	12993
904.392	12897
904.51	12776
904.627	12966
904.745	12947
904.863	12970
904.981	12669
905.098	12574
905.216	12627
905.334	12559
905.451	12593
905.569	12593
905.686	12722
905.803	12555
905.921	12300
906.038	12452
906.155	12380
906.272	12323
906.389	12380
906.506	12152
906.623	12254
906.74	12159
906.857	12060
906.974	12114
907.091	12281
907.208	12292
907.324	12228
907.441	12030
907.557	11973
907.674	12007
907.79	11794
907.907	11901
908.023	11847
908.139	11916
908.256	11847
908.372	11832
908.488	11832
908.604	11676
908.72	11699
908.836	11714
908.952	11676
909.068	11661
909.184	11863
909.3	11726
909.415	11703
909.531	11718
909.647	11474
909.762	11463
909.878	11398
909.993	11452
910.108	11360
910.224	11379
910.339	11459
910.454	11410
910.57	11303
910.685	11242
910.8	11478
910.915	11398
911.03	11345
911.145	11185
911.259	11143
911.374	11128
911.489	10972
911.604	10972
911.718	10934
911.833	10892
911.947	10797
912.062	10736
912.176	10889
912.291	10930
912.405	10946
912.519	11109
912.633	11056
912.748	10980
912.862	10919
912.976	10831
913.09	10744
913.204	10786
913.318	10782
913.431	10828
913.545	10847
913.659	10873
913.772	10752
913.886	10649
914	10683
914.113	10744
914.226	10790
914.34	10767
914.453	10542
914.566	10744
914.68	10584
914.793	10660
914.906	10493
915.019	10417
915.132	10306
915.245	10447
915.358	10402
915.47	10443
915.583	10451
915.696	10405
915.809	10687
915.921	10660
916.034	10322
916.146	10344
916.259	10299
916.371	10470
916.483	10440
916.595	10325
916.708	10421
916.82	10402
916.932	10325
917.044	10363
917.156	10322
917.268	10162
917.38	10322
917.491	10204
917.603	10337
917.715	10344
917.826	10356
917.938	10215
918.049	10128
918.161	10242
918.272	10440
918.384	10344
918.495	10360
918.606	10131
918.717	10078
918.828	10101
918.939	10173
919.05	10059
919.161	10112
919.272	9941
919.383	9994
919.494	10242
919.604	10344
919.715	10150
919.826	10025
919.936	10105
920.047	10173
920.157	10166
920.267	10299
920.378	10128
920.488	10150
920.598	10303
920.708	10504
920.818	10405
920.928	10382
921.038	10569
921.148	10432
921.258	10265
921.368	10074
921.477	9998
921.587	10082
921.697	9846
921.806	10093
921.916	9918
922.025	9709
922.134	9736
922.244	9675
922.353	9766
922.462	9606
922.571	9584
922.68	9439
922.789	9420
922.898	9435
923.007	9454
923.116	9447
923.224	9378
923.333	9431
923.442	9340
923.55	9424
923.659	9310
923.767	9382
923.876	9245
923.984	9393
924.092	9272
924.201	9291
924.309	9302
924.417	9291
924.525	9195
924.633	9180
924.741	10181
924.849	9032
924.956	9222
925.064	9108
925.172	8990
925.279	9009
925.387	9085
925.494	9070
925.602	9176
925.709	9176
925.816	9009
925.924	9093
926.031	9180
926.138	9036
926.245	9043
926.352	8963
926.459	9135
926.566	9154
926.673	9058
926.779	8952
926.886	8971
926.993	8777
927.099	8834
927.206	8758
927.312	8777
927.419	8849
927.525	8815
927.631	8815
927.737	8769
927.843	8629
927.95	8545
928.056	8636
928.162	8731
928.267	8773
928.373	9283
928.479	8746
928.585	8469
928.69	8701
928.796	8674
928.901	8663
929.007	8469
929.112	8587
929.218	8526
929.323	8541
929.428	8499
929.533	8602
929.638	8473
929.743	8423
929.848	8503
929.953	8488
930.058	8381
930.163	8229
930.267	8252
930.372	8396
930.477	8214
930.581	8450
930.685	8279
930.79	8183
930.894	8282
930.998	8210
931.103	8366
931.207	8043
931.311	8005
931.415	7902
931.519	7704
931.623	7715
