Data from test_V78500241_3602.txt Node
Date: Fri Mar 25 14:58:47 CST 2022
User: usil
Spectrometer: V785-0024
Trigger mode: 0
Integration Time (sec): 4.000000E-1
Scans to average: 1
Nonlinearity correction enabled: false
Boxcar width: 0
Storing dark spectrum: false
XAxis mode: Wavelengths
Number of Pixels in Spectrum: 1024
>>>>>Begin Spectral Data<<<<<
801.071	21850
801.214	21751
801.356	21481
801.499	21580
801.641	21279
801.783	21237
801.926	21344
802.068	21207
802.211	21074
802.353	21017
802.496	20861
802.638	20743
802.78	20716
802.923	20663
803.065	20625
803.208	20442
803.35	20545
803.492	20644
803.635	20716
803.777	20579
803.919	20746
804.061	20963
804.204	20609
804.346	20587
804.488	20492
804.63	20526
804.773	20442
804.915	20442
805.057	20556
805.199	20434
805.341	20575
805.483	20583
805.626	20484
805.768	20393
805.91	20583
806.052	20393
806.194	20385
806.336	20438
806.478	20457
806.62	20450
806.762	20514
806.904	20632
807.046	20944
807.188	20727
807.33	20785
807.472	20941
807.614	20842
807.756	20754
807.898	20648
808.04	20461
808.182	20492
808.324	20625
808.465	20598
808.607	20800
808.749	20830
808.891	20990
809.033	21039
809.174	20883
809.316	20830
809.458	20731
809.6	20689
809.741	20979
809.883	21020
810.025	20998
810.166	21047
810.308	20880
810.45	21039
810.591	20845
810.733	20602
810.875	20674
811.016	20484
811.158	20454
811.299	20606
811.441	20667
811.582	20632
811.724	20522
811.865	20564
812.007	20526
812.148	20514
812.29	20674
812.431	20758
812.573	20853
812.714	20990
812.855	21108
812.997	21233
813.138	21306
813.279	21154
813.421	21085
813.562	21001
813.703	20807
813.845	20682
813.986	20461
814.127	20324
814.268	20126
814.41	20305
814.551	20183
814.692	20210
814.833	20016
814.974	20065
815.115	20180
815.256	20020
815.397	20001
815.539	19974
815.68	19898
815.821	19765
815.962	20024
816.103	19925
816.244	19791
816.385	19632
816.526	19540
816.666	19377
816.807	19335
816.948	19251
817.089	19327
817.23	19285
817.371	19266
817.512	19240
817.653	19213
817.793	19266
817.934	19206
818.075	19259
818.216	19194
818.356	19274
818.497	19145
818.638	18958
818.778	18970
818.919	18882
819.06	19031
819.2	19126
819.341	19190
819.481	19168
819.622	19255
819.762	19472
819.903	19502
820.043	19285
820.184	19312
820.324	19217
820.465	19331
820.605	19297
820.746	19225
820.886	19107
821.026	19293
821.167	19297
821.307	19316
821.447	19259
821.588	19057
821.728	18966
821.868	18764
822.008	18753
822.149	18661
822.289	18677
822.429	18361
822.569	18319
822.709	18384
822.849	18228
822.99	18148
823.13	18110
823.27	18114
823.41	18011
823.55	17946
823.69	18030
823.83	18026
823.97	17901
824.11	17775
824.25	17657
824.389	17821
824.529	17817
824.669	17779
824.809	17874
824.949	17897
825.089	17832
825.228	17672
825.368	17638
825.508	17581
825.648	17600
825.787	17703
825.927	17532
826.067	17463
826.206	17497
826.346	17471
826.485	17505
826.625	17512
826.765	17642
826.904	17532
827.044	17414
827.183	17288
827.323	17235
827.462	17284
827.601	17193
827.741	17178
827.88	17223
828.02	17223
828.159	17246
828.298	17292
828.437	17258
828.577	17246
828.716	17345
828.855	17227
828.994	16854
829.134	16930
829.273	17090
829.412	16892
829.551	16942
829.69	16953
829.829	16980
829.968	17056
830.107	17105
830.246	17041
830.385	16972
830.524	16919
830.663	16801
830.802	16839
830.941	16664
831.08	16596
831.219	16672
831.357	16653
831.496	16934
831.635	16664
831.774	16584
831.913	16592
832.051	16329
832.19	16538
832.329	16386
832.467	16352
832.606	16287
832.744	16333
832.883	16242
833.022	16291
833.16	16303
833.299	16367
833.437	16306
833.576	16363
833.714	16367
833.852	16424
833.991	16375
834.129	16478
834.267	16451
834.406	16386
834.544	16421
834.682	16443
834.821	16333
834.959	16580
835.097	16382
835.235	16451
835.373	16367
835.511	16375
835.65	16265
835.788	16352
835.926	16116
836.064	16093
836.202	16013
836.34	16337
836.478	16447
836.615	16371
836.753	16421
836.891	16367
837.029	16284
837.167	16314
837.305	16310
837.443	16112
837.58	16116
837.718	16268
837.856	16261
837.993	16105
838.131	16177
838.269	16120
838.406	16124
838.544	16029
838.681	15987
838.819	15831
838.956	15774
839.094	15671
839.231	15724
839.369	15842
839.506	16147
839.643	15960
839.781	15656
839.918	15686
840.055	15869
840.193	15838
840.33	15698
840.467	15800
840.604	15732
840.742	15934
840.879	15641
841.016	15549
841.153	15561
841.29	15838
841.427	15679
841.564	15747
841.701	15759
841.838	15686
841.975	15686
842.112	15705
842.249	15542
842.385	15443
842.522	15671
842.659	15492
842.796	15473
842.933	15557
843.069	15355
843.206	15538
843.343	15629
843.479	15603
843.616	15462
843.752	15386
843.889	15374
844.025	15401
844.162	15272
844.298	15443
844.435	15287
844.571	15321
844.708	15458
844.844	15466
844.98	15477
845.117	15462
845.253	15272
845.389	15077
845.525	15214
845.661	15123
845.798	15066
845.934	15214
846.07	15165
846.206	15184
846.342	15192
846.478	15104
846.614	14963
846.75	14796
846.886	14880
847.022	14849
847.158	14906
847.294	14906
847.429	14891
847.565	14842
847.701	15100
847.837	14663
847.972	14644
848.108	14724
848.244	14834
848.379	14507
848.515	14488
848.65	14408
848.786	14469
848.921	14533
849.057	14552
849.192	14480
849.328	14526
849.463	14469
849.598	14492
849.734	14431
849.869	14377
850.004	14332
850.14	14336
850.275	14286
850.41	14123
850.545	14290
850.68	14233
850.815	14309
850.95	14252
851.085	14434
851.22	14400
851.355	14324
851.49	14275
851.625	14210
851.76	14282
851.895	14119
852.03	14164
852.165	14237
852.299	14286
852.434	14377
852.569	14267
852.703	14275
852.838	14309
852.973	14320
853.107	14374
853.242	14263
853.376	14161
853.511	13959
853.645	14081
853.78	14191
853.914	14088
854.048	14119
854.183	14065
854.317	14210
854.451	14244
854.585	14130
854.72	14126
854.854	14157
854.988	14119
855.122	14111
855.256	13921
855.39	14077
855.524	14263
855.658	14149
855.792	14218
855.926	14164
856.06	14237
856.194	14195
856.327	14081
856.461	14073
856.595	14176
856.729	14069
856.862	14183
856.996	14229
857.13	14187
857.263	14282
857.397	14134
857.53	14100
857.664	14183
857.797	14301
857.931	14206
858.064	14138
858.197	14256
858.331	14058
858.464	14130
858.597	14024
858.731	14111
858.864	14149
858.997	14126
859.13	14259
859.263	14142
859.396	14282
859.529	14115
859.662	14096
859.795	14081
859.928	14123
860.061	14366
860.194	14309
860.327	14145
860.46	14191
860.592	14221
860.725	14202
860.858	14191
860.99	14229
861.123	13982
861.256	13993
861.388	14081
861.521	14918
861.653	14054
861.786	13932
861.918	13978
862.05	13989
862.183	14084
862.315	14142
862.447	14218
862.58	14035
862.712	13799
862.844	13837
862.976	13894
863.108	13791
863.24	14248
863.372	13772
863.504	13890
863.636	13951
863.768	14016
863.9	13833
864.032	13845
864.164	13894
864.296	13925
864.428	14058
864.559	13986
864.691	14073
864.823	13890
864.954	13955
865.086	13951
865.217	13932
865.349	13830
865.48	13940
865.612	13761
865.743	14024
865.875	13974
866.006	13826
866.137	13928
866.269	13803
866.4	13875
866.531	13814
866.662	13738
866.793	13967
866.924	13795
867.055	13894
867.186	13947
867.317	13769
867.448	13845
867.579	13772
867.71	13830
867.841	13769
867.972	13940
868.103	13887
868.233	13849
868.364	13917
868.495	13970
868.625	14100
868.756	14278
868.886	14145
869.017	14081
869.147	14305
869.278	14267
869.408	14256
869.539	14138
869.669	14278
869.799	14233
869.929	14225
870.06	14221
870.19	14476
870.32	14480
870.45	14514
870.58	14507
870.71	14648
870.84	14651
870.97	14545
871.1	14575
871.23	14712
871.36	14731
871.489	14663
871.619	14674
871.749	14758
871.879	14754
872.008	14838
872.138	14807
872.267	14678
872.397	14549
872.526	14674
872.656	14499
872.785	14613
872.915	14804
873.044	14925
873.173	14743
873.303	14849
873.432	14777
873.561	14880
873.69	14864
873.819	14758
873.948	14891
874.077	14785
874.206	14705
874.335	14781
874.464	14948
874.593	15100
874.722	14963
874.851	15195
874.979	15081
875.108	15165
875.237	15070
875.365	15017
875.494	15131
875.623	15184
875.751	15097
875.88	15123
876.008	15294
876.136	15298
876.265	15454
876.393	15736
876.521	15690
876.65	15641
876.778	15469
876.906	15538
877.034	15351
877.162	15622
877.29	15454
877.418	15625
877.546	15584
877.674	15519
877.802	15496
877.93	15603
878.058	15545
878.185	15389
878.313	15519
878.441	15511
878.568	15473
878.696	15374
878.824	15534
878.951	15595
879.079	15660
879.206	15816
879.333	15641
879.461	15625
879.588	15633
879.715	15728
879.842	15785
879.97	15610
880.097	15310
880.224	15306
880.351	15485
880.478	15321
880.605	15336
880.732	15393
880.859	15641
880.986	15466
881.112	15386
881.239	15245
881.366	15119
881.493	15131
881.619	14990
881.746	15039
881.872	15097
881.999	15097
882.125	14967
882.252	15195
882.378	15100
882.505	15119
882.631	15017
882.757	14910
882.883	14925
883.01	14838
883.136	14849
883.262	14632
883.388	14693
883.514	14853
883.64	14838
883.766	14716
883.892	14674
884.018	14629
884.143	14826
884.269	14967
884.395	14602
884.52	14575
884.646	14522
884.772	14484
884.897	14473
885.023	14549
885.148	14720
885.274	14739
885.399	14617
885.524	14533
885.65	14549
885.775	14598
885.9	14522
886.025	14674
886.15	14663
886.275	14556
886.4	14473
886.525	14469
886.65	14522
886.775	14590
886.9	14621
887.025	14788
887.149	14533
887.274	14396
887.399	14301
887.523	14347
887.648	14332
887.773	14214
887.897	14492
888.021	14362
888.146	14347
888.27	14495
888.395	14560
888.519	14446
888.643	14434
888.767	14488
888.891	14427
889.015	14256
889.139	14309
889.263	14256
889.387	14347
889.511	14370
889.635	14465
889.759	14187
889.883	14225
890.006	14317
890.13	14396
890.254	14153
890.377	14149
890.501	13997
890.624	14043
890.748	14214
890.871	14043
890.995	13917
891.118	13845
891.241	13906
891.364	13921
891.488	14123
891.611	13898
891.734	13947
891.857	13967
891.98	14005
892.103	14035
892.226	13955
892.349	13864
892.471	13715
892.594	13883
892.717	13970
892.839	13967
892.962	13955
893.085	13974
893.207	13974
893.33	13830
893.452	13860
893.575	14035
893.697	13921
893.819	14206
893.941	14138
894.064	14073
894.186	13963
894.308	13963
894.43	14107
894.552	14252
894.674	14031
894.796	13830
894.918	14119
895.04	13967
895.161	14073
895.283	14164
895.405	14031
895.526	14062
895.648	14084
895.769	14115
895.891	14119
896.012	14172
896.134	14111
896.255	14100
896.376	14050
896.498	14164
896.619	14107
896.74	14187
896.861	14355
896.982	14461
897.103	14590
897.224	14412
897.345	14393
897.466	14252
897.587	14461
897.708	14514
897.828	14415
897.949	14423
898.07	14305
898.19	14393
898.311	14514
898.431	14377
898.552	14450
898.672	14621
898.792	14655
898.913	14495
899.033	14492
899.153	14385
899.273	14176
899.393	14294
899.513	14362
899.633	14332
899.753	14313
899.873	14282
899.993	14442
900.113	14396
900.232	14381
900.352	14294
900.472	14267
900.591	14191
900.711	14275
900.83	14084
900.95	14328
901.069	14298
901.189	14084
901.308	14020
901.427	13963
901.546	13826
901.665	13959
901.784	13902
901.904	13750
902.023	13666
902.141	13582
902.26	13480
902.379	13453
902.498	13460
902.617	13407
902.735	13369
902.854	13411
902.973	13350
903.091	13137
903.21	13149
903.328	13110
903.446	13042
903.565	13004
903.683	13088
903.801	12966
903.919	13110
904.038	13046
904.156	12821
904.274	12840
904.392	12894
904.51	12897
904.627	12798
904.745	12840
904.863	12890
904.981	12665
905.098	12517
905.216	12585
905.334	12578
905.451	12551
905.569	12498
905.686	12608
905.803	12517
905.921	12407
906.038	12452
906.155	12300
906.272	12186
906.389	12273
906.506	12068
906.623	12087
906.74	12091
906.857	11950
906.974	12091
907.091	12220
907.208	12277
907.324	12190
907.441	12114
907.557	11874
907.674	11813
907.79	11764
907.907	11897
908.023	11946
908.139	11878
908.256	11840
908.372	11874
908.488	11695
908.604	11733
908.72	11642
908.836	11646
908.952	11657
909.068	11695
909.184	11691
909.3	11710
909.415	11646
909.531	11592
909.647	11452
909.762	11436
909.878	11429
909.993	11448
910.108	11372
910.224	11387
910.339	11337
910.454	11376
910.57	11223
910.685	11166
910.8	11547
910.915	11516
911.03	11254
911.145	11094
911.259	11086
911.374	11075
911.489	10957
911.604	10999
911.718	10854
911.833	10911
911.947	10839
912.062	10721
912.176	10858
912.291	10850
912.405	10923
912.519	11003
912.633	11037
912.748	10965
912.862	10885
912.976	10809
913.09	10599
913.204	10740
913.318	10812
913.431	10980
913.545	10835
913.659	10862
913.772	10786
913.886	10656
914	10535
914.113	10752
914.226	10729
914.34	10694
914.453	10668
914.566	10736
914.68	10561
914.793	10569
914.906	10436
915.019	10352
915.132	10276
915.245	10375
915.358	10405
915.47	10333
915.583	10451
915.696	10443
915.809	10527
915.921	10535
916.034	10405
916.146	10265
916.259	10344
916.371	10413
916.483	10417
916.595	10246
916.708	10379
916.82	10318
916.932	10280
917.044	10280
917.156	10272
917.268	10207
917.38	10253
917.491	10139
917.603	10344
917.715	10249
917.826	10314
917.938	10242
918.049	10131
918.161	10238
918.272	10291
918.384	10318
918.495	10200
918.606	10078
918.717	10025
918.828	10124
918.939	10154
919.05	10082
919.161	10082
919.272	9949
919.383	10006
919.494	10234
919.604	10291
919.715	10128
919.826	10051
919.936	10044
920.047	10223
920.157	10097
920.267	10337
920.378	10188
920.488	10093
920.598	10325
920.708	10455
920.818	10314
920.928	10284
921.038	10390
921.148	10402
921.258	10188
921.368	10147
921.477	9972
921.587	9953
921.697	9880
921.806	10017
921.916	9911
922.025	9709
922.134	9618
922.244	9644
922.353	9736
922.462	9526
922.571	9542
922.68	9291
922.789	9340
922.898	9408
923.007	9313
923.116	9359
923.224	9351
923.333	9389
923.442	9241
923.55	9218
923.659	9329
923.767	9291
923.876	9119
923.984	9313
924.092	9245
924.201	9211
924.309	9195
924.417	9245
924.525	9157
924.633	9214
924.741	9922
924.849	9066
924.956	9173
925.064	8929
925.172	8895
925.279	8979
925.387	9070
925.494	9032
925.602	9230
925.709	9108
925.816	8971
925.924	9001
926.031	9173
926.138	9013
926.245	9123
926.352	8971
926.459	9058
926.566	9142
926.673	9043
926.779	8933
926.886	8925
926.993	8800
927.099	8773
927.206	8735
927.312	8678
927.419	8804
927.525	8758
927.631	8845
927.737	8724
927.843	8670
927.95	8575
928.056	8659
928.162	8648
928.267	8648
928.373	9142
928.479	8785
928.585	8511
928.69	8670
928.796	8678
928.901	8526
929.007	8461
929.112	8556
929.218	8495
929.323	8492
929.428	8480
929.533	8606
929.638	8476
929.743	8408
929.848	8488
929.953	8450
930.058	8332
930.163	8256
930.267	8221
930.372	8389
930.477	8218
930.581	8526
930.685	8305
930.79	8153
930.894	8183
930.998	8248
931.103	8301
931.207	7982
931.311	7951
931.415	7864
931.519	7715
931.623	7674
