Data from test_V78500241_3490.txt Node
Date: Fri Mar 25 14:58:01 CST 2022
User: usil
Spectrometer: V785-0024
Trigger mode: 0
Integration Time (sec): 4.000000E-1
Scans to average: 1
Nonlinearity correction enabled: false
Boxcar width: 0
Storing dark spectrum: false
XAxis mode: Wavelengths
Number of Pixels in Spectrum: 1024
>>>>>Begin Spectral Data<<<<<
801.071	21945
801.214	21762
801.356	21618
801.499	21332
801.641	21393
801.783	21310
801.926	21260
802.068	21222
802.211	21180
802.353	21081
802.496	20925
802.638	20807
802.78	20853
802.923	20556
803.065	20545
803.208	20507
803.35	20602
803.492	20689
803.635	20845
803.777	20613
803.919	20571
804.061	21009
804.204	20670
804.346	20579
804.488	20545
804.63	20545
804.773	20461
804.915	20514
805.057	20659
805.199	20537
805.341	20575
805.483	20629
805.626	20602
805.768	20362
805.91	20564
806.052	20545
806.194	20389
806.336	20549
806.478	20552
806.62	20419
806.762	20648
806.904	20625
807.046	20788
807.188	20842
807.33	20724
807.472	20804
807.614	20686
807.756	20670
807.898	20613
808.04	20537
808.182	20533
808.324	20568
808.465	20571
808.607	20701
808.749	20724
808.891	20921
809.033	20963
809.174	20872
809.316	20830
809.458	20921
809.6	20811
809.741	20864
809.883	20948
810.025	21028
810.166	20960
810.308	21024
810.45	20880
810.591	20785
810.733	20724
810.875	20697
811.016	20549
811.158	20507
811.299	20667
811.441	20693
811.582	20697
811.724	20583
811.865	20484
812.007	20560
812.148	20541
812.29	20678
812.431	20796
812.573	20807
812.714	21001
812.855	21032
812.997	21142
813.138	21389
813.279	21142
813.421	21089
813.562	20994
813.703	20788
813.845	20788
813.986	20450
814.127	20233
814.268	20180
814.41	20275
814.551	20183
814.692	20286
814.833	20183
814.974	20252
815.115	20180
815.256	19982
815.397	19860
815.539	19887
815.68	19837
815.821	19837
815.962	19944
816.103	19826
816.244	19742
816.385	19548
816.526	19666
816.666	19426
816.807	19152
816.948	19324
817.089	19388
817.23	19358
817.371	19335
817.512	19183
817.653	19240
817.793	19183
817.934	19221
818.075	19251
818.216	19358
818.356	19282
818.497	19061
818.638	18970
818.778	18932
818.919	18993
819.06	19061
819.2	19175
819.341	19206
819.481	19114
819.622	19259
819.762	19426
819.903	19362
820.043	19320
820.184	19312
820.324	19255
820.465	19381
820.605	19209
820.746	19148
820.886	19126
821.026	19095
821.167	19164
821.307	19343
821.447	19206
821.588	19057
821.728	19088
821.868	18867
822.008	18719
822.149	18608
822.289	18650
822.429	18414
822.569	18369
822.709	18418
822.849	18152
822.99	18308
823.13	18136
823.27	18152
823.41	17931
823.55	17950
823.69	17965
823.83	18060
823.97	17954
824.11	17714
824.25	17726
824.389	17805
824.529	17767
824.669	17775
824.809	17866
824.949	17794
825.089	17726
825.228	17722
825.368	17695
825.508	17524
825.648	17581
825.787	17634
825.927	17577
826.067	17516
826.206	17512
826.346	17619
826.485	17524
826.625	17486
826.765	17627
826.904	17532
827.044	17467
827.183	17353
827.323	17220
827.462	17242
827.601	17083
827.741	17231
827.88	17273
828.02	17181
828.159	17258
828.298	17273
828.437	17296
828.577	17315
828.716	17349
828.855	17166
828.994	17098
829.134	16968
829.273	16984
829.412	16987
829.551	17102
829.69	17060
829.829	17132
829.968	17064
830.107	17147
830.246	17056
830.385	16995
830.524	16850
830.663	16889
830.802	16752
830.941	16611
831.08	16630
831.219	16721
831.357	16729
831.496	16862
831.635	16755
831.774	16561
831.913	16527
832.051	16356
832.19	16451
832.329	16561
832.467	16421
832.606	16341
832.744	16295
832.883	16337
833.022	16356
833.16	16405
833.299	16447
833.437	16417
833.576	16390
833.714	16367
833.852	16409
833.991	16550
834.129	16527
834.267	16519
834.406	16405
834.544	16375
834.682	16455
834.821	16390
834.959	16645
835.097	16455
835.235	16535
835.373	16402
835.511	16424
835.65	16367
835.788	16413
835.926	16238
836.064	16204
836.202	16150
836.34	16371
836.478	16523
836.615	16261
836.753	16371
836.891	16440
837.029	16478
837.167	16223
837.305	16306
837.443	16162
837.58	16158
837.718	16295
837.856	16196
837.993	16181
838.131	16185
838.269	16147
838.406	16219
838.544	16067
838.681	15960
838.819	15854
838.956	15838
839.094	15709
839.231	15789
839.369	15911
839.506	16173
839.643	16097
839.781	15800
839.918	15675
840.055	15812
840.193	15736
840.33	15850
840.467	15770
840.604	15819
840.742	15983
840.879	15686
841.016	15530
841.153	15641
841.29	15865
841.427	15736
841.564	15797
841.701	15808
841.838	15724
841.975	15629
842.112	15633
842.249	15473
842.385	15625
842.522	15766
842.659	15679
842.796	15564
842.933	15523
843.069	15545
843.206	15393
843.343	15690
843.479	15618
843.616	15545
843.752	15329
843.889	15272
844.025	15538
844.162	15264
844.298	15378
844.435	15408
844.571	15378
844.708	15416
844.844	15500
844.98	15515
845.117	15488
845.253	15363
845.389	15211
845.525	15188
845.661	15256
845.798	15142
845.934	15188
846.07	15112
846.206	15203
846.342	15230
846.478	15131
846.614	14933
846.75	14857
846.886	14929
847.022	15036
847.158	14944
847.294	14902
847.429	14941
847.565	14967
847.701	15051
847.837	14678
847.972	14625
848.108	14739
848.244	14746
848.379	14541
848.515	14590
848.65	14434
848.786	14457
848.921	14579
849.057	14682
849.192	14587
849.328	14533
849.463	14518
849.598	14511
849.734	14408
849.869	14400
850.004	14313
850.14	14393
850.275	14301
850.41	14248
850.545	14328
850.68	14301
850.815	14313
850.95	14164
851.085	14465
851.22	14377
851.355	14267
851.49	14248
851.625	14313
851.76	14180
851.895	14191
852.03	14229
852.165	14298
852.299	14267
852.434	14298
852.569	14271
852.703	14309
852.838	14370
852.973	14469
853.107	14408
853.242	14267
853.376	14100
853.511	13906
853.645	14088
853.78	14305
853.914	14187
854.048	14031
854.183	14107
854.317	14138
854.451	14305
854.585	14195
854.72	14130
854.854	14206
854.988	14126
855.122	14172
855.256	14016
855.39	14164
855.524	14221
855.658	14221
855.792	14084
855.926	14153
856.06	14199
856.194	14187
856.327	14229
856.461	14050
856.595	14149
856.729	14172
856.862	14256
856.996	14252
857.13	14237
857.263	14233
857.397	14347
857.53	14145
857.664	14294
857.797	14233
857.931	14221
858.064	14176
858.197	14358
858.331	14221
858.464	14092
858.597	14081
858.731	14164
858.864	14119
858.997	14065
859.13	14161
859.263	14164
859.396	14214
859.529	14176
859.662	14191
859.795	14142
859.928	14240
860.061	14324
860.194	14309
860.327	14233
860.46	14084
860.592	14282
860.725	14267
860.858	14176
860.99	14157
861.123	14081
861.256	14065
861.388	14183
861.521	14849
861.653	13986
861.786	13993
861.918	14069
862.05	14062
862.183	14161
862.315	14138
862.447	14065
862.58	14096
862.712	13898
862.844	13887
862.976	13936
863.108	14031
863.24	14446
863.372	13753
863.504	13909
863.636	13883
863.768	14088
863.9	14020
864.032	13811
864.164	14035
864.296	13940
864.428	14054
864.559	14031
864.691	14069
864.823	14012
864.954	13997
865.086	13974
865.217	13883
865.349	13868
865.48	13887
865.612	14008
865.743	14119
865.875	13887
866.006	13864
866.137	13932
866.269	13917
866.4	13959
866.531	13887
866.662	13883
866.793	13780
866.924	13902
867.055	13951
867.186	13902
867.317	13902
867.448	13788
867.579	13883
867.71	13818
867.841	13833
867.972	13913
868.103	13936
868.233	13951
868.364	13818
868.495	13909
868.625	14161
868.756	14271
868.886	14050
869.017	14111
869.147	14336
869.278	14332
869.408	14138
869.539	14229
869.669	14202
869.799	14157
869.929	14305
870.06	14271
870.19	14503
870.32	14415
870.45	14396
870.58	14583
870.71	14705
870.84	14648
870.97	14583
871.1	14461
871.23	14800
871.36	14800
871.489	14667
871.619	14693
871.749	14838
871.879	14796
872.008	14910
872.138	14777
872.267	14731
872.397	14708
872.526	14648
872.656	14571
872.785	14545
872.915	14762
873.044	14868
873.173	14819
873.303	14880
873.432	14849
873.561	14887
873.69	14902
873.819	14906
873.948	14910
874.077	14819
874.206	14819
874.335	14914
874.464	14899
874.593	15173
874.722	15062
874.851	15089
874.979	15150
875.108	15214
875.237	15119
875.365	15066
875.494	15074
875.623	15256
875.751	15028
875.88	15176
876.008	15367
876.136	15310
876.265	15606
876.393	15690
876.521	15759
876.65	15625
876.778	15542
876.906	15564
877.034	15488
877.162	15599
877.29	15462
877.418	15469
877.546	15542
877.674	15526
877.802	15622
877.93	15526
878.058	15473
878.185	15370
878.313	15542
878.441	15519
878.568	15526
878.696	15488
878.824	15656
878.951	15591
879.079	15675
879.206	15827
879.333	15724
879.461	15576
879.588	15652
879.715	15705
879.842	15793
879.97	15606
880.097	15424
880.224	15329
880.351	15412
880.478	15367
880.605	15416
880.732	15374
880.859	15675
880.986	15374
881.112	15504
881.239	15192
881.366	15214
881.493	15176
881.619	14986
881.746	15066
881.872	15123
881.999	15077
882.125	14944
882.252	15131
882.378	15161
882.505	15161
882.631	15077
882.757	14887
882.883	14952
883.01	14853
883.136	14804
883.262	14758
883.388	14773
883.514	14914
883.64	14876
883.766	14849
883.892	14731
884.018	14750
884.143	14853
884.269	15055
884.395	14727
884.52	14511
884.646	14568
884.772	14450
884.897	14552
885.023	14659
885.148	14724
885.274	14762
885.399	14629
885.524	14632
885.65	14590
885.775	14541
885.9	14552
886.025	14705
886.15	14708
886.275	14587
886.4	14480
886.525	14518
886.65	14476
886.775	14488
886.9	14621
887.025	14785
887.149	14575
887.274	14404
887.399	14457
887.523	14427
887.648	14374
887.773	14328
887.897	14507
888.021	14492
888.146	14389
888.27	14549
888.395	14507
888.519	14450
888.643	14499
888.767	14495
888.891	14370
889.015	14195
889.139	14400
889.263	14180
889.387	14370
889.511	14549
889.635	14343
889.759	14244
889.883	14336
890.006	14278
890.13	14381
890.254	14248
890.377	14123
890.501	14092
890.624	14123
890.748	14206
890.871	14073
890.995	14035
891.118	13944
891.241	13997
891.364	13993
891.488	14081
891.611	13970
891.734	13989
891.857	14081
891.98	13970
892.103	14043
892.226	13986
892.349	13951
892.471	13742
892.594	14035
892.717	13936
892.839	14054
892.962	13986
893.085	14035
893.207	13928
893.33	13845
893.452	13860
893.575	14012
893.697	13868
893.819	14111
893.941	14248
894.064	14130
894.186	14016
894.308	13947
894.43	14084
894.552	14142
894.674	14126
894.796	13940
894.918	14084
895.04	13928
895.161	14168
895.283	14180
895.405	14035
895.526	14130
895.648	14115
895.769	14065
895.891	14134
896.012	14218
896.134	14172
896.255	14115
896.376	14035
896.498	14073
896.619	14286
896.74	14111
896.861	14195
896.982	14488
897.103	14663
897.224	14518
897.345	14366
897.466	14313
897.587	14374
897.708	14503
897.828	14427
897.949	14393
898.07	14374
898.19	14343
898.311	14613
898.431	14442
898.552	14530
898.672	14575
898.792	14590
898.913	14454
899.033	14469
899.153	14221
899.273	14263
899.393	14355
899.513	14377
899.633	14412
899.753	14396
899.873	14317
899.993	14374
900.113	14271
900.232	14400
900.352	14309
900.472	14237
900.591	14103
900.711	14256
900.83	14153
900.95	14366
901.069	14267
901.189	14244
901.308	13928
901.427	13830
901.546	13807
901.665	13860
901.784	13944
901.904	13807
902.023	13753
902.141	13483
902.26	13460
902.379	13540
902.498	13495
902.617	13419
902.735	13476
902.854	13422
902.973	13419
903.091	13190
903.21	13244
903.328	13149
903.446	13099
903.565	13050
903.683	13034
903.801	12928
903.919	13034
904.038	12932
904.156	12909
904.274	12913
904.392	12901
904.51	12825
904.627	12867
904.745	12890
904.863	12939
904.981	12639
905.098	12566
905.216	12483
905.334	12688
905.451	12665
905.569	12559
905.686	12642
905.803	12597
905.921	12376
906.038	12502
906.155	12410
906.272	12334
906.389	12254
906.506	12114
906.623	12152
906.74	12102
906.857	12057
906.974	12057
907.091	12224
907.208	12285
907.324	12163
907.441	12102
907.557	11999
907.674	11916
907.79	11824
907.907	11855
908.023	11946
908.139	11950
908.256	11756
908.372	11775
908.488	11767
908.604	11623
908.72	11653
908.836	11710
908.952	11600
909.068	11630
909.184	11707
909.3	11619
909.415	11684
909.531	11688
909.647	11440
909.762	11387
909.878	11414
909.993	11471
910.108	11448
910.224	11459
910.339	11501
910.454	11368
910.57	11387
910.685	11170
910.8	11509
910.915	11455
911.03	11303
911.145	11216
911.259	11147
911.374	11071
911.489	10984
911.604	11006
911.718	10938
911.833	10786
911.947	10812
912.062	10714
912.176	10892
912.291	10847
912.405	10957
912.519	11071
912.633	11098
912.748	11010
912.862	10930
912.976	10790
913.09	10649
913.204	10721
913.318	10805
913.431	10923
913.545	10862
913.659	10923
913.772	10839
913.886	10561
914	10603
914.113	10725
914.226	10831
914.34	10717
914.453	10569
914.566	10767
914.68	10607
914.793	10607
914.906	10409
915.019	10382
915.132	10325
915.245	10394
915.358	10322
915.47	10375
915.583	10398
915.696	10379
915.809	10535
915.921	10542
916.034	10375
916.146	10341
916.259	10306
916.371	10443
916.483	10356
916.595	10280
916.708	10299
916.82	10246
916.932	10249
917.044	10356
917.156	10325
917.268	10287
917.38	10295
917.491	10219
917.603	10249
917.715	10337
917.826	10390
917.938	10272
918.049	10120
918.161	10177
918.272	10447
918.384	10367
918.495	10227
918.606	10112
918.717	10093
918.828	10101
918.939	10154
919.05	9975
919.161	10188
919.272	9918
919.383	10025
919.494	10215
919.604	10303
919.715	10169
919.826	10055
919.936	10074
920.047	10265
920.157	10158
920.267	10382
920.378	10150
920.488	10097
920.598	10322
920.708	10440
920.818	10379
920.928	10341
921.038	10443
921.148	10504
921.258	10154
921.368	10086
921.477	10017
921.587	9934
921.697	9953
921.806	9945
921.916	9930
922.025	9778
922.134	9717
922.244	9656
922.353	9766
922.462	9572
922.571	9481
922.68	9443
922.789	9306
922.898	9443
923.007	9363
923.116	9431
923.224	9420
923.333	9397
923.442	9321
923.55	9249
923.659	9317
923.767	9344
923.876	9230
923.984	9302
924.092	9192
924.201	9199
924.309	9302
924.417	9340
924.525	9211
924.633	9218
924.741	9899
924.849	9070
924.956	9203
925.064	9005
925.172	8944
925.279	8975
925.387	9058
925.494	9058
925.602	9157
925.709	9077
925.816	8971
925.924	9043
926.031	9157
926.138	9127
926.245	9055
926.352	8986
926.459	9154
926.566	9112
926.673	8963
926.779	8891
926.886	8944
926.993	8804
927.099	8724
927.206	8663
927.312	8754
927.419	8960
927.525	8788
927.631	8826
927.737	8670
927.843	8705
927.95	8533
928.056	8651
928.162	8667
928.267	8781
928.373	9340
928.479	8739
928.585	8507
928.69	8621
928.796	8674
928.901	8545
929.007	8393
929.112	8621
929.218	8598
929.323	8545
929.428	8469
929.533	8590
929.638	8427
929.743	8492
929.848	8484
929.953	8454
930.058	8381
930.163	8221
930.267	8210
930.372	8374
930.477	8229
930.581	8396
930.685	8366
930.79	8172
930.894	8210
930.998	8183
931.103	8377
931.207	8024
931.311	7932
931.415	7818
931.519	7708
931.623	7685
