Data from test_V78500241_827.txt Node
Date: Fri Mar 25 14:39:28 CST 2022
User: usil
Spectrometer: V785-0024
Trigger mode: 0
Integration Time (sec): 4.000000E-1
Scans to average: 1
Nonlinearity correction enabled: false
Boxcar width: 0
Storing dark spectrum: false
XAxis mode: Wavelengths
Number of Pixels in Spectrum: 1024
>>>>>Begin Spectral Data<<<<<
801.071	26172
801.214	26115
801.356	25734
801.499	25757
801.641	25544
801.783	25571
801.926	25529
802.068	25544
802.211	25415
802.353	25331
802.496	25061
802.638	25057
802.78	25008
802.923	24962
803.065	24833
803.208	24928
803.35	24985
803.492	25183
803.635	25255
803.777	25107
803.919	25080
804.061	25491
804.204	25122
804.346	25122
804.488	25034
804.63	25168
804.773	25053
804.915	25171
805.057	25400
805.199	25419
805.341	25327
805.483	25495
805.626	25479
805.768	25468
805.91	25556
806.052	25788
806.194	25655
806.336	25917
806.478	25947
806.62	25986
806.762	26374
806.904	26682
807.046	26994
807.188	27199
807.33	27557
807.472	27960
807.614	28432
807.756	28892
807.898	29608
808.04	30627
808.182	31986
808.324	33899
808.465	35977
808.607	38126
808.749	40082
808.891	41326
809.033	41364
809.174	40139
809.316	38309
809.458	35889
809.6	33648
809.741	31875
809.883	30388
810.025	29509
810.166	28649
810.308	28139
810.45	27633
810.591	27203
810.733	26731
810.875	26606
811.016	26442
811.158	26180
811.299	26187
811.441	26237
811.582	26126
811.724	25963
811.865	25841
812.007	25788
812.148	25685
812.29	25689
812.431	25757
812.573	25932
812.714	25944
812.855	26005
812.997	26134
813.138	26225
813.279	26062
813.421	25890
813.562	25757
813.703	25552
813.845	25495
813.986	25232
814.127	24916
814.268	24882
814.41	24924
814.551	24802
814.692	24875
814.833	24673
814.974	24791
815.115	24593
815.256	24456
815.397	24540
815.539	24566
815.68	24410
815.821	24376
815.962	24391
816.103	24308
816.244	24224
816.385	24057
816.526	23923
816.666	23790
816.807	23615
816.948	23824
817.089	23855
817.23	23764
817.371	23726
817.512	23684
817.653	23714
817.793	23570
817.934	23767
818.075	23630
818.216	23589
818.356	23695
818.497	23414
818.638	23330
818.778	23364
818.919	23326
819.06	23436
819.2	23429
819.341	23505
819.481	23474
819.622	23737
819.762	23855
819.903	23756
820.043	23668
820.184	23505
820.324	23509
820.465	23615
820.605	23592
820.746	23520
820.886	23364
821.026	23383
821.167	23455
821.307	23596
821.447	23364
821.588	23315
821.728	23140
821.868	22934
822.008	22881
822.149	22797
822.289	22626
822.429	22573
822.569	22474
822.709	22459
822.849	22234
822.99	22265
823.13	22303
823.27	22188
823.41	22086
823.55	21998
823.69	21975
823.83	22067
823.97	22067
824.11	21873
824.25	21759
824.389	21781
824.529	21922
824.669	21793
824.809	21876
824.949	21998
825.089	21991
825.228	21903
825.368	21564
825.508	21720
825.648	21701
825.787	21610
825.927	21724
826.067	21545
826.206	21462
826.346	21618
826.485	21587
826.625	21591
826.765	21686
826.904	21568
827.044	21405
827.183	21393
827.323	21207
827.462	21173
827.601	21279
827.741	21214
827.88	21332
828.02	21127
828.159	21192
828.298	21192
828.437	21252
828.577	21165
828.716	21214
828.855	21157
828.994	21024
829.134	20868
829.273	21070
829.412	20956
829.551	20788
829.69	20891
829.829	20891
829.968	21062
830.107	21032
830.246	21043
830.385	20872
830.524	20762
830.663	20708
830.802	20583
830.941	20495
831.08	20598
831.219	20438
831.357	20571
831.496	20849
831.635	20533
831.774	20438
831.913	20324
832.051	20457
832.19	20366
832.329	20298
832.467	20324
832.606	20278
832.744	20317
832.883	20339
833.022	20408
833.16	20450
833.299	20552
833.437	20670
833.576	20765
833.714	20872
833.852	20838
833.991	21017
834.129	21188
834.267	21176
834.406	20982
834.544	21062
834.682	20883
834.821	20811
834.959	20971
835.097	20579
835.235	20644
835.373	20518
835.511	20454
835.65	20275
835.788	20221
835.926	20119
836.064	19989
836.202	19963
836.34	20100
836.478	20088
836.615	19989
836.753	20035
836.891	20081
837.029	20252
837.167	19925
837.305	19947
837.443	19959
837.58	19807
837.718	20005
837.856	19928
837.993	19807
838.131	19856
838.269	19837
838.406	19807
838.544	19715
838.681	19480
838.819	19464
838.956	19388
839.094	19457
839.231	19460
839.369	19438
839.506	19837
839.643	19715
839.781	19293
839.918	19263
840.055	19441
840.193	19285
840.33	19266
840.467	19266
840.604	19335
840.742	19647
840.879	19270
841.016	19148
841.153	19232
841.29	19297
841.427	19316
841.564	19297
841.701	19278
841.838	19225
841.975	19206
842.112	19244
842.249	19137
842.385	18985
842.522	19343
842.659	19160
842.796	19103
842.933	19027
843.069	19095
843.206	19141
843.343	19316
843.479	19339
843.616	19259
843.752	19019
843.889	19076
844.025	19152
844.162	19148
844.298	19282
844.435	19369
844.571	19426
844.708	19620
844.844	19883
844.98	20332
845.117	20712
845.253	21233
845.389	22440
845.525	24711
845.661	28162
845.798	32948
845.934	36680
846.07	37868
846.206	36996
846.342	34196
846.478	29657
846.614	25605
846.75	22881
846.886	21283
847.022	20457
847.158	19776
847.294	19430
847.429	19202
847.565	19103
847.701	19080
847.837	18593
847.972	18456
848.108	18544
848.244	18475
848.379	18216
848.515	18152
848.65	18087
848.786	18117
848.921	18133
849.057	18136
849.192	18220
849.328	18076
849.463	17996
849.598	18015
849.734	18026
849.869	17939
850.004	17767
850.14	17843
850.275	17748
850.41	17630
850.545	17581
850.68	17695
850.815	17733
850.95	17775
851.085	17931
851.22	17874
851.355	17726
851.49	17729
851.625	17741
851.76	17653
851.895	17604
852.03	17642
852.165	17817
852.299	17771
852.434	17855
852.569	17897
852.703	17764
852.838	17885
852.973	18030
853.107	17958
853.242	17752
853.376	17760
853.511	17570
853.645	17771
853.78	17897
853.914	17969
854.048	17805
854.183	17885
854.317	17855
854.451	18098
854.585	17882
854.72	17813
854.854	17882
854.988	17798
855.122	17741
855.256	17596
855.39	17665
855.524	17783
855.658	17707
855.792	17642
855.926	17665
856.06	17764
856.194	17745
856.327	17558
856.461	17452
856.595	17570
856.729	17592
856.862	17680
856.996	17657
857.13	17573
857.263	17646
857.397	17710
857.53	17585
857.664	17733
857.797	17722
857.931	17687
858.064	17516
858.197	17646
858.331	17509
858.464	17448
858.597	17345
858.731	17520
858.864	17410
858.997	17486
859.13	17467
859.263	17497
859.396	17611
859.529	17524
859.662	17455
859.795	17410
859.928	17440
860.061	17707
860.194	17672
860.327	17501
860.46	17368
860.592	17589
860.725	17657
860.858	17592
860.99	17516
861.123	17223
861.256	17356
861.388	17486
861.521	18053
861.653	17307
861.786	17326
861.918	17280
862.05	17330
862.183	17463
862.315	17421
862.447	17395
862.58	17311
862.712	17204
862.844	17113
862.976	17250
863.108	17170
863.24	17554
863.372	17128
863.504	17113
863.636	17242
863.768	17124
863.9	16995
864.032	17162
864.164	17155
864.296	17227
864.428	17239
864.559	17132
864.691	17178
864.823	17197
864.954	17132
865.086	17166
865.217	17181
865.349	17071
865.48	17067
865.612	17109
865.743	17239
865.875	17105
866.006	17048
866.137	17048
866.269	17079
866.4	17105
866.531	17048
866.662	17102
866.793	16987
866.924	17094
867.055	17124
867.186	17045
867.317	17064
867.448	16885
867.579	16991
867.71	16930
867.841	16938
867.972	17033
868.103	17117
868.233	17094
868.364	17014
868.495	17052
868.625	17227
868.756	17341
868.886	17296
869.017	17200
869.147	17433
869.278	17448
869.408	17307
869.539	17277
869.669	17353
869.799	17341
869.929	17478
870.06	17482
870.19	17657
870.32	17680
870.45	17691
870.58	17695
870.71	17809
870.84	17908
870.97	17756
871.1	17684
871.23	17893
871.36	17965
871.489	17859
871.619	17809
871.749	18011
871.879	18026
872.008	18155
872.138	18152
872.267	18019
872.397	17855
872.526	17809
872.656	17832
872.785	17741
872.915	18117
873.044	18258
873.173	18098
873.303	18209
873.432	18068
873.561	18300
873.69	18232
873.819	18213
873.948	18220
874.077	18152
874.206	18174
874.335	18235
874.464	18437
874.593	18551
874.722	18521
874.851	18616
874.979	18734
875.108	18734
875.237	18665
875.365	18673
875.494	18711
875.623	18757
875.751	18814
875.88	18810
876.008	18924
876.136	19076
876.265	19327
876.393	19453
876.521	19419
876.65	19460
876.778	19502
876.906	19548
877.034	19605
877.162	19559
877.29	19563
877.418	19658
877.546	19670
877.674	19761
877.802	19913
877.93	20020
878.058	19963
878.185	20100
878.313	20389
878.441	20564
878.568	20785
878.696	21180
878.824	21793
878.951	22497
879.079	23684
879.206	25076
879.333	26465
879.461	27515
879.588	28333
879.715	28344
879.842	27793
879.97	26408
880.097	24920
880.224	23790
880.351	22938
880.478	22348
880.605	21956
880.732	21732
880.859	21793
880.986	21477
881.112	21405
881.239	21203
881.366	21131
881.493	21013
881.619	20883
881.746	21070
881.872	21081
881.999	20918
882.125	20967
882.252	21233
882.378	21173
882.505	21222
882.631	21116
882.757	21009
882.883	21051
883.01	20944
883.136	20891
883.262	20804
883.388	20845
883.514	20849
883.64	20952
883.766	20807
883.892	20697
884.018	20830
884.143	20887
884.269	20868
884.395	20689
884.52	20625
884.646	20712
884.772	20663
884.897	20727
885.023	20617
885.148	20640
885.274	20701
885.399	20560
885.524	20533
885.65	20427
885.775	20328
885.9	20100
886.025	20233
886.15	20050
886.275	19909
886.4	19761
886.525	19708
886.65	19613
886.775	19453
886.9	19567
887.025	19685
887.149	19297
887.274	19183
887.399	19179
887.523	18947
887.648	18882
887.773	18867
887.897	19019
888.021	18932
888.146	18833
888.27	18901
888.395	18795
888.519	18753
888.643	18646
888.767	18658
888.891	18456
889.015	18391
889.139	18490
889.263	18319
889.387	18429
889.511	18452
889.635	18380
889.759	18190
889.883	18144
890.006	18209
890.13	18262
890.254	18121
890.377	18098
890.501	17847
890.624	17874
890.748	17912
890.871	17752
890.995	17699
891.118	17592
891.241	17619
891.364	17623
891.488	17726
891.611	17581
891.734	17646
891.857	17562
891.98	17619
892.103	17611
892.226	17554
892.349	17406
892.471	17311
892.594	17417
892.717	17429
892.839	17448
892.962	17292
893.085	17406
893.207	17284
893.33	17185
893.452	17181
893.575	17311
893.697	17307
893.819	17345
893.941	17551
894.064	17360
894.186	17178
894.308	17136
894.43	17212
894.552	17258
894.674	17280
894.796	17113
894.918	17128
895.04	17037
895.161	17159
895.283	17193
895.405	16946
895.526	17105
895.648	17079
895.769	17128
895.891	17041
896.012	17105
896.134	17166
896.255	16995
896.376	17014
896.498	17117
896.619	17151
896.74	17048
896.861	17235
896.982	17387
897.103	17532
897.224	17360
897.345	17406
897.466	17136
897.587	17288
897.708	17398
897.828	17296
897.949	17208
898.07	17193
898.19	17280
898.311	17387
898.431	17223
898.552	17258
898.672	17311
898.792	17250
898.913	17372
899.033	17322
899.153	17242
899.273	17075
899.393	17060
899.513	17102
899.633	17113
899.753	17071
899.873	17102
899.993	17162
900.113	17025
900.232	17037
900.352	17128
900.472	17071
900.591	16904
900.711	16911
900.83	16911
900.95	17045
901.069	16957
901.189	16820
901.308	16596
901.427	16554
901.546	16523
901.665	16580
901.784	16554
901.904	16394
902.023	16242
902.141	16124
902.26	16071
902.379	16185
902.498	15994
902.617	15915
902.735	16036
902.854	15968
902.973	15930
903.091	15804
903.21	15709
903.328	15667
903.446	15576
903.565	15466
903.683	15538
903.801	15431
903.919	15374
904.038	15511
904.156	15306
904.274	15367
904.392	15233
904.51	15233
904.627	15195
904.745	15279
904.863	15340
904.981	15104
905.098	14952
905.216	14933
905.334	14899
905.451	14895
905.569	14823
905.686	14883
905.803	14861
905.921	14640
906.038	14754
906.155	14697
906.272	14488
906.389	14636
906.506	14533
906.623	14370
906.74	14503
906.857	14317
906.974	14298
907.091	14457
907.208	14568
907.324	14431
907.441	14317
907.557	14180
907.674	14225
907.79	14107
907.907	14134
908.023	14145
908.139	14153
908.256	14092
908.372	14119
908.488	13932
908.604	13841
908.72	13795
908.836	13852
908.952	13784
909.068	13788
909.184	14054
909.3	13925
909.415	13955
909.531	13837
909.647	13586
909.762	13700
909.878	13639
909.993	13666
910.108	13556
910.224	13578
910.339	13753
910.454	13483
910.57	13460
910.685	13464
910.8	13620
910.915	13506
911.03	13354
911.145	13377
911.259	13308
911.374	13270
911.489	13145
911.604	13156
911.718	13031
911.833	13057
911.947	12909
912.062	12867
912.176	12954
912.291	13027
912.405	13038
912.519	13198
912.633	13190
912.748	13023
912.862	13004
912.976	12829
913.09	12719
913.204	12783
913.318	12779
913.431	12848
913.545	12817
913.659	12943
913.772	12806
913.886	12654
914	12787
914.113	12840
914.226	12878
914.34	12730
914.453	12623
914.566	12837
914.68	12741
914.793	12544
914.906	12547
915.019	12361
915.132	12300
915.245	12429
915.358	12452
915.47	12395
915.583	12559
915.696	12483
915.809	12589
915.921	12589
916.034	12407
916.146	12456
916.259	12388
916.371	12452
916.483	12471
916.595	12315
916.708	12311
916.82	12346
916.932	12452
917.044	12372
917.156	12273
917.268	12273
917.38	12247
917.491	12155
917.603	12182
917.715	12209
917.826	12308
917.938	12175
918.049	11942
918.161	12064
918.272	12239
918.384	12163
918.495	12125
918.606	11980
918.717	11927
918.828	11977
918.939	12030
919.05	11935
919.161	11973
919.272	11748
919.383	11821
919.494	11977
919.604	12129
919.715	11950
919.826	11923
919.936	11942
920.047	12030
920.157	11973
920.267	12144
920.378	12072
920.488	11855
920.598	12114
920.708	12258
920.818	12186
920.928	12102
921.038	12319
921.148	12308
921.258	11927
921.368	11912
921.477	11729
921.587	11748
921.697	11630
921.806	11794
921.916	11672
922.025	11474
922.134	11318
922.244	11452
922.353	11482
922.462	11315
922.571	11181
922.68	11147
922.789	11102
922.898	11166
923.007	11060
923.116	11067
923.224	11071
923.333	11056
923.442	10908
923.55	11003
923.659	10915
923.767	11014
923.876	10938
923.984	11014
924.092	10873
924.201	10877
924.309	10915
924.417	10869
924.525	10793
924.633	10934
924.741	11870
924.849	10656
924.956	10812
925.064	10717
925.172	10580
925.279	10599
925.387	10626
925.494	10672
925.602	10691
925.709	10805
925.816	10577
925.924	10596
926.031	10740
926.138	10626
926.245	10649
926.352	10489
926.459	10660
926.566	10725
926.673	10641
926.779	10443
926.886	10459
926.993	10337
927.099	10360
927.206	10314
927.312	10227
927.419	10417
927.525	10246
927.631	10314
927.737	10219
927.843	10162
927.95	10044
928.056	10238
928.162	10116
928.267	10280
928.373	10809
928.479	10249
928.585	9987
928.69	10093
928.796	10124
928.901	10055
929.007	9876
929.112	10101
929.218	10040
929.323	9972
929.428	9895
929.533	10112
929.638	9873
929.743	9930
929.848	9960
929.953	9960
930.058	9842
930.163	9686
930.267	9675
930.372	9770
930.477	9614
930.581	9907
930.685	9785
930.79	9591
930.894	9625
930.998	9526
931.103	9663
931.207	9386
931.311	9329
931.415	9218
931.519	9093
931.623	9127
