Data from test_V78500241_345.txt Node
Date: Fri Mar 25 14:36:07 CST 2022
User: usil
Spectrometer: V785-0024
Trigger mode: 0
Integration Time (sec): 4.000000E-1
Scans to average: 1
Nonlinearity correction enabled: false
Boxcar width: 0
Storing dark spectrum: false
XAxis mode: Wavelengths
Number of Pixels in Spectrum: 1024
>>>>>Begin Spectral Data<<<<<
801.071	26986
801.214	26891
801.356	26473
801.499	26446
801.641	26324
801.783	26347
801.926	26328
802.068	26259
802.211	26187
802.353	26168
802.496	26039
802.638	26005
802.78	25811
802.923	25814
803.065	25670
803.208	25765
803.35	25989
803.492	25925
803.635	26050
803.777	25921
803.919	26043
804.061	26237
804.204	25864
804.346	25898
804.488	25708
804.63	25860
804.773	25826
804.915	25871
805.057	26016
805.199	25833
805.341	25883
805.483	25959
805.626	25928
805.768	25765
805.91	25894
806.052	25944
806.194	25811
806.336	25993
806.478	25982
806.62	25803
806.762	25940
806.904	26100
807.046	26415
807.188	26347
807.33	26145
807.472	26248
807.614	26263
807.756	26199
807.898	25986
808.04	26119
808.182	25997
808.324	26130
808.465	26081
808.607	26267
808.749	26404
808.891	26598
809.033	26670
809.174	26484
809.316	26438
809.458	26423
809.6	26374
809.741	26358
809.883	26339
810.025	26560
810.166	26476
810.308	26438
810.45	26473
810.591	26480
810.733	26381
810.875	26157
811.016	26366
811.158	26043
811.299	26237
811.441	26370
811.582	26259
811.724	26221
811.865	26240
812.007	26164
812.148	26122
812.29	26336
812.431	26370
812.573	26457
812.714	26640
812.855	26514
812.997	26735
813.138	26925
813.279	26864
813.421	26800
813.562	26708
813.703	26507
813.845	26427
813.986	25970
814.127	25887
814.268	25814
814.41	25807
814.551	25643
814.692	25906
814.833	25696
814.974	25670
815.115	25822
815.256	25605
815.397	25567
815.539	25693
815.68	25449
815.821	25468
815.962	25506
816.103	25552
816.244	25426
816.385	25335
816.526	25312
816.666	25046
816.807	24814
816.948	25000
817.089	25023
817.23	24920
817.371	24973
817.512	24992
817.653	24943
817.793	24840
817.934	24947
818.075	24871
818.216	24905
818.356	24875
818.497	24730
818.638	24673
818.778	24639
818.919	24536
819.06	24646
819.2	24711
819.341	24753
819.481	24894
819.622	24932
819.762	25168
819.903	25012
820.043	24852
820.184	24856
820.324	24996
820.465	24992
820.605	24863
820.746	24814
820.886	24715
821.026	24814
821.167	24677
821.307	24814
821.447	24722
821.588	24677
821.728	24513
821.868	24464
822.008	24304
822.149	24220
822.289	24167
822.429	24060
822.569	23843
822.709	23840
822.849	23783
822.99	23676
823.13	23619
823.27	23505
823.41	23554
823.55	23349
823.69	23516
823.83	23482
823.97	23463
824.11	23341
824.25	23200
824.389	23227
824.529	23425
824.669	23258
824.809	23360
824.949	23303
825.089	23265
825.228	23364
825.368	23090
825.508	23155
825.648	23121
825.787	23037
825.927	23124
826.067	22946
826.206	23052
826.346	23048
826.485	23109
826.625	23060
826.765	23204
826.904	23041
827.044	22736
827.183	22828
827.323	22645
827.462	22729
827.601	22759
827.741	22683
827.88	22748
828.02	22603
828.159	22637
828.298	22626
828.437	22744
828.577	22755
828.716	22934
828.855	22584
828.994	22493
829.134	22405
829.273	22413
829.412	22367
829.551	22394
829.69	22341
829.829	22504
829.968	22516
830.107	22557
830.246	22333
830.385	22367
830.524	22424
830.663	22284
830.802	22055
830.941	21994
831.08	22029
831.219	22025
831.357	22036
831.496	22188
831.635	21972
831.774	21770
831.913	21854
832.051	21816
832.19	21850
832.329	21736
832.467	21644
832.606	21496
832.744	21538
832.883	21625
833.022	21652
833.16	21648
833.299	21648
833.437	21663
833.576	21591
833.714	21694
833.852	21781
833.991	21808
834.129	21713
834.267	21720
834.406	21515
834.544	21770
834.682	21660
834.821	21557
834.959	21762
835.097	21538
835.235	21675
835.373	21644
835.511	21485
835.65	21511
835.788	21382
835.926	21264
836.064	21279
836.202	21283
836.34	21553
836.478	21519
836.615	21530
836.753	21542
836.891	21500
837.029	21447
837.167	21450
837.305	21370
837.443	21283
837.58	21275
837.718	21443
837.856	21325
837.993	21245
838.131	21298
838.269	21241
838.406	21260
838.544	21188
838.681	21009
838.819	20910
838.956	20845
839.094	20792
839.231	20754
839.369	20960
839.506	21142
839.643	21070
839.781	20739
839.918	20663
840.055	20659
840.193	20750
840.33	20720
840.467	20796
840.604	20693
840.742	21017
840.879	20621
841.016	20629
841.153	20598
841.29	20743
841.427	20606
841.564	20743
841.701	20746
841.838	20556
841.975	20514
842.112	20598
842.249	20507
842.385	20328
842.522	20503
842.659	20419
842.796	20423
842.933	20457
843.069	20298
843.206	20282
843.343	20473
843.479	20351
843.616	20267
843.752	20050
843.889	20168
844.025	20324
844.162	20142
844.298	20332
844.435	20176
844.571	20119
844.708	20161
844.844	20362
844.98	20301
845.117	20263
845.253	20073
845.389	20027
845.525	20145
845.661	20157
845.798	20020
845.934	20012
846.07	20043
846.206	20012
846.342	20088
846.478	19841
846.614	19814
846.75	19738
846.886	19567
847.022	19666
847.158	19647
847.294	19609
847.429	19658
847.565	19605
847.701	19833
847.837	19301
847.972	19343
848.108	19491
848.244	19438
848.379	19244
848.515	19194
848.65	19156
848.786	19266
848.921	19324
849.057	19255
849.192	19221
849.328	19221
849.463	19072
849.598	19088
849.734	19004
849.869	19110
850.004	18943
850.14	18901
850.275	18947
850.41	18852
850.545	18920
850.68	18875
850.815	18913
850.95	18989
851.085	19236
851.22	18977
851.355	19061
851.49	18810
851.625	18913
851.76	18768
851.895	18661
852.03	18757
852.165	18886
852.299	18920
852.434	18886
852.569	18886
852.703	18882
852.838	18894
852.973	19110
853.107	19065
853.242	18829
853.376	18814
853.511	18635
853.645	18791
853.78	18924
853.914	18783
854.048	18726
854.183	18631
854.317	18719
854.451	18859
854.585	18650
854.72	18642
854.854	18719
854.988	18696
855.122	18639
855.256	18589
855.39	18658
855.524	18806
855.658	18810
855.792	18798
855.926	18707
856.06	18856
856.194	18760
856.327	18593
856.461	18639
856.595	18764
856.729	18582
856.862	18779
856.996	18730
857.13	18817
857.263	18837
857.397	18802
857.53	18639
857.664	18757
857.797	18673
857.931	18791
858.064	18722
858.197	18734
858.331	18650
858.464	18745
858.597	18494
858.731	18722
858.864	18745
858.997	18684
859.13	18661
859.263	18612
859.396	18757
859.529	18612
859.662	18635
859.795	18570
859.928	18627
860.061	18825
860.194	18745
860.327	18760
860.46	18806
860.592	18810
860.725	18738
860.858	18741
860.99	18521
861.123	18517
861.256	18460
861.388	18623
861.521	19346
861.653	18589
861.786	18509
861.918	18464
862.05	18658
862.183	18715
862.315	18513
862.447	18817
862.58	18700
862.712	18365
862.844	18399
862.976	18418
863.108	18597
863.24	18719
863.372	18251
863.504	18460
863.636	18334
863.768	18361
863.9	18414
864.032	18308
864.164	18380
864.296	18422
864.428	18380
864.559	18327
864.691	18407
864.823	18429
864.954	18395
865.086	18319
865.217	18239
865.349	18235
865.48	18330
865.612	18266
865.743	18380
865.875	18365
866.006	18178
866.137	18213
866.269	18323
866.4	18319
866.531	18304
866.662	18270
866.793	18224
866.924	18235
867.055	18201
867.186	18273
867.317	18186
867.448	18083
867.579	18243
867.71	18019
867.841	18110
867.972	18167
868.103	18251
868.233	18251
868.364	18194
868.495	18247
868.625	18460
868.756	18597
868.886	18235
869.017	18486
869.147	18551
869.278	18669
869.408	18445
869.539	18399
869.669	18452
869.799	18498
869.929	18494
870.06	18494
870.19	18764
870.32	18734
870.45	18768
870.58	18829
870.71	19050
870.84	19050
870.97	18878
871.1	18863
871.23	18935
871.36	19088
871.489	18993
871.619	18993
871.749	19110
871.879	19072
872.008	19232
872.138	19126
872.267	19050
872.397	18973
872.526	18924
872.656	18894
872.785	18882
872.915	19042
873.044	19091
873.173	18958
873.303	19160
873.432	19065
873.561	19221
873.69	19084
873.819	19061
873.948	19198
874.077	19095
874.206	19069
874.335	19008
874.464	19225
874.593	19316
874.722	19209
874.851	19388
874.979	19362
875.108	19426
875.237	19331
875.365	19129
875.494	19449
875.623	19438
875.751	19449
875.88	19278
876.008	19529
876.136	19624
876.265	19742
876.393	19837
876.521	19852
876.65	19833
876.778	19837
876.906	19750
877.034	19750
877.162	19708
877.29	19658
877.418	19837
877.546	19803
877.674	19704
877.802	19734
877.93	19712
878.058	19742
878.185	19670
878.313	19582
878.441	19738
878.568	19533
878.696	19586
878.824	19731
878.951	19860
879.079	19982
879.206	20069
879.333	19974
879.461	19898
879.588	19959
879.715	19902
879.842	20142
879.97	19856
880.097	19643
880.224	19502
880.351	19723
880.478	19674
880.605	19582
880.732	19556
880.859	19887
880.986	19639
881.112	19693
881.239	19472
881.366	19346
881.493	19263
881.619	19236
881.746	19278
881.872	19209
881.999	19217
882.125	19148
882.252	19327
882.378	19225
882.505	19381
882.631	19114
882.757	19004
882.883	19034
883.01	18954
883.136	18943
883.262	18894
883.388	18700
883.514	18973
883.64	19027
883.766	18878
883.892	18897
884.018	18787
884.143	18909
884.269	19042
884.395	18806
884.52	18741
884.646	18589
884.772	18544
884.897	18441
885.023	18566
885.148	18783
885.274	18825
885.399	18840
885.524	18616
885.65	18688
885.775	18597
885.9	18582
886.025	18821
886.15	18707
886.275	18574
886.4	18506
886.525	18597
886.65	18532
886.775	18620
886.9	18707
887.025	18817
887.149	18559
887.274	18399
887.399	18338
887.523	18380
887.648	18300
887.773	18289
887.897	18410
888.021	18426
888.146	18296
888.27	18475
888.395	18426
888.519	18384
888.643	18422
888.767	18426
888.891	18258
889.015	18235
889.139	18178
889.263	18239
889.387	18369
889.511	18460
889.635	18361
889.759	18003
889.883	18159
890.006	18194
890.13	18403
890.254	18190
890.377	18163
890.501	17916
890.624	17866
890.748	18038
890.871	17840
890.995	17756
891.118	17783
891.241	17916
891.364	17916
891.488	17969
891.611	17817
891.734	17752
891.857	17779
891.98	17863
892.103	17904
892.226	17878
892.349	17676
892.471	17596
892.594	17832
892.717	17817
892.839	17756
892.962	17790
893.085	17878
893.207	17729
893.33	17687
893.452	17710
893.575	17821
893.697	17843
893.819	17863
893.941	17878
894.064	17802
894.186	17771
894.308	17722
894.43	17866
894.552	17935
894.674	17775
894.796	17695
894.918	17657
895.04	17729
895.161	17882
895.283	17843
895.405	17802
895.526	17863
895.648	17718
895.769	17707
895.891	17832
896.012	17935
896.134	17931
896.255	17821
896.376	17847
896.498	17908
896.619	17813
896.74	17840
896.861	17821
896.982	18205
897.103	18353
897.224	18152
897.345	18034
897.466	18060
897.587	18057
897.708	18186
897.828	18114
897.949	18159
898.07	17901
898.19	17946
898.311	18125
898.431	18076
898.552	17984
898.672	18068
898.792	18224
898.913	18095
899.033	17893
899.153	17885
899.273	17703
899.393	17847
899.513	17828
899.633	17786
899.753	17764
899.873	17843
899.993	17821
900.113	17798
900.232	17794
900.352	17794
900.472	17737
900.591	17676
900.711	17668
900.83	17562
900.95	17703
901.069	17714
901.189	17680
901.308	17459
901.427	17398
901.546	17292
901.665	17383
901.784	17280
901.904	17208
902.023	17098
902.141	16911
902.26	16771
902.379	16889
902.498	16877
902.617	16763
902.735	16831
902.854	16645
902.973	16744
903.091	16527
903.21	16470
903.328	16417
903.446	16272
903.565	16394
903.683	16303
903.801	16162
903.919	16272
904.038	16280
904.156	16074
904.274	16177
904.392	16059
904.51	16074
904.627	16051
904.745	16287
904.863	16025
904.981	15884
905.098	15743
905.216	15831
905.334	15823
905.451	15789
905.569	15759
905.686	15781
905.803	15694
905.921	15542
906.038	15603
906.155	15629
906.272	15488
906.389	15462
906.506	15359
906.623	15344
906.74	15348
906.857	15180
906.974	15207
907.091	15310
907.208	15370
907.324	15439
907.441	15146
907.557	15066
907.674	15058
907.79	15051
907.907	14929
908.023	15066
908.139	14982
908.256	14895
908.372	14857
908.488	14986
908.604	14857
908.72	14682
908.836	14819
908.952	14674
909.068	14727
909.184	14796
909.3	14701
909.415	14754
909.531	14720
909.647	14492
909.762	14499
909.878	14336
909.993	14488
910.108	14434
910.224	14358
910.339	14385
910.454	14267
910.57	14248
910.685	14149
910.8	14499
910.915	14438
911.03	14275
911.145	14058
911.259	14107
911.374	14077
911.489	14001
911.604	13944
911.718	13784
911.833	13864
911.947	13662
912.062	13636
912.176	13849
912.291	13757
912.405	13822
912.519	13921
912.633	13959
912.748	13814
912.862	13799
912.976	13632
913.09	13514
913.204	13613
913.318	13731
913.431	13742
913.545	13723
913.659	13765
913.772	13651
913.886	13552
914	13400
914.113	13597
914.226	13658
914.34	13556
914.453	13388
914.566	13521
914.68	13415
914.793	13396
914.906	13190
915.019	13175
915.132	13114
915.245	13088
915.358	13221
915.47	13228
915.583	13228
915.696	13107
915.809	13213
915.921	13335
916.034	13114
916.146	13046
916.259	13004
916.371	13160
916.483	13088
916.595	12993
916.708	13012
916.82	13107
916.932	12962
917.044	12947
917.156	12924
917.268	12867
917.38	12905
917.491	12848
917.603	12844
917.715	12935
917.826	12897
917.938	12776
918.049	12745
918.161	12840
918.272	13023
918.384	12886
918.495	12802
918.606	12635
918.717	12677
918.828	12703
918.939	12696
919.05	12544
919.161	12585
919.272	12372
919.383	12597
919.494	12620
919.604	12859
919.715	12726
919.826	12608
919.936	12631
920.047	12677
920.157	12650
920.267	12875
920.378	12627
920.488	12555
920.598	12856
920.708	12916
920.818	12757
920.928	12779
921.038	12958
921.148	12817
921.258	12612
921.368	12612
921.477	12452
921.587	12388
921.697	12232
921.806	12369
921.916	12224
922.025	12197
922.134	12140
922.244	12045
922.353	12087
922.462	11908
922.571	11920
922.68	11737
922.789	11684
922.898	11802
923.007	11726
923.116	11688
923.224	11680
923.333	11646
923.442	11539
923.55	11505
923.659	11634
923.767	11718
923.876	11509
923.984	11558
924.092	11528
924.201	11532
924.309	11486
924.417	11558
924.525	11417
924.633	11421
924.741	12216
924.849	11360
924.956	11414
925.064	11204
925.172	11197
925.279	11162
925.387	11330
925.494	11231
925.602	11417
925.709	11292
925.816	11178
925.924	11235
926.031	11368
926.138	11223
926.245	11265
926.352	11143
926.459	11277
926.566	11284
926.673	11151
926.779	11086
926.886	10995
926.993	10881
927.099	10911
927.206	10767
927.312	10748
927.419	10915
927.525	10797
927.631	10835
927.737	10805
927.843	10736
927.95	10641
928.056	10755
928.162	10717
928.267	10759
928.373	11452
928.479	10786
928.585	10508
928.69	10759
928.796	10664
928.901	10630
929.007	10470
929.112	10584
929.218	10577
929.323	10584
929.428	10432
929.533	10599
929.638	10424
929.743	10481
929.848	10508
929.953	10386
930.058	10291
930.163	10207
930.267	10215
930.372	10265
930.477	10078
930.581	10360
930.685	10257
930.79	10017
930.894	10112
930.998	10093
931.103	10181
931.207	9873
931.311	9789
931.415	9732
931.519	9584
931.623	9477
