Data from test_V78500241_3045.txt Node
Date: Fri Mar 25 14:54:55 CST 2022
User: usil
Spectrometer: V785-0024
Trigger mode: 0
Integration Time (sec): 4.000000E-1
Scans to average: 1
Nonlinearity correction enabled: false
Boxcar width: 0
Storing dark spectrum: false
XAxis mode: Wavelengths
Number of Pixels in Spectrum: 1024
>>>>>Begin Spectral Data<<<<<
801.071	22135
801.214	22017
801.356	21751
801.499	21660
801.641	21477
801.783	21473
801.926	21431
802.068	21424
802.211	21374
802.353	21245
802.496	21028
802.638	21043
802.78	20982
802.923	20918
803.065	20746
803.208	20804
803.35	20842
803.492	20883
803.635	20883
803.777	20792
803.919	20963
804.061	21127
804.204	20895
804.346	20792
804.488	20689
804.63	20933
804.773	20655
804.915	20800
805.057	20861
805.199	20564
805.341	20716
805.483	20727
805.626	20697
805.768	20648
805.91	20746
806.052	20724
806.194	20655
806.336	20880
806.478	20765
806.62	20743
806.762	20750
806.904	20891
807.046	21214
807.188	21009
807.33	21028
807.472	21089
807.614	20864
807.756	20937
807.898	20891
808.04	20838
808.182	20830
808.324	20746
808.465	20853
808.607	21039
808.749	21066
808.891	21203
809.033	21310
809.174	21112
809.316	21043
809.458	21157
809.6	20994
809.741	21199
809.883	21138
810.025	21195
810.166	21218
810.308	21226
810.45	21329
810.591	21055
810.733	20948
810.875	20921
811.016	20845
811.158	20819
811.299	21020
811.441	20956
811.582	20979
811.724	20804
811.865	20880
812.007	20838
812.148	20830
812.29	20876
812.431	21077
812.573	21085
812.714	21268
812.855	21370
812.997	21424
813.138	21629
813.279	21515
813.421	21424
813.562	21184
813.703	20960
813.845	21093
813.986	20689
814.127	20587
814.268	20431
814.41	20511
814.551	20423
814.692	20568
814.833	20358
814.974	20473
815.115	20393
815.256	20324
815.397	20298
815.539	20214
815.68	20229
815.821	20027
815.962	20298
816.103	20065
816.244	19925
816.385	19963
816.526	19803
816.666	19681
816.807	19556
816.948	19643
817.089	19616
817.23	19552
817.371	19605
817.512	19510
817.653	19552
817.793	19426
817.934	19537
818.075	19529
818.216	19601
818.356	19400
818.497	19403
818.638	19202
818.778	19175
818.919	19221
819.06	19293
819.2	19384
819.341	19434
819.481	19483
819.622	19529
819.762	19742
819.903	19544
820.043	19502
820.184	19578
820.324	19518
820.465	19514
820.605	19487
820.746	19533
820.886	19335
821.026	19544
821.167	19518
821.307	19491
821.447	19514
821.588	19335
821.728	19118
821.868	18996
822.008	18894
822.149	18939
822.289	18871
822.429	18589
822.569	18574
822.709	18734
822.849	18403
822.99	18369
823.13	18330
823.27	18357
823.41	18296
823.55	18121
823.69	18247
823.83	18254
823.97	18019
824.11	17999
824.25	18041
824.389	17904
824.529	17984
824.669	17980
824.809	18011
824.949	18121
825.089	18095
825.228	17916
825.368	17794
825.508	17794
825.648	17748
825.787	17805
825.927	17874
826.067	17699
826.206	17760
826.346	17851
826.485	17798
826.625	17707
826.765	17828
826.904	17714
827.044	17581
827.183	17414
827.323	17440
827.462	17493
827.601	17455
827.741	17414
827.88	17402
828.02	17353
828.159	17330
828.298	17596
828.437	17581
828.577	17284
828.716	17535
828.855	17383
828.994	17239
829.134	17212
829.273	17231
829.412	17037
829.551	17128
829.69	17178
829.829	17212
829.968	17326
830.107	17269
830.246	17216
830.385	17261
830.524	17052
830.663	17014
830.802	16881
830.941	16782
831.08	16805
831.219	16809
831.357	16889
831.496	16949
831.635	16782
831.774	16641
831.913	16752
832.051	16660
832.19	16679
832.329	16546
832.467	16405
832.606	16402
832.744	16402
832.883	16523
833.022	16493
833.16	16611
833.299	16474
833.437	16558
833.576	16550
833.714	16599
833.852	16542
833.991	16569
834.129	16535
834.267	16599
834.406	16367
834.544	16565
834.682	16542
834.821	16508
834.959	16752
835.097	16538
835.235	16550
835.373	16542
835.511	16527
835.65	16398
835.788	16402
835.926	16295
836.064	16242
836.202	16303
836.34	16485
836.478	16531
836.615	16478
836.753	16527
836.891	16500
837.029	16440
837.167	16436
837.305	16382
837.443	16272
837.58	16371
837.718	16405
837.856	16265
837.993	16253
838.131	16344
838.269	16223
838.406	16131
838.544	16192
838.681	16086
838.819	16044
838.956	15812
839.094	15816
839.231	15899
839.369	15945
839.506	16188
839.643	16078
839.781	15816
839.918	15667
840.055	15816
840.193	15800
840.33	15789
840.467	15759
840.604	15888
840.742	16029
840.879	15724
841.016	15694
841.153	15713
841.29	15884
841.427	15869
841.564	15842
841.701	15770
841.838	15701
841.975	15690
842.112	15690
842.249	15713
842.385	15477
842.522	15732
842.659	15618
842.796	15656
842.933	15599
843.069	15549
843.206	15515
843.343	15641
843.479	15599
843.616	15580
843.752	15458
843.889	15412
844.025	15462
844.162	15416
844.298	15424
844.435	15374
844.571	15519
844.708	15370
844.844	15523
844.98	15580
845.117	15485
845.253	15233
845.389	15317
845.525	15408
845.661	15268
845.798	15032
845.934	15260
846.07	15154
846.206	15222
846.342	15291
846.478	15165
846.614	14883
846.75	14906
846.886	14868
847.022	15089
847.158	15051
847.294	14967
847.429	14982
847.565	14861
847.701	15211
847.837	14815
847.972	14625
848.108	14785
848.244	14739
848.379	14587
848.515	14507
848.65	14480
848.786	14651
848.921	14598
849.057	14564
849.192	14590
849.328	14568
849.463	14556
849.598	14518
849.734	14492
849.869	14362
850.004	14374
850.14	14423
850.275	14419
850.41	14317
850.545	14256
850.68	14305
850.815	14396
850.95	14271
851.085	14530
851.22	14404
851.355	14278
851.49	14290
851.625	14180
851.76	14229
851.895	14161
852.03	14183
852.165	14278
852.299	14339
852.434	14374
852.569	14355
852.703	14305
852.838	14385
852.973	14465
853.107	14450
853.242	14294
853.376	14244
853.511	14016
853.645	14138
853.78	14358
853.914	14229
854.048	14153
854.183	14138
854.317	14161
854.451	14370
854.585	14202
854.72	14214
854.854	14305
854.988	14100
855.122	14240
855.256	14008
855.39	14111
855.524	14263
855.658	14195
855.792	14263
855.926	14202
856.06	14317
856.194	14263
856.327	14191
856.461	14100
856.595	14126
856.729	14176
856.862	14343
856.996	14225
857.13	14206
857.263	14290
857.397	14358
857.53	14145
857.664	14286
857.797	14271
857.931	14233
858.064	14294
858.197	14202
858.331	14259
858.464	14172
858.597	13963
858.731	14123
858.864	14214
858.997	14172
859.13	14252
859.263	14153
859.396	14252
859.529	14130
859.662	14123
859.795	14195
859.928	14199
860.061	14317
860.194	14328
860.327	14199
860.46	14161
860.592	14339
860.725	14332
860.858	14351
860.99	14115
861.123	14123
861.256	14168
861.388	14195
861.521	14925
861.653	14077
861.786	14035
861.918	14138
862.05	14180
862.183	14111
862.315	14164
862.447	14202
862.58	14111
862.712	13978
862.844	13913
862.976	14027
863.108	14012
863.24	14199
863.372	13909
863.504	14005
863.636	13986
863.768	14065
863.9	13947
864.032	13925
864.164	13940
864.296	14012
864.428	14081
864.559	14039
864.691	14035
864.823	13887
864.954	13955
865.086	13951
865.217	13887
865.349	13864
865.48	13951
865.612	14008
865.743	14134
865.875	13951
866.006	13833
866.137	13947
866.269	13944
866.4	13898
866.531	13887
866.662	13833
866.793	13909
866.924	13856
867.055	13967
867.186	13955
867.317	13887
867.448	13837
867.579	13932
867.71	13795
867.841	13890
867.972	13974
868.103	13955
868.233	13974
868.364	13879
868.495	13978
868.625	14180
868.756	14298
868.886	14126
869.017	14214
869.147	14263
869.278	14278
869.408	14267
869.539	14191
869.669	14252
869.799	14248
869.929	14286
870.06	14332
870.19	14434
870.32	14488
870.45	14533
870.58	14667
870.71	14644
870.84	14640
870.97	14610
871.1	14564
871.23	14807
871.36	14815
871.489	14705
871.619	14697
871.749	14819
871.879	14830
872.008	14929
872.138	14861
872.267	14693
872.397	14644
872.526	14526
872.656	14621
872.785	14621
872.915	14800
873.044	14853
873.173	14792
873.303	14914
873.432	14979
873.561	14933
873.69	14864
873.819	14796
873.948	14849
874.077	14861
874.206	14777
874.335	14872
874.464	15001
874.593	15184
874.722	15043
874.851	15291
874.979	15165
875.108	15252
875.237	15100
875.365	15135
875.494	15184
875.623	15241
875.751	15138
875.88	15138
876.008	15355
876.136	15359
876.265	15523
876.393	15751
876.521	15641
876.65	15587
876.778	15591
876.906	15545
877.034	15549
877.162	15564
877.29	15587
877.418	15435
877.546	15667
877.674	15648
877.802	15599
877.93	15618
878.058	15534
878.185	15500
878.313	15576
878.441	15622
878.568	15454
878.696	15534
878.824	15614
878.951	15610
879.079	15755
879.206	15869
879.333	15671
879.461	15633
879.588	15671
879.715	15770
879.842	15934
879.97	15713
880.097	15412
880.224	15363
880.351	15481
880.478	15428
880.605	15378
880.732	15477
880.859	15618
880.986	15435
881.112	15519
881.239	15317
881.366	15165
881.493	15081
881.619	15131
881.746	15085
881.872	15028
881.999	15116
882.125	15013
882.252	15161
882.378	15119
882.505	15272
882.631	15047
882.757	14986
882.883	14994
883.01	14952
883.136	14842
883.262	14796
883.388	14727
883.514	14925
883.64	14921
883.766	14891
883.892	14701
884.018	14800
884.143	14994
884.269	15028
884.395	14583
884.52	14598
884.646	14670
884.772	14579
884.897	14541
885.023	14575
885.148	14724
885.274	14834
885.399	14750
885.524	14541
885.65	14682
885.775	14602
885.9	14667
886.025	14746
886.15	14724
886.275	14583
886.4	14511
886.525	14583
886.65	14549
886.775	14594
886.9	14724
887.025	14830
887.149	14659
887.274	14465
887.399	14495
887.523	14404
887.648	14275
887.773	14332
887.897	14530
888.021	14552
888.146	14473
888.27	14579
888.395	14537
888.519	14454
888.643	14476
888.767	14579
888.891	14434
889.015	14305
889.139	14313
889.263	14210
889.387	14393
889.511	14583
889.635	14396
889.759	14225
889.883	14362
890.006	14282
890.13	14415
890.254	14290
890.377	14229
890.501	14069
890.624	14126
890.748	14221
890.871	14172
890.995	13898
891.118	14077
891.241	13993
891.364	13936
891.488	14096
891.611	13925
891.734	13993
891.857	14020
891.98	14016
892.103	14077
892.226	14012
892.349	13978
892.471	13871
892.594	14039
892.717	13963
892.839	13997
892.962	13986
893.085	14050
893.207	14008
893.33	13906
893.452	13989
893.575	14100
893.697	13883
893.819	14229
893.941	14229
894.064	14149
894.186	13951
894.308	14024
894.43	14164
894.552	14221
894.674	14187
894.796	14096
894.918	14096
895.04	14054
895.161	14256
895.283	14168
895.405	14081
895.526	14100
895.648	14180
895.769	14161
895.891	14153
896.012	14298
896.134	14088
896.255	14168
896.376	14130
896.498	14164
896.619	14206
896.74	14278
896.861	14298
896.982	14549
897.103	14686
897.224	14442
897.345	14568
897.466	14362
897.587	14533
897.708	14526
897.828	14419
897.949	14450
898.07	14336
898.19	14374
898.311	14590
898.431	14511
898.552	14610
898.672	14625
898.792	14571
898.913	14602
899.033	14480
899.153	14427
899.273	14240
899.393	14393
899.513	14469
899.633	14412
899.753	14385
899.873	14355
899.993	14530
900.113	14263
900.232	14415
900.352	14457
900.472	14305
900.591	14180
900.711	14309
900.83	14229
900.95	14355
901.069	14385
901.189	14259
901.308	13955
901.427	13959
901.546	13913
901.665	14008
901.784	13967
901.904	13928
902.023	13811
902.141	13548
902.26	13453
902.379	13571
902.498	13609
902.617	13525
902.735	13616
902.854	13453
902.973	13438
903.091	13308
903.21	13221
903.328	13168
903.446	13194
903.565	13107
903.683	13072
903.801	12977
903.919	13046
904.038	13099
904.156	12894
904.274	12932
904.392	12954
904.51	12901
904.627	12916
904.745	12989
904.863	12905
904.981	12620
905.098	12612
905.216	12650
905.334	12608
905.451	12582
905.569	12551
905.686	12662
905.803	12601
905.921	12407
906.038	12479
906.155	12490
906.272	12429
906.389	12285
906.506	12205
906.623	12144
906.74	12167
906.857	12049
906.974	12019
907.091	12175
907.208	12232
907.324	12216
907.441	12144
907.557	11958
907.674	11893
907.79	11748
907.907	11889
908.023	12011
908.139	11908
908.256	11916
908.372	11821
908.488	11878
908.604	11653
908.72	11642
908.836	11627
908.952	11665
909.068	11661
909.184	11737
909.3	11710
909.415	11710
909.531	11691
909.647	11539
909.762	11433
909.878	11493
909.993	11501
910.108	11505
910.224	11433
910.339	11444
910.454	11387
910.57	11273
910.685	11330
910.8	11589
910.915	11474
911.03	11326
911.145	11136
911.259	11189
911.374	11064
911.489	11090
911.604	11071
911.718	10946
911.833	10915
911.947	10767
912.062	10698
912.176	10957
912.291	10919
912.405	10873
912.519	11162
912.633	11060
912.748	10965
912.862	10946
912.976	10805
913.09	10656
913.204	10786
913.318	10831
913.431	10953
913.545	10858
913.659	10892
913.772	10763
913.886	10698
914	10702
914.113	10733
914.226	10824
914.34	10740
914.453	10592
914.566	10759
914.68	10626
914.793	10649
914.906	10363
915.019	10466
915.132	10310
915.245	10367
915.358	10440
915.47	10497
915.583	10375
915.696	10516
915.809	10584
915.921	10554
916.034	10459
916.146	10341
916.259	10348
916.371	10485
916.483	10462
916.595	10337
916.708	10314
916.82	10447
916.932	10253
917.044	10379
917.156	10375
917.268	10257
917.38	10272
917.491	10242
917.603	10310
917.715	10379
917.826	10356
917.938	10287
918.049	10177
918.161	10284
918.272	10337
918.384	10451
918.495	10322
918.606	10128
918.717	10067
918.828	10158
918.939	10188
919.05	10006
919.161	10116
919.272	9953
919.383	10040
919.494	10147
919.604	10356
919.715	10116
919.826	9979
919.936	10055
920.047	10169
920.157	10128
920.267	10337
920.378	10192
920.488	10120
920.598	10333
920.708	10500
920.818	10390
920.928	10405
921.038	10523
921.148	10455
921.258	10291
921.368	10112
921.477	10013
921.587	10021
921.697	9869
921.806	10029
921.916	9903
922.025	9781
922.134	9724
922.244	9648
922.353	9770
922.462	9580
922.571	9504
922.68	9351
922.789	9370
922.898	9435
923.007	9332
923.116	9488
923.224	9466
923.333	9382
923.442	9313
923.55	9264
923.659	9313
923.767	9408
923.876	9222
923.984	9420
924.092	9306
924.201	9279
924.309	9249
924.417	9264
924.525	9264
924.633	9199
924.741	10143
924.849	9169
924.956	9272
925.064	9043
925.172	8948
925.279	9043
925.387	9104
925.494	9009
925.602	9207
925.709	9157
925.816	9005
925.924	9036
926.031	9142
926.138	9077
926.245	9070
926.352	9062
926.459	9119
926.566	9173
926.673	9062
926.779	8952
926.886	8914
926.993	8792
927.099	8796
927.206	8724
927.312	8758
927.419	8853
927.525	8796
927.631	8785
927.737	8689
927.843	8651
927.95	8564
928.056	8632
928.162	8758
928.267	8785
928.373	9272
928.479	8769
928.585	8549
928.69	8686
928.796	8739
928.901	8575
929.007	8454
929.112	8579
929.218	8575
929.323	8503
929.428	8484
929.533	8659
929.638	8454
929.743	8492
929.848	8549
929.953	8575
930.058	8400
930.163	8244
930.267	8244
930.372	8400
930.477	8233
930.581	8568
930.685	8377
930.79	8180
930.894	8313
930.998	8210
931.103	8328
931.207	8001
931.311	7974
931.415	7947
931.519	7731
931.623	7712
