Data from test_V78500241_712.txt Node
Date: Fri Mar 25 14:38:40 CST 2022
User: usil
Spectrometer: V785-0024
Trigger mode: 0
Integration Time (sec): 4.000000E-1
Scans to average: 1
Nonlinearity correction enabled: false
Boxcar width: 0
Storing dark spectrum: false
XAxis mode: Wavelengths
Number of Pixels in Spectrum: 1024
>>>>>Begin Spectral Data<<<<<
801.071	27793
801.214	27610
801.356	27310
801.499	27176
801.641	27146
801.783	26990
801.926	27123
802.068	26944
802.211	26971
802.353	26765
802.496	26602
802.638	26415
802.78	26552
802.923	26526
803.065	26347
803.208	26606
803.35	26495
803.492	26670
803.635	26693
803.777	26613
803.919	26571
804.061	27070
804.204	26663
804.346	26697
804.488	26583
804.63	26739
804.773	26701
804.915	26834
805.057	26921
805.199	26986
805.341	27013
805.483	27226
805.626	27256
805.768	27237
805.91	27401
806.052	27534
806.194	27622
806.336	28029
806.478	28021
806.62	28097
806.762	28462
806.904	28885
807.046	29395
807.188	29695
807.33	30190
807.472	30901
807.614	31285
807.756	32309
807.898	33443
808.04	34961
808.182	37008
808.324	39755
808.465	42802
808.607	45956
808.749	49118
808.891	50773
809.033	50963
809.174	49316
809.316	46432
809.458	42962
809.6	39355
809.741	36814
809.883	34390
810.025	32971
810.166	31856
810.308	31050
810.45	30285
810.591	29889
810.733	29193
810.875	28862
811.016	28436
811.158	28295
811.299	28356
811.441	28105
811.582	27949
811.724	27762
811.865	27572
812.007	27526
812.148	27549
812.29	27454
812.431	27511
812.573	27443
812.714	27583
812.855	27667
812.997	27660
813.138	27808
813.279	27530
813.421	27622
813.562	27348
813.703	27272
813.845	27036
813.986	26667
814.127	26518
814.268	26434
814.41	26305
814.551	26195
814.692	26446
814.833	26298
814.974	26183
815.115	26195
815.256	26001
815.397	25864
815.539	25826
815.68	25890
815.821	25894
815.962	25723
816.103	25791
816.244	25632
816.385	25506
816.526	25343
816.666	25133
816.807	25171
816.948	25156
817.089	25179
817.23	25088
817.371	25050
817.512	24966
817.653	24977
817.793	25004
817.934	25179
818.075	25095
818.216	24989
818.356	24943
818.497	24935
818.638	24665
818.778	24635
818.919	24631
819.06	24745
819.2	24810
819.341	24913
819.481	24951
819.622	25015
819.762	25187
819.903	25179
820.043	25019
820.184	24859
820.324	24924
820.465	24859
820.605	24897
820.746	24909
820.886	24681
821.026	24966
821.167	24760
821.307	24749
821.447	24798
821.588	24551
821.728	24395
821.868	24197
822.008	24106
822.149	24125
822.289	24087
822.429	23748
822.569	23760
822.709	23649
822.849	23535
822.99	23604
823.13	23516
823.27	23497
823.41	23242
823.55	23170
823.69	23250
823.83	23284
823.97	23280
824.11	23117
824.25	23006
824.389	22976
824.529	23178
824.669	23098
824.809	23037
824.949	22961
825.089	23124
825.228	23204
825.368	22835
825.508	22805
825.648	22908
825.787	22854
825.927	22987
826.067	22816
826.206	22706
826.346	22771
826.485	22930
826.625	22866
826.765	22968
826.904	22915
827.044	22538
827.183	22599
827.323	22360
827.462	22626
827.601	22363
827.741	22557
827.88	22565
828.02	22379
828.159	22409
828.298	22474
828.437	22546
828.577	22470
828.716	22675
828.855	22500
828.994	22166
829.134	22257
829.273	22303
829.412	21979
829.551	22204
829.69	22048
829.829	22192
829.968	22207
830.107	22306
830.246	22017
830.385	22128
830.524	22059
830.663	22051
830.802	21759
830.941	21827
831.08	21747
831.219	21850
831.357	21861
831.496	22013
831.635	21819
831.774	21770
831.913	21751
832.051	21679
832.19	21675
832.329	21736
832.467	21679
832.606	21622
832.744	21583
832.883	21717
833.022	21751
833.16	21842
833.299	22029
833.437	22051
833.576	22219
833.714	22481
833.852	22656
833.991	22710
834.129	22664
834.267	22755
834.406	22759
834.544	22721
834.682	22478
834.821	22417
834.959	22527
835.097	22055
835.235	22059
835.373	22006
835.511	21876
835.65	21644
835.788	21660
835.926	21477
836.064	21317
836.202	21321
836.34	21473
836.478	21397
836.615	21321
836.753	21351
836.891	21378
837.029	21264
837.167	21340
837.305	21104
837.443	21077
837.58	21017
837.718	21332
837.856	21146
837.993	20929
838.131	21039
838.269	21039
838.406	21024
838.544	20944
838.681	20773
838.819	20773
838.956	20552
839.094	20457
839.231	20636
839.369	20708
839.506	20868
839.643	20739
839.781	20689
839.918	20419
840.055	20530
840.193	20590
840.33	20587
840.467	20431
840.604	20575
840.742	20857
840.879	20305
841.016	20427
841.153	20377
841.29	20514
841.427	20522
841.564	20606
841.701	20549
841.838	20476
841.975	20393
842.112	20415
842.249	20370
842.385	20286
842.522	20450
842.659	20362
842.796	20324
842.933	20259
843.069	20237
843.206	20358
843.343	20541
843.479	20446
843.616	20412
843.752	20408
843.889	20393
844.025	20602
844.162	20537
844.298	20731
844.435	20724
844.571	21100
844.708	21241
844.844	21610
844.98	22200
845.117	22873
845.253	23756
845.389	25556
845.525	29303
845.661	35440
845.798	42349
845.934	47630
846.07	49388
846.206	47828
846.342	42886
846.478	35999
846.614	30053
846.75	26210
846.886	23863
847.022	22588
847.158	21690
847.294	21074
847.429	20796
847.565	20400
847.701	20518
847.837	19909
847.972	19750
848.108	19868
848.244	19772
848.379	19575
848.515	19544
848.65	19369
848.786	19438
848.921	19278
849.057	19445
849.192	19350
849.328	19236
849.463	19282
849.598	19240
849.734	19050
849.869	19160
850.004	18962
850.14	19114
850.275	18954
850.41	18943
850.545	18886
850.68	18760
850.815	18905
850.95	18829
851.085	19107
851.22	19084
851.355	18947
851.49	18757
851.625	18882
851.76	18856
851.895	18875
852.03	18871
852.165	18920
852.299	18939
852.434	18962
852.569	18954
852.703	19031
852.838	19053
852.973	19171
853.107	19190
853.242	19046
853.376	18928
853.511	18871
853.645	19015
853.78	19168
853.914	19179
854.048	19076
854.183	19099
854.317	19145
854.451	19331
854.585	19190
854.72	19126
854.854	19263
854.988	18970
855.122	19042
855.256	18825
855.39	18981
855.524	18935
855.658	18928
855.792	18901
855.926	18890
856.06	18890
856.194	18928
856.327	18829
856.461	18696
856.595	18684
856.729	18601
856.862	18867
856.996	18757
857.13	18730
857.263	18848
857.397	18878
857.53	18665
857.664	18817
857.797	18829
857.931	18757
858.064	18669
858.197	18692
858.331	18623
858.464	18692
858.597	18574
858.731	18673
858.864	18555
858.997	18536
859.13	18566
859.263	18620
859.396	18589
859.529	18494
859.662	18566
859.795	18593
859.928	18616
860.061	18665
860.194	18692
860.327	18623
860.46	18574
860.592	18585
860.725	18642
860.858	18692
860.99	18616
861.123	18426
861.256	18498
861.388	18555
861.521	19187
861.653	18338
861.786	18342
861.918	18384
862.05	18464
862.183	18467
862.315	18441
862.447	18578
862.58	18448
862.712	18391
862.844	18197
862.976	18243
863.108	18197
863.24	18665
863.372	18190
863.504	18209
863.636	18220
863.768	18190
863.9	18174
864.032	18125
864.164	18163
864.296	18205
864.428	18357
864.559	18308
864.691	18144
864.823	18277
864.954	18224
865.086	18110
865.217	18125
865.349	18072
865.48	18205
865.612	18152
865.743	18201
865.875	18133
866.006	18155
866.137	18182
866.269	18114
866.4	18121
866.531	18060
866.662	17973
866.793	17942
866.924	18087
867.055	18041
867.186	18174
867.317	18026
867.448	18026
867.579	18102
867.71	18087
867.841	17908
867.972	18155
868.103	18144
868.233	18117
868.364	18178
868.495	18159
868.625	18384
868.756	18456
868.886	18262
869.017	18395
869.147	18544
869.278	18544
869.408	18346
869.539	18357
869.669	18437
869.799	18490
869.929	18456
870.06	18521
870.19	18616
870.32	18745
870.45	18749
870.58	18863
870.71	18859
870.84	18871
870.97	18779
871.1	18810
871.23	19050
871.36	19069
871.489	18844
871.619	19152
871.749	19110
871.879	19179
872.008	19118
872.138	19072
872.267	19042
872.397	18958
872.526	18977
872.656	18966
872.785	19038
872.915	19244
873.044	19343
873.173	19285
873.303	19358
873.432	19324
873.561	19434
873.69	19308
873.819	19320
873.948	19381
874.077	19411
874.206	19301
874.335	19369
874.464	19776
874.593	19845
874.722	19807
874.851	19925
874.979	19879
875.108	19917
875.237	19917
875.365	19871
875.494	19932
875.623	20084
875.751	19887
875.88	20142
876.008	20336
876.136	20389
876.265	20617
876.393	20857
876.521	20941
876.65	20868
876.778	20857
876.906	20864
877.034	21001
877.162	21104
877.29	21119
877.418	21275
877.546	21211
877.674	21386
877.802	21500
877.93	21656
878.058	21778
878.185	21953
878.313	22272
878.441	22702
878.568	22923
878.696	23585
878.824	24593
878.951	25647
879.079	27249
879.206	29143
879.333	31343
879.461	33070
879.588	34112
879.715	34162
879.842	33317
879.97	31487
880.097	29242
880.224	27564
880.351	26423
880.478	25533
880.605	24779
880.732	24517
880.859	24304
880.986	23996
881.112	23882
881.239	23790
881.366	23531
881.493	23436
881.619	23448
881.746	23528
881.872	23471
881.999	23512
882.125	23573
882.252	23745
882.378	23665
882.505	23824
882.631	23703
882.757	23562
882.883	23531
883.01	23528
883.136	23543
883.262	23455
883.388	23318
883.514	23577
883.64	23577
883.766	23395
883.892	23387
884.018	23299
884.143	23459
884.269	23608
884.395	23330
884.52	23292
884.646	23315
884.772	23155
884.897	23227
885.023	23223
885.148	23288
885.274	23330
885.399	23162
885.524	22968
885.65	22869
885.775	22721
885.9	22645
886.025	22596
886.15	22497
886.275	22196
886.4	21911
886.525	21884
886.65	21835
886.775	21507
886.9	21633
887.025	21720
887.149	21348
887.274	21013
887.399	20937
887.523	21028
887.648	20754
887.773	20564
887.897	20697
888.021	20606
888.146	20552
888.27	20511
888.395	20438
888.519	20393
888.643	20267
888.767	20202
888.891	20043
889.015	20081
889.139	19989
889.263	19856
889.387	20012
889.511	20126
889.635	19856
889.759	19700
889.883	19674
890.006	19734
890.13	19700
890.254	19544
890.377	19594
890.501	19411
890.624	19308
890.748	19327
890.871	19126
890.995	19034
891.118	19099
891.241	19065
891.364	19023
891.488	19118
891.611	18852
891.734	18852
891.857	18897
891.98	18852
892.103	18882
892.226	18802
892.349	18696
892.471	18566
892.594	18772
892.717	18597
892.839	18684
892.962	18555
893.085	18612
893.207	18623
893.33	18536
893.452	18270
893.575	18570
893.697	18407
893.819	18494
893.941	18544
894.064	18547
894.186	18315
894.308	18323
894.43	18346
894.552	18445
894.674	18285
894.796	18190
894.918	18152
895.04	18216
895.161	18304
895.283	18292
895.405	18026
895.526	18095
895.648	18171
895.769	18053
895.891	18140
896.012	18365
896.134	18114
896.255	18015
896.376	18022
896.498	18064
896.619	18232
896.74	18087
896.861	18133
896.982	18483
897.103	18517
897.224	18388
897.345	18258
897.466	18152
897.587	18201
897.708	18361
897.828	18262
897.949	18224
898.07	18121
898.19	18239
898.311	18304
898.431	18117
898.552	18186
898.672	18163
898.792	18407
898.913	18292
899.033	18273
899.153	17965
899.273	18003
899.393	18045
899.513	17980
899.633	18076
899.753	18049
899.873	17893
899.993	18007
900.113	18026
900.232	17992
900.352	17954
900.472	17923
900.591	17783
900.711	17771
900.83	17809
900.95	17817
901.069	17885
901.189	17817
901.308	17604
901.427	17474
901.546	17315
901.665	17356
901.784	17497
901.904	17083
902.023	17246
902.141	16896
902.26	16748
902.379	16930
902.498	16885
902.617	16748
902.735	16869
902.854	16835
902.973	16710
903.091	16474
903.21	16398
903.328	16485
903.446	16413
903.565	16291
903.683	16295
903.801	16276
903.919	16082
904.038	16188
904.156	16006
904.274	16059
904.392	15930
904.51	15911
904.627	16059
904.745	16006
904.863	16002
904.981	15797
905.098	15644
905.216	15599
905.334	15595
905.451	15652
905.569	15606
905.686	15766
905.803	15686
905.921	15435
906.038	15504
906.155	15412
906.272	15363
906.389	15336
906.506	15180
906.623	15104
906.74	15108
906.857	14982
906.974	15051
907.091	15306
907.208	15279
907.324	15203
907.441	15058
907.557	14941
907.674	14891
907.79	14834
907.907	14796
908.023	14876
908.139	14876
908.256	14716
908.372	14754
908.488	14826
908.604	14552
908.72	14541
908.836	14632
908.952	14537
909.068	14621
909.184	14659
909.3	14533
909.415	14621
909.531	14625
909.647	14351
909.762	14309
909.878	14286
909.993	14244
910.108	14309
910.224	14161
910.339	14271
910.454	14157
910.57	14142
910.685	13970
910.8	14389
910.915	14317
911.03	14111
911.145	14020
911.259	13959
911.374	13887
911.489	13894
911.604	13852
911.718	13666
911.833	13845
911.947	13582
912.062	13582
912.176	13632
912.291	13639
912.405	13613
912.519	13807
912.633	13902
912.748	13700
912.862	13658
912.976	13556
913.09	13449
913.204	13441
913.318	13575
913.431	13571
913.545	13597
913.659	13712
913.772	13457
913.886	13491
914	13403
914.113	13422
914.226	13407
914.34	13457
914.453	13282
914.566	13464
914.68	13266
914.793	13263
914.906	13160
915.019	13076
915.132	12962
915.245	13095
915.358	13095
915.47	13137
915.583	13129
915.696	13133
915.809	13251
915.921	13236
916.034	13065
916.146	13053
916.259	13004
916.371	13137
916.483	13168
916.595	13027
916.708	13118
916.82	13050
916.932	12989
917.044	13012
917.156	12958
917.268	12764
917.38	12897
917.491	12753
917.603	12764
917.715	12859
917.826	12916
917.938	12741
918.049	12631
918.161	12696
918.272	12909
918.384	12829
918.495	12722
918.606	12604
918.717	12506
918.828	12631
918.939	12616
919.05	12422
919.161	12532
919.272	12357
919.383	12365
919.494	12616
919.604	12760
919.715	12479
919.826	12460
919.936	12494
920.047	12475
920.157	12566
920.267	12726
920.378	12547
920.488	12532
920.598	12745
920.708	12821
920.818	12673
920.928	12703
921.038	12783
921.148	12837
921.258	12559
921.368	12433
921.477	12376
921.587	12346
921.697	12232
921.806	12254
921.916	12186
922.025	12110
922.134	12095
922.244	11916
922.353	11973
922.462	11843
922.571	11718
922.68	11741
922.789	11619
922.898	11600
923.007	11615
923.116	11676
923.224	11665
923.333	11547
923.442	11547
923.55	11421
923.659	11509
923.767	11532
923.876	11478
923.984	11581
924.092	11421
924.201	11436
924.309	11467
924.417	11444
924.525	11368
924.633	11364
924.741	12213
924.849	11132
924.956	11296
925.064	11136
925.172	11124
925.279	11105
925.387	11189
925.494	11075
925.602	11261
925.709	11296
925.816	11037
925.924	11155
926.031	11185
926.138	11204
926.245	11155
926.352	11041
926.459	11201
926.566	11231
926.673	11105
926.779	10942
926.886	10949
926.993	10793
927.099	10873
927.206	10767
927.312	10698
927.419	10850
927.525	10759
927.631	10824
927.737	10683
927.843	10645
927.95	10527
928.056	10634
928.162	10618
928.267	10717
928.373	11201
928.479	10706
928.585	10470
928.69	10611
928.796	10622
928.901	10656
929.007	10386
929.112	10497
929.218	10462
929.323	10424
929.428	10394
929.533	10573
929.638	10371
929.743	10375
929.848	10455
929.953	10421
930.058	10341
930.163	10086
930.267	10169
930.372	10337
930.477	10131
930.581	10398
930.685	10227
930.79	10071
930.894	10120
930.998	9960
931.103	10150
931.207	9857
931.311	9816
931.415	9694
931.519	9496
931.623	9462
