Data from test_V78500241_2651.txt Node
Date: Fri Mar 25 14:52:10 CST 2022
User: usil
Spectrometer: V785-0024
Trigger mode: 0
Integration Time (sec): 4.000000E-1
Scans to average: 1
Nonlinearity correction enabled: false
Boxcar width: 0
Storing dark spectrum: false
XAxis mode: Wavelengths
Number of Pixels in Spectrum: 1024
>>>>>Begin Spectral Data<<<<<
801.071	21899
801.214	21857
801.356	21507
801.499	21450
801.641	21424
801.783	21374
801.926	21435
802.068	21264
802.211	21249
802.353	21245
802.496	20929
802.638	20807
802.78	20853
802.923	20781
803.065	20579
803.208	20712
803.35	20708
803.492	20800
803.635	20864
803.777	20724
803.919	20823
804.061	20960
804.204	20769
804.346	20442
804.488	20514
804.63	20663
804.773	20514
804.915	20560
805.057	20667
805.199	20495
805.341	20651
805.483	20678
805.626	20727
805.768	20625
805.91	20533
806.052	20678
806.194	20575
806.336	20697
806.478	20552
806.62	20488
806.762	20655
806.904	20773
807.046	20975
807.188	21013
807.33	20933
807.472	20910
807.614	20811
807.756	20933
807.898	20629
808.04	20598
808.182	20632
808.324	20629
808.465	20697
808.607	20895
808.749	21081
808.891	21093
809.033	21138
809.174	20979
809.316	20982
809.458	20948
809.6	20788
809.741	21096
809.883	20948
810.025	21085
810.166	21135
810.308	21192
810.45	21066
810.591	21077
810.733	20891
810.875	20693
811.016	20609
811.158	20613
811.299	20777
811.441	20842
811.582	20899
811.724	20754
811.865	20815
812.007	20708
812.148	20708
812.29	20701
812.431	20933
812.573	21001
812.714	21165
812.855	21275
812.997	21203
813.138	21435
813.279	21325
813.421	21195
813.562	21100
813.703	20929
813.845	20906
813.986	20564
814.127	20446
814.268	20404
814.41	20248
814.551	20240
814.692	20400
814.833	20305
814.974	20221
815.115	20301
815.256	20122
815.397	20229
815.539	20058
815.68	20031
815.821	19932
815.962	19967
816.103	19909
816.244	19833
816.385	19852
816.526	19731
816.666	19616
816.807	19487
816.948	19540
817.089	19544
817.23	19396
817.371	19460
817.512	19297
817.653	19312
817.793	19358
817.934	19453
818.075	19468
818.216	19464
818.356	19331
818.497	19225
818.638	19038
818.778	19069
818.919	19133
819.06	19122
819.2	19209
819.341	19312
819.481	19285
819.622	19620
819.762	19712
819.903	19548
820.043	19441
820.184	19384
820.324	19434
820.465	19396
820.605	19388
820.746	19240
820.886	19251
821.026	19346
821.167	19377
821.307	19430
821.447	19350
821.588	19202
821.728	19160
821.868	19008
822.008	18757
822.149	18661
822.289	18844
822.429	18582
822.569	18429
822.709	18509
822.849	18418
822.99	18289
823.13	18239
823.27	18194
823.41	18171
823.55	18049
823.69	18171
823.83	18045
823.97	18053
824.11	17904
824.25	17840
824.389	17996
824.529	17756
824.669	17889
824.809	17935
824.949	17992
825.089	17935
825.228	17878
825.368	17752
825.508	17642
825.648	17722
825.787	17756
825.927	17729
826.067	17554
826.206	17619
826.346	17722
826.485	17619
826.625	17554
826.765	17741
826.904	17676
827.044	17379
827.183	17341
827.323	17337
827.462	17455
827.601	17235
827.741	17402
827.88	17379
828.02	17208
828.159	17197
828.298	17356
828.437	17372
828.577	17231
828.716	17444
828.855	17254
828.994	17117
829.134	16946
829.273	17113
829.412	17109
829.551	16984
829.69	17132
829.829	17147
829.968	17212
830.107	17227
830.246	17064
830.385	16995
830.524	17098
830.663	16968
830.802	16786
830.941	16675
831.08	16649
831.219	16820
831.357	16736
831.496	16980
831.635	16649
831.774	16584
831.913	16592
832.051	16573
832.19	16432
832.329	16687
832.467	16436
832.606	16398
832.744	16367
832.883	16363
833.022	16462
833.16	16382
833.299	16500
833.437	16424
833.576	16462
833.714	16447
833.852	16478
833.991	16599
834.129	16618
834.267	16542
834.406	16436
834.544	16504
834.682	16481
834.821	16504
834.959	16717
835.097	16447
835.235	16550
835.373	16584
835.511	16462
835.65	16451
835.788	16409
835.926	16223
836.064	16215
836.202	16242
836.34	16360
836.478	16451
836.615	16470
836.753	16424
836.891	16466
837.029	16470
837.167	16390
837.305	16333
837.443	16219
837.58	16234
837.718	16375
837.856	16409
837.993	16238
838.131	16333
838.269	16166
838.406	16211
838.544	16188
838.681	15956
838.819	16063
838.956	15739
839.094	15899
839.231	15865
839.369	15979
839.506	16154
839.643	16002
839.781	15964
839.918	15770
840.055	15895
840.193	15838
840.33	15755
840.467	15816
840.604	15892
840.742	16109
840.879	15648
841.016	15755
841.153	15667
841.29	15949
841.427	15759
841.564	15846
841.701	15842
841.838	15728
841.975	15728
842.112	15808
842.249	15644
842.385	15542
842.522	15728
842.659	15576
842.796	15538
842.933	15644
843.069	15542
843.206	15564
843.343	15671
843.479	15644
843.616	15686
843.752	15428
843.889	15332
844.025	15481
844.162	15340
844.298	15519
844.435	15344
844.571	15435
844.708	15462
844.844	15629
844.98	15538
845.117	15488
845.253	15367
845.389	15249
845.525	15447
845.661	15279
845.798	15119
845.934	15203
846.07	15108
846.206	15161
846.342	15287
846.478	15294
846.614	15081
846.75	14914
846.886	14899
847.022	15119
847.158	14857
847.294	15024
847.429	15070
847.565	14956
847.701	15226
847.837	14659
847.972	14724
848.108	14720
848.244	14788
848.379	14663
848.515	14537
848.65	14621
848.786	14602
848.921	14560
849.057	14758
849.192	14606
849.328	14594
849.463	14545
849.598	14556
849.734	14560
849.869	14431
850.004	14370
850.14	14408
850.275	14450
850.41	14305
850.545	14362
850.68	14252
850.815	14355
850.95	14294
851.085	14492
851.22	14427
851.355	14393
851.49	14324
851.625	14313
851.76	14233
851.895	14263
852.03	14248
852.165	14278
852.299	14328
852.434	14396
852.569	14377
852.703	14347
852.838	14389
852.973	14404
853.107	14450
853.242	14385
853.376	14275
853.511	14103
853.645	14199
853.78	14351
853.914	14324
854.048	14210
854.183	14199
854.317	14164
854.451	14393
854.585	14191
854.72	14202
854.854	14271
854.988	14084
855.122	14199
855.256	14077
855.39	14252
855.524	14328
855.658	14278
855.792	14290
855.926	14267
856.06	14324
856.194	14412
856.327	14229
856.461	14214
856.595	14115
856.729	14164
856.862	14263
856.996	14294
857.13	14294
857.263	14328
857.397	14362
857.53	14324
857.664	14286
857.797	14206
857.931	14324
858.064	14305
858.197	14347
858.331	14233
858.464	14233
858.597	14100
858.731	14180
858.864	14199
858.997	14233
859.13	14271
859.263	14195
859.396	14271
859.529	14161
859.662	14183
859.795	14240
859.928	14298
860.061	14377
860.194	14400
860.327	14263
860.46	14164
860.592	14290
860.725	14385
860.858	14263
860.99	14320
861.123	14195
861.256	14168
861.388	14168
861.521	14819
861.653	14111
861.786	14012
861.918	14176
862.05	14062
862.183	14199
862.315	14206
862.447	14305
862.58	14183
862.712	13997
862.844	13997
862.976	14157
863.108	14050
863.24	14457
863.372	13932
863.504	13989
863.636	14050
863.768	13989
863.9	13944
864.032	13909
864.164	13921
864.296	14024
864.428	14081
864.559	14031
864.691	14084
864.823	14050
864.954	14039
865.086	14050
865.217	13898
865.349	13955
865.48	13951
865.612	14008
865.743	14138
865.875	13970
866.006	13936
866.137	13932
866.269	14043
866.4	13955
866.531	14012
866.662	13883
866.793	13925
866.924	13894
867.055	14001
867.186	14035
867.317	13864
867.448	13936
867.579	13944
867.71	13936
867.841	13936
867.972	13982
868.103	13947
868.233	13921
868.364	14005
868.495	14039
868.625	14176
868.756	14301
868.886	14164
869.017	14176
869.147	14328
869.278	14282
869.408	14294
869.539	14275
869.669	14343
869.799	14210
869.929	14317
870.06	14286
870.19	14484
870.32	14590
870.45	14533
870.58	14613
870.71	14693
870.84	14712
870.97	14564
871.1	14488
871.23	14838
871.36	14842
871.489	14765
871.619	14807
871.749	14838
871.879	14883
872.008	15032
872.138	14826
872.267	14807
872.397	14777
872.526	14712
872.656	14731
872.785	14663
872.915	14838
873.044	14971
873.173	14895
873.303	14857
873.432	14952
873.561	14979
873.69	14956
873.819	14944
873.948	15009
874.077	14982
874.206	14796
874.335	14925
874.464	15001
874.593	15119
874.722	15135
874.851	15245
874.979	15203
875.108	15268
875.237	15188
875.365	15188
875.494	15150
875.623	15252
875.751	15062
875.88	15199
876.008	15348
876.136	15466
876.265	15637
876.393	15766
876.521	15629
876.65	15789
876.778	15652
876.906	15515
877.034	15530
877.162	15580
877.29	15515
877.418	15625
877.546	15671
877.674	15648
877.802	15614
877.93	15606
878.058	15530
878.185	15496
878.313	15614
878.441	15637
878.568	15447
878.696	15515
878.824	15713
878.951	15675
879.079	15781
879.206	15915
879.333	15793
879.461	15641
879.588	15736
879.715	15823
879.842	15888
879.97	15679
880.097	15389
880.224	15424
880.351	15591
880.478	15485
880.605	15397
880.732	15393
880.859	15641
880.986	15469
881.112	15500
881.239	15466
881.366	15211
881.493	15188
881.619	15081
881.746	15093
881.872	15180
881.999	15005
882.125	15104
882.252	15104
882.378	15161
882.505	15241
882.631	15081
882.757	14929
882.883	15039
883.01	15043
883.136	14883
883.262	14830
883.388	14804
883.514	14941
883.64	14948
883.766	14800
883.892	14750
884.018	14762
884.143	14963
884.269	15009
884.395	14678
884.52	14659
884.646	14617
884.772	14625
884.897	14526
885.023	14545
885.148	14701
885.274	14765
885.399	14701
885.524	14655
885.65	14758
885.775	14674
885.9	14697
886.025	14921
886.15	14712
886.275	14701
886.4	14613
886.525	14731
886.65	14629
886.775	14640
886.9	14777
887.025	14849
887.149	14640
887.274	14556
887.399	14355
887.523	14404
887.648	14457
887.773	14332
887.897	14522
888.021	14568
888.146	14377
888.27	14663
888.395	14629
888.519	14583
888.643	14495
888.767	14564
888.891	14415
889.015	14374
889.139	14355
889.263	14290
889.387	14560
889.511	14632
889.635	14530
889.759	14282
889.883	14305
890.006	14404
890.13	14450
890.254	14317
890.377	14271
890.501	14214
890.624	14126
890.748	14225
890.871	14046
890.995	13955
891.118	13913
891.241	14020
891.364	14001
891.488	14058
891.611	14092
891.734	14031
891.857	14062
891.98	14012
892.103	14073
892.226	14130
892.349	14012
892.471	13898
892.594	13970
892.717	14088
892.839	14145
892.962	14134
893.085	14058
893.207	14035
893.33	13913
893.452	13951
893.575	14039
893.697	14012
893.819	14282
893.941	14339
894.064	14210
894.186	14001
894.308	14024
894.43	14240
894.552	14183
894.674	14210
894.796	14016
894.918	14054
895.04	14115
895.161	14240
895.283	14199
895.405	14149
895.526	14138
895.648	14161
895.769	14138
895.891	14221
896.012	14263
896.134	14256
896.255	14294
896.376	14206
896.498	14180
896.619	14282
896.74	14263
896.861	14218
896.982	14564
897.103	14648
897.224	14537
897.345	14492
897.466	14366
897.587	14442
897.708	14625
897.828	14560
897.949	14377
898.07	14339
898.19	14454
898.311	14575
898.431	14457
898.552	14537
898.672	14640
898.792	14663
898.913	14583
899.033	14537
899.153	14419
899.273	14320
899.393	14389
899.513	14419
899.633	14511
899.753	14396
899.873	14419
899.993	14533
900.113	14469
900.232	14495
900.352	14434
900.472	14324
900.591	14214
900.711	14305
900.83	14244
900.95	14419
901.069	14461
901.189	14195
901.308	13940
901.427	13978
901.546	13967
901.665	14001
901.784	13967
901.904	13852
902.023	13662
902.141	13609
902.26	13586
902.379	13658
902.498	13487
902.617	13384
902.735	13518
902.854	13460
902.973	13483
903.091	13198
903.21	13278
903.328	13274
903.446	13171
903.565	13080
903.683	13168
903.801	13019
903.919	13084
904.038	13107
904.156	12947
904.274	12943
904.392	12890
904.51	12852
904.627	12901
904.745	13004
904.863	13000
904.981	12814
905.098	12536
905.216	12521
905.334	12627
905.451	12639
905.569	12650
905.686	12684
905.803	12551
905.921	12471
906.038	12589
906.155	12464
906.272	12296
906.389	12369
906.506	12224
906.623	12186
906.74	12224
906.857	12068
906.974	12114
907.091	12327
907.208	12334
907.324	12209
907.441	12102
907.557	11942
907.674	11927
907.79	11832
907.907	11958
908.023	11999
908.139	11920
908.256	11977
908.372	11828
908.488	11870
908.604	11783
908.72	11722
908.836	11604
908.952	11718
909.068	11695
909.184	11752
909.3	11748
909.415	11688
909.531	11802
909.647	11490
909.762	11459
909.878	11448
909.993	11566
910.108	11535
910.224	11455
910.339	11497
910.454	11444
910.57	11368
910.685	11216
910.8	11535
910.915	11512
911.03	11360
911.145	11178
911.259	11170
911.374	11174
911.489	11117
911.604	11083
911.718	10942
911.833	11079
911.947	10835
912.062	10858
912.176	10889
912.291	10904
912.405	10915
912.519	11147
912.633	11159
912.748	11041
912.862	10995
912.976	10911
913.09	10626
913.204	10710
913.318	10820
913.431	10850
913.545	10938
913.659	10957
913.772	10805
913.886	10778
914	10691
914.113	10809
914.226	10835
914.34	10816
914.453	10615
914.566	10771
914.68	10706
914.793	10672
914.906	10432
915.019	10470
915.132	10295
915.245	10516
915.358	10481
915.47	10432
915.583	10432
915.696	10489
915.809	10580
915.921	10580
916.034	10436
916.146	10402
916.259	10424
916.371	10466
916.483	10516
916.595	10318
916.708	10443
916.82	10341
916.932	10493
917.044	10371
917.156	10371
917.268	10325
917.38	10257
917.491	10257
917.603	10306
917.715	10356
917.826	10413
917.938	10257
918.049	10185
918.161	10284
918.272	10382
918.384	10474
918.495	10356
918.606	10128
918.717	10097
918.828	10265
918.939	10211
919.05	10067
919.161	10188
919.272	9975
919.383	10059
919.494	10223
919.604	10371
919.715	10238
919.826	10120
919.936	10169
920.047	10230
920.157	10207
920.267	10390
920.378	10257
920.488	10154
920.598	10402
920.708	10424
920.818	10329
920.928	10375
921.038	10504
921.148	10519
921.258	10200
921.368	10109
921.477	10044
921.587	10071
921.697	9861
921.806	10147
921.916	9903
922.025	9812
922.134	9793
922.244	9679
922.353	9751
922.462	9603
922.571	9603
922.68	9450
922.789	9450
922.898	9389
923.007	9363
923.116	9393
923.224	9389
923.333	9374
923.442	9287
923.55	9294
923.659	9317
923.767	9374
923.876	9264
923.984	9412
924.092	9241
924.201	9363
924.309	9241
924.417	9302
924.525	9192
924.633	9302
924.741	10082
924.849	9062
924.956	9264
925.064	9077
925.172	8960
925.279	9047
925.387	9138
925.494	9104
925.602	9279
925.709	9150
925.816	9055
925.924	9093
926.031	9256
926.138	9135
926.245	9173
926.352	9017
926.459	9138
926.566	9135
926.673	8982
926.779	8956
926.886	8944
926.993	8792
927.099	8819
927.206	8811
927.312	8762
927.419	8857
927.525	8842
927.631	8876
927.737	8762
927.843	8693
927.95	8629
928.056	8701
928.162	8644
928.267	8735
928.373	9367
928.479	8872
928.585	8549
928.69	8686
928.796	8686
928.901	8617
929.007	8545
929.112	8632
929.218	8617
929.323	8568
929.428	8514
929.533	8655
929.638	8564
929.743	8476
929.848	8518
929.953	8541
930.058	8446
930.163	8248
930.267	8370
930.372	8404
930.477	8313
930.581	8514
930.685	8313
930.79	8275
930.894	8309
930.998	8248
931.103	8442
931.207	7986
931.311	7944
931.415	7902
931.519	7811
931.623	7727
