Data from test_V78500241_2419.txt Node
Date: Fri Mar 25 14:50:33 CST 2022
User: usil
Spectrometer: V785-0024
Trigger mode: 0
Integration Time (sec): 4.000000E-1
Scans to average: 1
Nonlinearity correction enabled: false
Boxcar width: 0
Storing dark spectrum: false
XAxis mode: Wavelengths
Number of Pixels in Spectrum: 1024
>>>>>Begin Spectral Data<<<<<
801.071	22128
801.214	22002
801.356	21819
801.499	21736
801.641	21583
801.783	21507
801.926	21568
802.068	21416
802.211	21374
802.353	21188
802.496	21001
802.638	21047
802.78	20982
802.923	20811
803.065	20864
803.208	20746
803.35	20857
803.492	20895
803.635	20948
803.777	20883
803.919	20880
804.061	21070
804.204	20792
804.346	20788
804.488	20682
804.63	20781
804.773	20746
804.915	20708
805.057	20876
805.199	20708
805.341	20872
805.483	20743
805.626	20788
805.768	20739
805.91	20674
806.052	20762
806.194	20648
806.336	20906
806.478	20663
806.62	20674
806.762	20807
806.904	20830
807.046	21032
807.188	21039
807.33	21066
807.472	21112
807.614	21001
807.756	21032
807.898	20880
808.04	20758
808.182	20754
808.324	20872
808.465	20754
808.607	21055
808.749	21028
808.891	21207
809.033	21294
809.174	21188
809.316	20952
809.458	21104
809.6	21058
809.741	21218
809.883	21165
810.025	21279
810.166	21237
810.308	21203
810.45	21142
810.591	21135
810.733	21017
810.875	20929
811.016	20876
811.158	20701
811.299	20963
811.441	21043
811.582	20902
811.724	20743
811.865	20880
812.007	20838
812.148	20899
812.29	20876
812.431	20963
812.573	21176
812.714	21279
812.855	21336
812.997	21424
813.138	21542
813.279	21420
813.421	21329
813.562	21192
813.703	21214
813.845	21112
813.986	20788
814.127	20640
814.268	20564
814.41	20484
814.551	20385
814.692	20533
814.833	20366
814.974	20370
815.115	20560
815.256	20225
815.397	20351
815.539	20271
815.68	20206
815.821	20149
815.962	20210
816.103	20122
816.244	20039
816.385	19811
816.526	19906
816.666	19632
816.807	19499
816.948	19674
817.089	19708
817.23	19597
817.371	19533
817.512	19597
817.653	19590
817.793	19540
817.934	19457
818.075	19620
818.216	19601
818.356	19449
818.497	19293
818.638	19259
818.778	19194
818.919	19160
819.06	19297
819.2	19331
819.341	19285
819.481	19480
819.622	19651
819.762	19734
819.903	19670
820.043	19594
820.184	19548
820.324	19578
820.465	19559
820.605	19544
820.746	19651
820.886	19308
821.026	19681
821.167	19499
821.307	19586
821.447	19400
821.588	19441
821.728	19202
821.868	19084
822.008	18958
822.149	18905
822.289	19012
822.429	18783
822.569	18627
822.709	18665
822.849	18483
822.99	18479
823.13	18422
823.27	18258
823.41	18216
823.55	18167
823.69	18197
823.83	18182
823.97	18121
824.11	18068
824.25	17958
824.389	17954
824.529	18079
824.669	18041
824.809	18140
824.949	18155
825.089	18079
825.228	18011
825.368	17680
825.508	17794
825.648	17752
825.787	17748
825.927	17855
826.067	17802
826.206	17802
826.346	17745
826.485	17786
826.625	17802
826.765	17954
826.904	17901
827.044	17554
827.183	17463
827.323	17543
827.462	17581
827.601	17493
827.741	17444
827.88	17482
828.02	17383
828.159	17356
828.298	17429
828.437	17478
828.577	17497
828.716	17600
828.855	17436
828.994	17166
829.134	17178
829.273	17143
829.412	17178
829.551	17246
829.69	17170
829.829	17235
829.968	17349
830.107	17280
830.246	17288
830.385	17098
830.524	17041
830.663	17010
830.802	17025
830.941	16908
831.08	16850
831.219	17037
831.357	16889
831.496	17064
831.635	16843
831.774	16755
831.913	16755
832.051	16656
832.19	16672
832.329	16721
832.467	16596
832.606	16451
832.744	16466
832.883	16417
833.022	16512
833.16	16558
833.299	16554
833.437	16592
833.576	16447
833.714	16603
833.852	16599
833.991	16694
834.129	16565
834.267	16554
834.406	16512
834.544	16634
834.682	16573
834.821	16558
834.959	16729
835.097	16516
835.235	16584
835.373	16519
835.511	16592
835.65	16588
835.788	16417
835.926	16417
836.064	16246
836.202	16295
836.34	16462
836.478	16660
836.615	16379
836.753	16409
836.891	16573
837.029	16478
837.167	16485
837.305	16375
837.443	16352
837.58	16253
837.718	16295
837.856	16367
837.993	16303
838.131	16249
838.269	16287
838.406	16272
838.544	16257
838.681	15987
838.819	15991
838.956	15937
839.094	15831
839.231	15998
839.369	15994
839.506	16284
839.643	16154
839.781	15899
839.918	15850
840.055	15823
840.193	15937
840.33	15865
840.467	15842
840.604	15945
840.742	16074
840.879	15823
841.016	15785
841.153	15778
841.29	15941
841.427	15899
841.564	15873
841.701	15869
841.838	15903
841.975	15785
842.112	15747
842.249	15698
842.385	15603
842.522	15873
842.659	15603
842.796	15599
842.933	15625
843.069	15663
843.206	15610
843.343	15633
843.479	15713
843.616	15652
843.752	15386
843.889	15492
844.025	15595
844.162	15481
844.298	15572
844.435	15549
844.571	15454
844.708	15526
844.844	15526
844.98	15545
845.117	15507
845.253	15317
845.389	15378
845.525	15329
845.661	15268
845.798	15180
845.934	15294
846.07	15222
846.206	15351
846.342	15340
846.478	15135
846.614	15005
846.75	15020
846.886	14982
847.022	15055
847.158	15039
847.294	15081
847.429	14975
847.565	15108
847.701	15275
847.837	14746
847.972	14724
848.108	14796
848.244	14769
848.379	14693
848.515	14492
848.65	14640
848.786	14632
848.921	14522
849.057	14632
849.192	14712
849.328	14625
849.463	14594
849.598	14564
849.734	14617
849.869	14427
850.004	14484
850.14	14499
850.275	14389
850.41	14278
850.545	14259
850.68	14305
850.815	14404
850.95	14370
851.085	14579
851.22	14552
851.355	14404
851.49	14450
851.625	14370
851.76	14355
851.895	14290
852.03	14221
852.165	14343
852.299	14415
852.434	14434
852.569	14450
852.703	14434
852.838	14568
852.973	14503
853.107	14476
853.242	14343
853.376	14298
853.511	14176
853.645	14191
853.78	14347
853.914	14187
854.048	14183
854.183	14172
854.317	14237
854.451	14434
854.585	14172
854.72	14195
854.854	14351
854.988	14176
855.122	14240
855.256	14103
855.39	14275
855.524	14275
855.658	14339
855.792	14191
855.926	14256
856.06	14309
856.194	14393
856.327	14199
856.461	14202
856.595	14180
856.729	14221
856.862	14385
856.996	14309
857.13	14301
857.263	14282
857.397	14434
857.53	14202
857.664	14259
857.797	14366
857.931	14480
858.064	14343
858.197	14343
858.331	14275
858.464	14202
858.597	14187
858.731	14282
858.864	14161
858.997	14183
859.13	14191
859.263	14290
859.396	14320
859.529	14237
859.662	14263
859.795	14256
859.928	14309
860.061	14320
860.194	14522
860.327	14313
860.46	14282
860.592	14408
860.725	14454
860.858	14290
860.99	14301
861.123	14126
861.256	14123
861.388	14259
861.521	14944
861.653	14138
861.786	14069
861.918	14187
862.05	14218
862.183	14172
862.315	14218
862.447	14320
862.58	14180
862.712	14043
862.844	13894
862.976	14092
863.108	14008
863.24	14366
863.372	13970
863.504	14050
863.636	14005
863.768	14084
863.9	13993
864.032	13978
864.164	14005
864.296	14081
864.428	14187
864.559	14096
864.691	14050
864.823	14130
864.954	14096
865.086	14046
865.217	13997
865.349	13997
865.48	13970
865.612	14031
865.743	14130
865.875	14039
866.006	13993
866.137	14012
866.269	14024
866.4	13902
866.531	13951
866.662	14012
866.793	13982
866.924	14016
867.055	14054
867.186	13928
867.317	13967
867.448	13959
867.579	14024
867.71	13856
867.841	13936
867.972	14005
868.103	14027
868.233	14115
868.364	13989
868.495	14088
868.625	14180
868.756	14347
868.886	14187
869.017	14161
869.147	14465
869.278	14366
869.408	14332
869.539	14248
869.669	14324
869.799	14267
869.929	14381
870.06	14374
870.19	14617
870.32	14533
870.45	14678
870.58	14648
870.71	14750
870.84	14731
870.97	14625
871.1	14735
871.23	14960
871.36	14834
871.489	14819
871.619	14804
871.749	14868
871.879	14845
872.008	14933
872.138	14929
872.267	14815
872.397	14670
872.526	14739
872.656	14678
872.785	14739
872.915	14861
873.044	14918
873.173	15051
873.303	14876
873.432	14948
873.561	14998
873.69	14887
873.819	14906
873.948	15005
874.077	14891
874.206	14887
874.335	14948
874.464	15097
874.593	15036
874.722	15039
874.851	15260
874.979	15325
875.108	15268
875.237	15192
875.365	15093
875.494	15264
875.623	15317
875.751	15131
875.88	15317
876.008	15420
876.136	15397
876.265	15507
876.393	15751
876.521	15709
876.65	15762
876.778	15694
876.906	15660
877.034	15606
877.162	15633
877.29	15618
877.418	15629
877.546	15610
877.674	15629
877.802	15770
877.93	15705
878.058	15564
878.185	15530
878.313	15679
878.441	15625
878.568	15534
878.696	15526
878.824	15766
878.951	15652
879.079	15827
879.206	15987
879.333	15827
879.461	15637
879.588	15743
879.715	15816
879.842	15960
879.97	15755
880.097	15492
880.224	15504
880.351	15553
880.478	15526
880.605	15447
880.732	15439
880.859	15797
880.986	15553
881.112	15614
881.239	15310
881.366	15211
881.493	15222
881.619	15043
881.746	15233
881.872	15211
881.999	15077
882.125	15062
882.252	15180
882.378	15207
882.505	15291
882.631	15051
882.757	15005
882.883	15036
883.01	14948
883.136	14933
883.262	14823
883.388	14800
883.514	15077
883.64	15036
883.766	14963
883.892	14731
884.018	14735
884.143	14826
884.269	15047
884.395	14735
884.52	14724
884.646	14667
884.772	14583
884.897	14625
885.023	14739
885.148	14743
885.274	14891
885.399	14781
885.524	14613
885.65	14651
885.775	14670
885.9	14670
886.025	14743
886.15	14773
886.275	14625
886.4	14522
886.525	14587
886.65	14663
886.775	14610
886.9	14792
887.025	14876
887.149	14777
887.274	14549
887.399	14412
887.523	14461
887.648	14431
887.773	14393
887.897	14602
888.021	14530
888.146	14419
888.27	14552
888.395	14629
888.519	14613
888.643	14492
888.767	14488
888.891	14347
889.015	14343
889.139	14396
889.263	14328
889.387	14514
889.511	14541
889.635	14450
889.759	14446
889.883	14320
890.006	14408
890.13	14454
890.254	14347
890.377	14377
890.501	14183
890.624	14176
890.748	14183
890.871	14172
890.995	13982
891.118	13811
891.241	14065
891.364	14081
891.488	14187
891.611	14119
891.734	14069
891.857	14069
891.98	14081
892.103	14123
892.226	14111
892.349	14008
892.471	13978
892.594	14043
892.717	14069
892.839	14001
892.962	14077
893.085	14138
893.207	14100
893.33	13921
893.452	13997
893.575	14073
893.697	14039
893.819	14218
893.941	14233
894.064	14259
894.186	14020
894.308	14027
894.43	14195
894.552	14218
894.674	14252
894.796	14024
894.918	14092
895.04	14012
895.161	14244
895.283	14218
895.405	14088
895.526	14103
895.648	14111
895.769	14164
895.891	14142
896.012	14221
896.134	14275
896.255	14214
896.376	14149
896.498	14180
896.619	14290
896.74	14275
896.861	14347
896.982	14579
897.103	14720
897.224	14602
897.345	14488
897.466	14473
897.587	14518
897.708	14621
897.828	14575
897.949	14450
898.07	14465
898.19	14492
898.311	14640
898.431	14507
898.552	14594
898.672	14590
898.792	14724
898.913	14636
899.033	14533
899.153	14434
899.273	14362
899.393	14404
899.513	14396
899.633	14488
899.753	14568
899.873	14499
899.993	14571
900.113	14438
900.232	14415
900.352	14366
900.472	14393
900.591	14240
900.711	14290
900.83	14271
900.95	14415
901.069	14347
901.189	14271
901.308	14069
901.427	13982
901.546	14039
901.665	14054
901.784	14012
901.904	13807
902.023	13769
902.141	13594
902.26	13586
902.379	13647
902.498	13567
902.617	13491
902.735	13567
902.854	13556
902.973	13495
903.091	13293
903.21	13293
903.328	13198
903.446	13247
903.565	13103
903.683	13149
903.801	12996
903.919	13183
904.038	13118
904.156	12894
904.274	13088
904.392	13004
904.51	12909
904.627	12909
904.745	12973
904.863	13012
904.981	12692
905.098	12635
905.216	12665
905.334	12749
905.451	12745
905.569	12631
905.686	12612
905.803	12650
905.921	12528
906.038	12509
906.155	12502
906.272	12380
906.389	12407
906.506	12353
906.623	12178
906.74	12228
906.857	12125
906.974	12091
907.091	12289
907.208	12399
907.324	12266
907.441	12083
907.557	11996
907.674	11954
907.79	11904
907.907	11939
908.023	12015
908.139	12019
908.256	11878
908.372	11908
908.488	11958
908.604	11710
908.72	11703
908.836	11707
908.952	11657
909.068	11794
909.184	11882
909.3	11722
909.415	11771
909.531	11752
909.647	11570
909.762	11543
909.878	11433
909.993	11566
910.108	11573
910.224	11463
910.339	11509
910.454	11322
910.57	11414
910.685	11326
910.8	11604
910.915	11554
911.03	11402
911.145	11181
911.259	11140
911.374	11193
911.489	11193
911.604	11075
911.718	10987
911.833	10965
911.947	10816
912.062	10816
912.176	10968
912.291	11041
912.405	11003
912.519	11201
912.633	11174
912.748	11132
912.862	10942
912.976	10850
913.09	10782
913.204	10759
913.318	10908
913.431	10889
913.545	10957
913.659	11029
913.772	10862
913.886	10675
914	10641
914.113	10862
914.226	10843
914.34	10816
914.453	10702
914.566	10774
914.68	10748
914.793	10706
914.906	10550
915.019	10451
915.132	10421
915.245	10519
915.358	10466
915.47	10516
915.583	10466
915.696	10516
915.809	10565
915.921	10626
916.034	10447
916.146	10394
916.259	10432
916.371	10531
916.483	10554
916.595	10314
916.708	10455
916.82	10329
916.932	10447
917.044	10451
917.156	10386
917.268	10242
917.38	10284
917.491	10299
917.603	10280
917.715	10371
917.826	10379
917.938	10306
918.049	10196
918.161	10348
918.272	10375
918.384	10440
918.495	10310
918.606	10207
918.717	10177
918.828	10238
918.939	10154
919.05	10074
919.161	10169
919.272	10032
919.383	10017
919.494	10295
919.604	10352
919.715	10253
919.826	10112
919.936	10131
920.047	10219
920.157	10215
920.267	10409
920.378	10246
920.488	10223
920.598	10421
920.708	10538
920.818	10481
920.928	10363
921.038	10569
921.148	10516
921.258	10303
921.368	10188
921.477	10082
921.587	10078
921.697	9937
921.806	10040
921.916	9880
922.025	9747
922.134	9728
922.244	9705
922.353	9770
922.462	9652
922.571	9538
922.68	9504
922.789	9435
922.898	9439
923.007	9405
923.116	9462
923.224	9454
923.333	9408
923.442	9370
923.55	9226
923.659	9325
923.767	9397
923.876	9287
923.984	9382
924.092	9184
924.201	9313
924.309	9332
924.417	9344
924.525	9245
924.633	9283
924.741	10032
924.849	9089
924.956	9287
925.064	9100
925.172	9028
925.279	9028
925.387	9119
925.494	9135
925.602	9291
925.709	9241
925.816	9036
925.924	9051
926.031	9138
926.138	9055
926.245	9093
926.352	9013
926.459	9173
926.566	9218
926.673	9154
926.779	8967
926.886	8967
926.993	8823
927.099	8811
927.206	8781
927.312	8792
927.419	8895
927.525	8807
927.631	8857
927.737	8766
927.843	8758
927.95	8644
928.056	8659
928.162	8678
928.267	8731
928.373	9397
928.479	8830
928.585	8651
928.69	8674
928.796	8785
928.901	8598
929.007	8552
929.112	8632
929.218	8636
929.323	8473
929.428	8564
929.533	8686
929.638	8461
929.743	8488
929.848	8598
929.953	8499
930.058	8454
930.163	8218
930.267	8298
930.372	8473
930.477	8214
930.581	8499
930.685	8336
930.79	8237
930.894	8279
930.998	8275
931.103	8415
931.207	8024
931.311	7951
931.415	7928
931.519	7780
931.623	7738
