Data from test_V78500241_967.txt Node
Date: Fri Mar 25 14:40:27 CST 2022
User: usil
Spectrometer: V785-0024
Trigger mode: 0
Integration Time (sec): 4.000000E-1
Scans to average: 1
Nonlinearity correction enabled: false
Boxcar width: 0
Storing dark spectrum: false
XAxis mode: Wavelengths
Number of Pixels in Spectrum: 1024
>>>>>Begin Spectral Data<<<<<
801.071	23463
801.214	23372
801.356	23056
801.499	22999
801.641	22831
801.783	22790
801.926	22782
802.068	22691
802.211	22519
802.353	22478
802.496	22367
802.638	22356
802.78	22344
802.923	22162
803.065	22131
803.208	22200
803.35	22204
803.492	22215
803.635	22265
803.777	22063
803.919	22242
804.061	22325
804.204	22112
804.346	22181
804.488	21979
804.63	22116
804.773	21915
804.915	22048
805.057	22188
805.199	22139
805.341	22211
805.483	22173
805.626	22143
805.768	22078
805.91	22150
806.052	22124
806.194	22021
806.336	22276
806.478	22169
806.62	22207
806.762	22348
806.904	22386
807.046	22694
807.188	22596
807.33	22675
807.472	22793
807.614	22694
807.756	22881
807.898	22847
808.04	22919
808.182	23006
808.324	23261
808.465	23448
808.607	23908
808.749	24228
808.891	24414
809.033	24467
809.174	24254
809.316	23958
809.458	23680
809.6	23402
809.741	23250
809.883	23113
810.025	23159
810.166	22938
810.308	22911
810.45	22934
810.591	22767
810.733	22725
810.875	22470
811.016	22394
811.158	22375
811.299	22580
811.441	22656
811.582	22443
811.724	22356
811.865	22291
812.007	22356
812.148	22459
812.29	22306
812.431	22421
812.573	22710
812.714	22668
812.855	22786
812.997	22976
813.138	23071
813.279	23022
813.421	22923
813.562	22774
813.703	22592
813.845	22519
813.986	22253
814.127	22040
814.268	21861
814.41	21960
814.551	21789
814.692	22010
814.833	21736
814.974	21759
815.115	21785
815.256	21671
815.397	21663
815.539	21637
815.68	21614
815.821	21576
815.962	21519
816.103	21500
816.244	21420
816.385	21256
816.526	21302
816.666	21047
816.807	20971
816.948	21058
817.089	21176
817.23	20990
817.371	20948
817.512	20975
817.653	21028
817.793	20952
817.934	20948
818.075	20986
818.216	20975
818.356	20952
818.497	20724
818.638	20549
818.778	20609
818.919	20693
819.06	20701
819.2	20788
819.341	20895
819.481	20823
819.622	20857
819.762	21089
819.903	20990
820.043	20975
820.184	20887
820.324	20857
820.465	20990
820.605	20937
820.746	20838
820.886	20853
821.026	20750
821.167	20899
821.307	20956
821.447	20712
821.588	20689
821.728	20609
821.868	20366
822.008	20332
822.149	20278
822.289	20233
822.429	20069
822.569	19875
822.709	19932
822.849	19700
822.99	19795
823.13	19860
823.27	19662
823.41	19643
823.55	19597
823.69	19563
823.83	19723
823.97	19518
824.11	19278
824.25	19289
824.389	19320
824.529	19411
824.669	19362
824.809	19563
824.949	19521
825.089	19415
825.228	19400
825.368	19221
825.508	19232
825.648	19137
825.787	19137
825.927	19225
826.067	19084
826.206	19110
826.346	19152
826.485	19129
826.625	19225
826.765	19190
826.904	19099
827.044	18928
827.183	18935
827.323	18844
827.462	18852
827.601	18798
827.741	18886
827.88	18829
828.02	18703
828.159	18757
828.298	18814
828.437	18859
828.577	18688
828.716	18943
828.855	18745
828.994	18593
829.134	18513
829.273	18722
829.412	18513
829.551	18547
829.69	18532
829.829	18597
829.968	18741
830.107	18673
830.246	18677
830.385	18551
830.524	18456
830.663	18399
830.802	18232
830.941	18140
831.08	18045
831.219	18235
831.357	18292
831.496	18445
831.635	18152
831.774	18087
831.913	18015
832.051	17904
832.19	17996
832.329	17950
832.467	17870
832.606	17809
832.744	17882
832.883	17920
833.022	17802
833.16	17874
833.299	17980
833.437	17897
833.576	17961
833.714	17984
833.852	18011
833.991	17996
834.129	18171
834.267	18064
834.406	17942
834.544	17889
834.682	17912
834.821	17935
834.959	18178
835.097	17779
835.235	18049
835.373	18045
835.511	17904
835.65	17783
835.788	17752
835.926	17573
836.064	17695
836.202	17608
836.34	17828
836.478	17923
836.615	17783
836.753	17786
836.891	17901
837.029	17760
837.167	17737
837.305	17745
837.443	17699
837.58	17566
837.718	17722
837.856	17608
837.993	17505
838.131	17619
838.269	17589
838.406	17672
838.544	17512
838.681	17334
838.819	17280
838.956	17208
839.094	17181
839.231	17185
839.369	17273
839.506	17592
839.643	17376
839.781	17212
839.918	17109
840.055	17235
840.193	17117
840.33	17178
840.467	17162
840.604	17197
840.742	17330
840.879	16999
841.016	17056
841.153	17025
841.29	17242
841.427	17064
841.564	17109
841.701	17121
841.838	17048
841.975	17018
842.112	17048
842.249	16839
842.385	16995
842.522	17052
842.659	16839
842.796	16850
842.933	16942
843.069	16839
843.206	16919
843.343	17003
843.479	16896
843.616	16953
843.752	16694
843.889	16672
844.025	16873
844.162	16569
844.298	16843
844.435	16771
844.571	16641
844.708	16805
844.844	16980
844.98	17060
845.117	16847
845.253	16946
845.389	16862
845.525	17258
845.661	17608
845.798	18049
845.934	18513
846.07	18669
846.206	18673
846.342	18437
846.478	17752
846.614	17136
846.75	16755
846.886	16641
847.022	16546
847.158	16485
847.294	16379
847.429	16348
847.565	16234
847.701	16546
847.837	15979
847.972	16139
848.108	16116
848.244	16044
848.379	15915
848.515	15842
848.65	15808
848.786	15781
848.921	15888
849.057	15975
849.192	15991
849.328	15804
849.463	15827
849.598	15846
849.734	15797
849.869	15686
850.004	15568
850.14	15622
850.275	15534
850.41	15515
850.545	15515
850.68	15584
850.815	15705
850.95	15526
851.085	15751
851.22	15736
851.355	15625
851.49	15568
851.625	15545
851.76	15561
851.895	15412
852.03	15485
852.165	15431
852.299	15675
852.434	15694
852.569	15690
852.703	15557
852.838	15603
852.973	15823
853.107	15781
853.242	15568
853.376	15469
853.511	15367
853.645	15363
853.78	15652
853.914	15492
854.048	15488
854.183	15424
854.317	15473
854.451	15694
854.585	15462
854.72	15515
854.854	15511
854.988	15351
855.122	15435
855.256	15367
855.39	15382
855.524	15507
855.658	15488
855.792	15545
855.926	15447
856.06	15549
856.194	15549
856.327	15348
856.461	15359
856.595	15340
856.729	15420
856.862	15519
856.996	15549
857.13	15523
857.263	15526
857.397	15614
857.53	15469
857.664	15599
857.797	15393
857.931	15519
858.064	15496
858.197	15564
858.331	15462
858.464	15214
858.597	15325
858.731	15401
858.864	15447
858.997	15378
859.13	15477
859.263	15549
859.396	15515
859.529	15443
859.662	15485
859.795	15435
859.928	15492
860.061	15625
860.194	15507
860.327	15416
860.46	15291
860.592	15572
860.725	15629
860.858	15561
860.99	15477
861.123	15310
861.256	15348
861.388	15496
861.521	15956
861.653	15363
861.786	15268
861.918	15249
862.05	15393
862.183	15268
862.315	15340
862.447	15389
862.58	15386
862.712	15211
862.844	15154
862.976	15245
863.108	15294
863.24	15671
863.372	15097
863.504	15176
863.636	15062
863.768	15226
863.9	15256
864.032	15195
864.164	15138
864.296	15184
864.428	15252
864.559	15279
864.691	15313
864.823	15260
864.954	15180
865.086	15222
865.217	15268
865.349	15119
865.48	15104
865.612	15066
865.743	15340
865.875	15199
866.006	15135
866.137	15119
866.269	15165
866.4	15157
866.531	15062
866.662	15150
866.793	15207
866.924	15077
867.055	15157
867.186	15127
867.317	15112
867.448	15097
867.579	15119
867.71	15032
867.841	15074
867.972	15062
868.103	15097
868.233	15233
868.364	15180
868.495	15116
868.625	15313
868.756	15523
868.886	15275
869.017	15374
869.147	15557
869.278	15507
869.408	15374
869.539	15405
869.669	15515
869.799	15450
869.929	15485
870.06	15496
870.19	15759
870.32	15660
870.45	15671
870.58	15816
870.71	15819
870.84	15911
870.97	15800
871.1	15762
871.23	15937
871.36	15953
871.489	15922
871.619	15964
871.749	15941
871.879	15972
872.008	16067
872.138	16040
872.267	15907
872.397	15884
872.526	15759
872.656	15800
872.785	15884
872.915	16017
873.044	16135
873.173	16105
873.303	16059
873.432	16147
873.561	16109
873.69	16097
873.819	16067
873.948	16166
874.077	16025
874.206	16025
874.335	16071
874.464	16185
874.593	16394
874.722	16329
874.851	16436
874.979	16394
875.108	16360
875.237	16318
875.365	16265
875.494	16337
875.623	16478
875.751	16363
875.88	16344
876.008	16489
876.136	16630
876.265	16816
876.393	16908
876.521	16847
876.65	16820
876.778	16805
876.906	16908
877.034	16831
877.162	16843
877.29	16820
877.418	16801
877.546	16782
877.674	16847
877.802	16934
877.93	16835
878.058	16801
878.185	16744
878.313	16847
878.441	16949
878.568	16828
878.696	16965
878.824	17140
878.951	17296
879.079	17421
879.206	17707
879.333	17775
879.461	17824
879.588	18011
879.715	18076
879.842	18038
879.97	17691
880.097	17303
880.224	17223
880.351	17109
880.478	16999
880.605	16957
880.732	16919
880.859	17048
880.986	16873
881.112	17079
881.239	16896
881.366	16698
881.493	16611
881.619	16470
881.746	16527
881.872	16519
881.999	16546
882.125	16500
882.252	16504
882.378	16554
882.505	16645
882.631	16618
882.757	16436
882.883	16421
883.01	16386
883.136	16280
883.262	16211
883.388	16382
883.514	16409
883.64	16379
883.766	16325
883.892	16276
884.018	16196
884.143	16390
884.269	16428
884.395	16082
884.52	16078
884.646	16093
884.772	16032
884.897	15949
885.023	16078
885.148	16158
885.274	16097
885.399	16093
885.524	15949
885.65	16109
885.775	15998
885.9	16013
886.025	16166
886.15	16040
886.275	15861
886.4	15926
886.525	15922
886.65	15846
886.775	15861
886.9	16063
887.025	16177
887.149	15991
887.274	15667
887.399	15804
887.523	15728
887.648	15671
887.773	15580
887.897	15778
888.021	15766
888.146	15675
888.27	15732
888.395	15895
888.519	15705
888.643	15720
888.767	15663
888.891	15679
889.015	15458
889.139	15545
889.263	15561
889.387	15633
889.511	15682
889.635	15751
889.759	15591
889.883	15500
890.006	15534
890.13	15606
890.254	15389
890.377	15477
890.501	15302
890.624	15310
890.748	15298
890.871	15169
890.995	15131
891.118	15176
891.241	15146
891.364	15100
891.488	15214
891.611	15237
891.734	15211
891.857	15226
891.98	15173
892.103	15211
892.226	15188
892.349	15245
892.471	15138
892.594	15066
892.717	15218
892.839	15123
892.962	15154
893.085	15127
893.207	15146
893.33	14971
893.452	15043
893.575	15203
893.697	15116
893.819	15241
893.941	15272
894.064	15245
894.186	15123
894.308	15055
894.43	15268
894.552	15393
894.674	15245
894.796	15097
894.918	15077
895.04	15123
895.161	15214
895.283	15249
895.405	15017
895.526	15169
895.648	15100
895.769	15260
895.891	15310
896.012	15287
896.134	15264
896.255	15317
896.376	15214
896.498	15214
896.619	15294
896.74	15260
896.861	15214
896.982	15530
897.103	15774
897.224	15526
897.345	15485
897.466	15443
897.587	15584
897.708	15717
897.828	15538
897.949	15572
898.07	15416
898.19	15393
898.311	15595
898.431	15450
898.552	15576
898.672	15633
898.792	15576
898.913	15542
899.033	15466
899.153	15458
899.273	15367
899.393	15488
899.513	15401
899.633	15439
899.753	15439
899.873	15435
899.993	15424
900.113	15382
900.232	15466
900.352	15420
900.472	15321
900.591	15264
900.711	15260
900.83	15313
900.95	15439
901.069	15359
901.189	15218
901.308	14990
901.427	14971
901.546	14857
901.665	14975
901.784	14967
901.904	14796
902.023	14750
902.141	14598
902.26	14636
902.379	14575
902.498	14438
902.617	14400
902.735	14670
902.854	14484
902.973	14541
903.091	14275
903.21	14199
903.328	14267
903.446	14183
903.565	13993
903.683	14145
903.801	13887
903.919	14012
904.038	14073
904.156	13791
904.274	13913
904.392	13852
904.51	13837
904.627	13769
904.745	13837
904.863	13906
904.981	13628
905.098	13514
905.216	13514
905.334	13540
905.451	13586
905.569	13464
905.686	13559
905.803	13552
905.921	13251
906.038	13362
906.155	13335
906.272	13247
906.389	13343
906.506	13103
906.623	13084
906.74	13110
906.857	12951
906.974	12954
907.091	13095
907.208	13274
907.324	13023
907.441	13042
907.557	12890
907.674	12806
907.79	12688
907.907	12757
908.023	12863
908.139	12825
908.256	12787
908.372	12741
908.488	12654
908.604	12673
908.72	12479
908.836	12498
908.952	12486
909.068	12551
909.184	12677
909.3	12521
909.415	12582
909.531	12555
909.647	12308
909.762	12304
909.878	12254
909.993	12254
910.108	12277
910.224	12247
910.339	12365
910.454	12289
910.57	12163
910.685	12019
910.8	12399
910.915	12270
911.03	12152
911.145	12072
911.259	11958
911.374	12022
911.489	11805
911.604	11863
911.718	11805
911.833	11760
911.947	11623
912.062	11653
912.176	11737
912.291	11809
912.405	11703
912.519	11893
912.633	11977
912.748	11859
912.862	11668
912.976	11653
913.09	11486
913.204	11547
913.318	11646
913.431	11638
913.545	11699
913.659	11672
913.772	11634
913.886	11543
914	11376
914.113	11585
914.226	11608
914.34	11493
914.453	11364
914.566	11516
914.68	11372
914.793	11463
914.906	11201
915.019	11162
915.132	11151
915.245	11147
915.358	11265
915.47	11235
915.583	11185
915.696	11185
915.809	11406
915.921	11269
916.034	11140
916.146	11155
916.259	11132
916.371	11204
916.483	11193
916.595	11079
916.708	11105
916.82	11174
916.932	11136
917.044	11086
917.156	11071
917.268	10995
917.38	10987
917.491	10980
917.603	11003
917.715	11048
917.826	11052
917.938	11022
918.049	10980
918.161	10915
918.272	11121
918.384	11155
918.495	10987
918.606	10904
918.717	10755
918.828	10850
918.939	10854
919.05	10710
919.161	10915
919.272	10672
919.383	10664
919.494	10968
919.604	11045
919.715	10904
919.826	10812
919.936	10858
920.047	10995
920.157	10972
920.267	11045
920.378	10873
920.488	10797
920.598	11014
920.708	11201
920.818	11121
920.928	10972
921.038	11193
921.148	11216
921.258	10930
921.368	10767
921.477	10778
921.587	10725
921.697	10687
921.806	10771
921.916	10622
922.025	10417
922.134	10394
922.244	10344
922.353	10409
922.462	10287
922.571	10211
922.68	10185
922.789	10074
922.898	10109
923.007	10093
923.116	10074
923.224	10090
923.333	10093
923.442	9979
923.55	9861
923.659	10006
923.767	9968
923.876	9880
923.984	9960
924.092	9876
924.201	9975
924.309	9892
924.417	9915
924.525	9861
924.633	9861
924.741	10615
924.849	9740
924.956	9808
925.064	9690
925.172	9663
925.279	9660
925.387	9778
925.494	9686
925.602	9819
925.709	9816
925.816	9614
925.924	9709
926.031	9724
926.138	9675
926.245	9743
926.352	9625
926.459	9747
926.566	9857
926.673	9663
926.779	9595
926.886	9561
926.993	9439
927.099	9355
927.206	9344
927.312	9355
927.419	9435
927.525	9363
927.631	9443
927.737	9272
927.843	9256
927.95	9230
928.056	9245
928.162	9302
928.267	9291
928.373	9808
928.479	9408
928.585	9043
928.69	9294
928.796	9348
928.901	9256
929.007	9058
929.112	9150
929.218	9203
929.323	9123
929.428	9154
929.533	9268
929.638	9017
929.743	9039
929.848	9119
929.953	9081
930.058	9009
930.163	8834
930.267	8773
930.372	8971
930.477	8777
930.581	9077
930.685	8906
930.79	8766
930.894	8834
930.998	8792
931.103	8967
931.207	8625
931.311	8552
931.415	8476
931.519	8271
931.623	8263
