Data from test_V78500241_3039.txt Node
Date: Fri Mar 25 14:54:52 CST 2022
User: usil
Spectrometer: V785-0024
Trigger mode: 0
Integration Time (sec): 4.000000E-1
Scans to average: 1
Nonlinearity correction enabled: false
Boxcar width: 0
Storing dark spectrum: false
XAxis mode: Wavelengths
Number of Pixels in Spectrum: 1024
>>>>>Begin Spectral Data<<<<<
801.071	22192
801.214	22051
801.356	21770
801.499	21629
801.641	21454
801.783	21439
801.926	21519
802.068	21332
802.211	21462
802.353	21226
802.496	20960
802.638	20975
802.78	20975
802.923	20804
803.065	20887
803.208	20777
803.35	20765
803.492	20952
803.635	20883
803.777	20883
803.919	20902
804.061	21203
804.204	20792
804.346	20796
804.488	20625
804.63	20720
804.773	20674
804.915	20838
805.057	20815
805.199	20765
805.341	20720
805.483	20811
805.626	20819
805.768	20689
805.91	20701
806.052	20735
806.194	20617
806.336	20792
806.478	20606
806.62	20621
806.762	20804
806.904	20941
807.046	21154
807.188	21058
807.33	21036
807.472	21199
807.614	21001
807.756	21043
807.898	20845
808.04	20838
808.182	20902
808.324	20880
808.465	20868
808.607	21055
808.749	21104
808.891	21150
809.033	21218
809.174	21226
809.316	20990
809.458	21043
809.6	21024
809.741	21184
809.883	21245
810.025	21226
810.166	21116
810.308	21237
810.45	21146
810.591	21039
810.733	21009
810.875	20948
811.016	20788
811.158	20682
811.299	20857
811.441	20910
811.582	20895
811.724	20929
811.865	20941
812.007	20731
812.148	20868
812.29	20891
812.431	21036
812.573	21142
812.714	21154
812.855	21329
812.997	21439
813.138	21720
813.279	21389
813.421	21287
813.562	21180
813.703	21180
813.845	21058
813.986	20648
814.127	20609
814.268	20389
814.41	20423
814.551	20427
814.692	20503
814.833	20305
814.974	20252
815.115	20419
815.256	20256
815.397	20221
815.539	20377
815.68	20225
815.821	20161
815.962	20149
816.103	20122
816.244	20024
816.385	19932
816.526	19868
816.666	19609
816.807	19559
816.948	19559
817.089	19677
817.23	19537
817.371	19594
817.512	19476
817.653	19521
817.793	19472
817.934	19464
818.075	19571
818.216	19441
818.356	19419
818.497	19445
818.638	19038
818.778	19259
818.919	19141
819.06	19266
819.2	19426
819.341	19457
819.481	19499
819.622	19499
819.762	19662
819.903	19712
820.043	19575
820.184	19506
820.324	19495
820.465	19586
820.605	19464
820.746	19441
820.886	19358
821.026	19491
821.167	19441
821.307	19586
821.447	19381
821.588	19312
821.728	19236
821.868	19031
822.008	18795
822.149	18848
822.289	18878
822.429	18673
822.569	18551
822.709	18597
822.849	18456
822.99	18410
823.13	18350
823.27	18205
823.41	18182
823.55	18213
823.69	18205
823.83	18266
823.97	18072
824.11	18057
824.25	17969
824.389	18015
824.529	18019
824.669	17874
824.809	18015
824.949	17980
825.089	18053
825.228	17946
825.368	17866
825.508	17752
825.648	17737
825.787	17737
825.927	17741
826.067	17748
826.206	17748
826.346	17695
826.485	17832
826.625	17775
826.765	17863
826.904	17695
827.044	17547
827.183	17570
827.323	17417
827.462	17452
827.601	17524
827.741	17459
827.88	17474
828.02	17231
828.159	17376
828.298	17452
828.437	17490
828.577	17364
828.716	17611
828.855	17383
828.994	17280
829.134	17288
829.273	17288
829.412	17170
829.551	17079
829.69	17140
829.829	17220
829.968	17296
830.107	17277
830.246	17098
830.385	17064
830.524	17121
830.663	17006
830.802	17094
830.941	16892
831.08	16748
831.219	16797
831.357	16877
831.496	17022
831.635	16835
831.774	16733
831.913	16759
832.051	16683
832.19	16569
832.329	16561
832.467	16512
832.606	16478
832.744	16428
832.883	16428
833.022	16424
833.16	16478
833.299	16615
833.437	16474
833.576	16508
833.714	16478
833.852	16573
833.991	16531
834.129	16535
834.267	16599
834.406	16542
834.544	16599
834.682	16637
834.821	16558
834.959	16706
835.097	16538
835.235	16672
835.373	16561
835.511	16592
835.65	16478
835.788	16470
835.926	16177
836.064	16287
836.202	16276
836.34	16405
836.478	16516
836.615	16413
836.753	16379
836.891	16538
837.029	16443
837.167	16356
837.305	16234
837.443	16386
837.58	16257
837.718	16322
837.856	16272
837.993	16234
838.131	16242
838.269	16223
838.406	16234
838.544	16223
838.681	15922
838.819	15972
838.956	15854
839.094	15869
839.231	15956
839.369	15960
839.506	16295
839.643	16135
839.781	15895
839.918	15789
840.055	15876
840.193	15865
840.33	15880
840.467	15835
840.604	15808
840.742	16162
840.879	15785
841.016	15831
841.153	15766
841.29	15987
841.427	15880
841.564	15911
841.701	15895
841.838	15739
841.975	15701
842.112	15732
842.249	15686
842.385	15545
842.522	15911
842.659	15690
842.796	15584
842.933	15690
843.069	15580
843.206	15591
843.343	15656
843.479	15633
843.616	15568
843.752	15462
843.889	15329
844.025	15492
844.162	15317
844.298	15561
844.435	15363
844.571	15378
844.708	15439
844.844	15587
844.98	15625
845.117	15584
845.253	15302
845.389	15317
845.525	15310
845.661	15283
845.798	15157
845.934	15233
846.07	15211
846.206	15230
846.342	15363
846.478	15161
846.614	15093
846.75	14853
846.886	15032
847.022	15005
847.158	14918
847.294	15028
847.429	15001
847.565	14971
847.701	15203
847.837	14689
847.972	14689
848.108	14880
848.244	14857
848.379	14583
848.515	14629
848.65	14587
848.786	14583
848.921	14522
849.057	14689
849.192	14663
849.328	14560
849.463	14560
849.598	14530
849.734	14518
849.869	14438
850.004	14389
850.14	14355
850.275	14381
850.41	14339
850.545	14415
850.68	14301
850.815	14374
850.95	14362
851.085	14590
851.22	14438
851.355	14358
851.49	14336
851.625	14317
851.76	14313
851.895	14240
852.03	14218
852.165	14336
852.299	14374
852.434	14381
852.569	14450
852.703	14336
852.838	14400
852.973	14412
853.107	14492
853.242	14225
853.376	14221
853.511	14092
853.645	14153
853.78	14286
853.914	14256
854.048	14126
854.183	14187
854.317	14157
854.451	14351
854.585	14259
854.72	14195
854.854	14202
854.988	14180
855.122	14149
855.256	14107
855.39	14180
855.524	14290
855.658	14328
855.792	14309
855.926	14320
856.06	14381
856.194	14244
856.327	14145
856.461	14168
856.595	14161
856.729	14244
856.862	14366
856.996	14275
857.13	14404
857.263	14355
857.397	14374
857.53	14180
857.664	14202
857.797	14298
857.931	14305
858.064	14202
858.197	14233
858.331	14221
858.464	14142
858.597	14062
858.731	14210
858.864	14271
858.997	14073
859.13	14199
859.263	14237
859.396	14267
859.529	14199
859.662	14138
859.795	14115
859.928	14206
860.061	14339
860.194	14438
860.327	14221
860.46	14278
860.592	14351
860.725	14427
860.858	14358
860.99	14187
861.123	14134
861.256	14157
861.388	14130
861.521	14842
861.653	14130
861.786	14058
861.918	14073
862.05	14058
862.183	14267
862.315	14240
862.447	14187
862.58	14088
862.712	13883
862.844	13906
862.976	14073
863.108	14008
863.24	14446
863.372	13947
863.504	13986
863.636	13902
863.768	14088
863.9	14069
864.032	13974
864.164	13970
864.296	14008
864.428	14183
864.559	14058
864.691	14096
864.823	14077
864.954	14069
865.086	13921
865.217	14016
865.349	13898
865.48	14016
865.612	14005
865.743	14058
865.875	13970
866.006	13970
866.137	14031
866.269	13925
866.4	13951
866.531	13868
866.662	13875
866.793	13959
866.924	13959
867.055	13921
867.186	13963
867.317	13967
867.448	13772
867.579	13887
867.71	13856
867.841	13986
867.972	13917
868.103	13940
868.233	14005
868.364	13951
868.495	13959
868.625	14240
868.756	14377
868.886	14149
869.017	14157
869.147	14366
869.278	14355
869.408	14218
869.539	14149
869.669	14309
869.799	14271
869.929	14374
870.06	14278
870.19	14571
870.32	14419
870.45	14518
870.58	14632
870.71	14705
870.84	14689
870.97	14590
871.1	14621
871.23	14682
871.36	14823
871.489	14731
871.619	14765
871.749	14739
871.879	14811
872.008	14895
872.138	14807
872.267	14815
872.397	14667
872.526	14606
872.656	14610
872.785	14727
872.915	14868
873.044	14944
873.173	14895
873.303	14872
873.432	14944
873.561	14891
873.69	14887
873.819	14762
873.948	14895
874.077	14842
874.206	14910
874.335	14895
874.464	15043
874.593	15207
874.722	15036
874.851	15173
874.979	15161
875.108	15233
875.237	15146
875.365	15051
875.494	15150
875.623	15355
875.751	15154
875.88	15230
876.008	15313
876.136	15329
876.265	15625
876.393	15819
876.521	15717
876.65	15629
876.778	15549
876.906	15549
877.034	15447
877.162	15622
877.29	15629
877.418	15561
877.546	15519
877.674	15591
877.802	15629
877.93	15545
878.058	15572
878.185	15534
878.313	15561
878.441	15561
878.568	15473
878.696	15622
878.824	15564
878.951	15709
879.079	15846
879.206	15884
879.333	15774
879.461	15717
879.588	15736
879.715	15728
879.842	15827
879.97	15652
880.097	15519
880.224	15439
880.351	15530
880.478	15469
880.605	15393
880.732	15443
880.859	15599
880.986	15584
881.112	15625
881.239	15329
881.366	15150
881.493	15119
881.619	15032
881.746	15058
881.872	15146
881.999	15039
882.125	14986
882.252	15150
882.378	15127
882.505	15199
882.631	15017
882.757	14899
882.883	14982
883.01	14921
883.136	14918
883.262	14811
883.388	14708
883.514	14948
883.64	15058
883.766	14868
883.892	14678
884.018	14811
884.143	14887
884.269	14967
884.395	14689
884.52	14579
884.646	14610
884.772	14511
884.897	14590
885.023	14533
885.148	14651
885.274	14807
885.399	14659
885.524	14636
885.65	14636
885.775	14678
885.9	14568
886.025	14716
886.15	14697
886.275	14648
886.4	14499
886.525	14537
886.65	14457
886.775	14526
886.9	14724
887.025	14906
887.149	14583
887.274	14412
887.399	14473
887.523	14355
887.648	14469
887.773	14389
887.897	14530
888.021	14480
888.146	14434
888.27	14552
888.395	14564
888.519	14556
888.643	14473
888.767	14499
888.891	14317
889.015	14343
889.139	14275
889.263	14301
889.387	14355
889.511	14590
889.635	14408
889.759	14427
889.883	14256
890.006	14415
890.13	14541
890.254	14237
890.377	14240
890.501	14069
890.624	14020
890.748	14214
890.871	14077
890.995	13963
891.118	13917
891.241	14096
891.364	14027
891.488	14077
891.611	14054
891.734	14039
891.857	14115
891.98	14115
892.103	14012
892.226	14005
892.349	14035
892.471	13841
892.594	13940
892.717	14054
892.839	13959
892.962	14043
893.085	14005
893.207	14016
893.33	13970
893.452	13928
893.575	13970
893.697	14069
893.819	14286
893.941	14267
894.064	14195
894.186	14077
894.308	14008
894.43	14123
894.552	14206
894.674	14195
894.796	13940
894.918	14077
895.04	14027
895.161	14164
895.283	14206
895.405	14084
895.526	14119
895.648	14172
895.769	14138
895.891	14275
896.012	14256
896.134	14157
896.255	14183
896.376	14126
896.498	14065
896.619	14221
896.74	14145
896.861	14275
896.982	14560
897.103	14632
897.224	14499
897.345	14408
897.466	14377
897.587	14469
897.708	14575
897.828	14499
897.949	14431
898.07	14389
898.19	14488
898.311	14568
898.431	14492
898.552	14598
898.672	14640
898.792	14648
898.913	14632
899.033	14457
899.153	14400
899.273	14434
899.393	14400
899.513	14484
899.633	14423
899.753	14457
899.873	14320
899.993	14450
900.113	14412
900.232	14476
900.352	14385
900.472	14351
900.591	14130
900.711	14328
900.83	14259
900.95	14446
901.069	14434
901.189	14240
901.308	13997
901.427	13955
901.546	13982
901.665	13928
901.784	14039
901.904	13932
902.023	13784
902.141	13499
902.26	13556
902.379	13521
902.498	13514
902.617	13594
902.735	13487
902.854	13495
902.973	13422
903.091	13244
903.21	13244
903.328	13282
903.446	13175
903.565	13091
903.683	13145
903.801	13019
903.919	13015
904.038	13133
904.156	12977
904.274	12977
904.392	12935
904.51	12920
904.627	12798
904.745	12958
904.863	12901
904.981	12738
905.098	12601
905.216	12582
905.334	12566
905.451	12627
905.569	12593
905.686	12726
905.803	12665
905.921	12403
906.038	12597
906.155	12460
906.272	12300
906.389	12361
906.506	12197
906.623	12262
906.74	12273
906.857	12079
906.974	12194
907.091	12300
907.208	12289
907.324	12323
907.441	12194
907.557	12053
907.674	12015
907.79	11897
907.907	11889
908.023	12098
908.139	11980
908.256	11813
908.372	11855
908.488	11961
908.604	11752
908.72	11718
908.836	11699
908.952	11764
909.068	11824
909.184	11863
909.3	11764
909.415	11866
909.531	11752
909.647	11539
909.762	11535
909.878	11395
909.993	11471
910.108	11490
910.224	11429
910.339	11463
910.454	11402
910.57	11398
910.685	11334
910.8	11596
910.915	11509
911.03	11356
911.145	11162
911.259	11140
911.374	11273
911.489	11216
911.604	11128
911.718	10995
911.833	10953
911.947	10866
912.062	10759
912.176	10991
912.291	11022
912.405	10927
912.519	11162
912.633	11166
912.748	11060
912.862	10980
912.976	10820
913.09	10744
913.204	10797
913.318	10812
913.431	10919
913.545	10850
913.659	10938
913.772	10831
913.886	10656
914	10672
914.113	10790
914.226	10892
914.34	10877
914.453	10622
914.566	10759
914.68	10767
914.793	10577
914.906	10489
915.019	10531
915.132	10348
915.245	10485
915.358	10474
915.47	10440
915.583	10440
915.696	10523
915.809	10573
915.921	10615
916.034	10413
916.146	10398
916.259	10440
916.371	10512
916.483	10504
916.595	10386
916.708	10398
916.82	10436
916.932	10382
917.044	10386
917.156	10363
917.268	10284
917.38	10287
917.491	10329
917.603	10352
917.715	10344
917.826	10295
917.938	10306
918.049	10173
918.161	10276
918.272	10474
918.384	10390
918.495	10287
918.606	10173
918.717	10044
918.828	10257
918.939	10242
919.05	10101
919.161	10185
919.272	9964
919.383	10010
919.494	10211
919.604	10386
919.715	10219
919.826	10048
919.936	10147
920.047	10276
920.157	10128
920.267	10466
920.378	10196
920.488	10173
920.598	10405
920.708	10504
920.818	10322
920.928	10363
921.038	10538
921.148	10523
921.258	10200
921.368	10131
921.477	10071
921.587	10082
921.697	9941
921.806	10055
921.916	9960
922.025	9751
922.134	9701
922.244	9740
922.353	9804
922.462	9701
922.571	9606
922.68	9504
922.789	9435
922.898	9492
923.007	9450
923.116	9488
923.224	9466
923.333	9408
923.442	9351
923.55	9348
923.659	9348
923.767	9424
923.876	9233
923.984	9378
924.092	9226
924.201	9355
924.309	9291
924.417	9287
924.525	9294
924.633	9264
924.741	10207
924.849	9104
924.956	9298
925.064	9131
925.172	9039
925.279	9055
925.387	9165
925.494	9119
925.602	9237
925.709	9100
925.816	9039
925.924	9066
926.031	9207
926.138	9127
926.245	9154
926.352	9055
926.459	9154
926.566	9241
926.673	9043
926.779	8971
926.886	8960
926.993	8823
927.099	8727
927.206	8807
927.312	8800
927.419	8864
927.525	8815
927.631	8845
927.737	8720
927.843	8750
927.95	8613
928.056	8682
928.162	8716
928.267	8815
928.373	9272
928.479	8838
928.585	8579
928.69	8716
928.796	8807
928.901	8689
929.007	8530
929.112	8610
929.218	8625
929.323	8518
929.428	8522
929.533	8670
929.638	8438
929.743	8511
929.848	8541
929.953	8579
930.058	8412
930.163	8320
930.267	8336
930.372	8446
930.477	8301
930.581	8503
930.685	8381
930.79	8168
930.894	8252
930.998	8218
931.103	8400
931.207	8073
931.311	8069
931.415	7921
931.519	7719
931.623	7742
