Data from test_V78500241_458.txt Node
Date: Fri Mar 25 14:36:54 CST 2022
User: usil
Spectrometer: V785-0024
Trigger mode: 0
Integration Time (sec): 4.000000E-1
Scans to average: 1
Nonlinearity correction enabled: false
Boxcar width: 0
Storing dark spectrum: false
XAxis mode: Wavelengths
Number of Pixels in Spectrum: 1024
>>>>>Begin Spectral Data<<<<<
801.071	26602
801.214	26377
801.356	26248
801.499	26161
801.641	26008
801.783	25993
801.926	26024
802.068	25966
802.211	25704
802.353	25693
802.496	25655
802.638	25582
802.78	25613
802.923	25548
803.065	25487
803.208	25381
803.35	25472
803.492	25643
803.635	25632
803.777	25533
803.919	25556
804.061	25951
804.204	25575
804.346	25445
804.488	25411
804.63	25411
804.773	25407
804.915	25597
805.057	25601
805.199	25479
805.341	25556
805.483	25632
805.626	25616
805.768	25362
805.91	25529
806.052	25476
806.194	25384
806.336	25586
806.478	25510
806.62	25613
806.762	25662
806.904	25833
807.046	26046
807.188	25951
807.33	25898
807.472	26020
807.614	25761
807.756	25837
807.898	25700
808.04	25624
808.182	25761
808.324	25575
808.465	25814
808.607	25906
808.749	26043
808.891	26168
809.033	26161
809.174	26278
809.316	26142
809.458	26107
809.6	25963
809.741	25986
809.883	26111
810.025	26309
810.166	26195
810.308	26157
810.45	26225
810.591	26039
810.733	25940
810.875	25921
811.016	25712
811.158	25769
811.299	25902
811.441	26039
811.582	25974
811.724	25875
811.865	25811
812.007	25989
812.148	25746
812.29	25887
812.431	26001
812.573	26031
812.714	26229
812.855	26339
812.997	26469
813.138	26533
813.279	26385
813.421	26400
813.562	26237
813.703	26134
813.845	25986
813.986	25662
814.127	25529
814.268	25369
814.41	25381
814.551	25339
814.692	25476
814.833	25228
814.974	25274
815.115	25369
815.256	25198
815.397	25430
815.539	25316
815.68	25148
815.821	25171
815.962	25103
816.103	25118
816.244	24928
816.385	24989
816.526	24829
816.666	24635
816.807	24483
816.948	24612
817.089	24612
817.23	24639
817.371	24563
817.512	24555
817.653	24547
817.793	24490
817.934	24521
818.075	24566
818.216	24513
818.356	24494
818.497	24380
818.638	24224
818.778	24224
818.919	24182
819.06	24182
819.2	24315
819.341	24505
819.481	24426
819.622	24505
819.762	24783
819.903	24570
820.043	24536
820.184	24498
820.324	24521
820.465	24650
820.605	24532
820.746	24498
820.886	24395
821.026	24521
821.167	24384
821.307	24528
821.447	24509
821.588	24232
821.728	24224
821.868	24018
822.008	23893
822.149	23946
822.289	23859
822.429	23482
822.569	23368
822.709	23474
822.849	23303
822.99	23326
823.13	23296
823.27	23334
823.41	23124
823.55	22999
823.69	23151
823.83	23075
823.97	22968
824.11	22885
824.25	22889
824.389	22930
824.529	22900
824.669	22927
824.809	22965
824.949	22934
825.089	22987
825.228	22881
825.368	22683
825.508	22660
825.648	22588
825.787	22736
825.927	22626
826.067	22577
826.206	22767
826.346	22691
826.485	22839
826.625	22660
826.765	22839
826.904	22664
827.044	22394
827.183	22432
827.323	22280
827.462	22409
827.601	22367
827.741	22337
827.88	22367
828.02	22101
828.159	22306
828.298	22367
828.437	22363
828.577	22310
828.716	22341
828.855	22299
828.994	21994
829.134	21949
829.273	22059
829.412	21926
829.551	21975
829.69	22105
829.829	22051
829.968	22002
830.107	22059
830.246	21964
830.385	21983
830.524	22025
830.663	21804
830.802	21831
830.941	21587
831.08	21622
831.219	21679
831.357	21637
831.496	21892
831.635	21564
831.774	21454
831.913	21557
832.051	21351
832.19	21332
832.329	21207
832.467	21214
832.606	21268
832.744	21184
832.883	21351
833.022	21298
833.16	21252
833.299	21157
833.437	21142
833.576	21351
833.714	21268
833.852	21279
833.991	21317
834.129	21260
834.267	21344
834.406	21313
834.544	21226
834.682	21218
834.821	21359
834.959	21405
835.097	21233
835.235	21283
835.373	21249
835.511	21135
835.65	21024
835.788	21112
835.926	21036
836.064	20937
836.202	21032
836.34	21074
836.478	21157
836.615	21028
836.753	21188
836.891	21142
837.029	21131
837.167	21062
837.305	21024
837.443	21058
837.58	21001
837.718	21096
837.856	21081
837.993	20887
838.131	20838
838.269	20883
838.406	20918
838.544	20857
838.681	20606
838.819	20712
838.956	20495
839.094	20336
839.231	20602
839.369	20579
839.506	20845
839.643	20461
839.781	20488
839.918	20278
840.055	20259
840.193	20355
840.33	20320
840.467	20404
840.604	20282
840.742	20480
840.879	20237
841.016	20271
841.153	20294
841.29	20423
841.427	20450
841.564	20294
841.701	20161
841.838	20237
841.975	20183
842.112	20187
842.249	20206
842.385	19997
842.522	20240
842.659	20043
842.796	20020
842.933	20130
843.069	19955
843.206	19989
843.343	20138
843.479	20122
843.616	20031
843.752	19864
843.889	19833
844.025	19925
844.162	19772
844.298	19940
844.435	19875
844.571	19689
844.708	19769
844.844	19906
844.98	19830
845.117	19887
845.253	19742
845.389	19628
845.525	19784
845.661	19571
845.798	19708
845.934	19590
846.07	19582
846.206	19643
846.342	19693
846.478	19639
846.614	19384
846.75	19293
846.886	19232
847.022	19392
847.158	19308
847.294	19289
847.429	19213
847.565	19266
847.701	19472
847.837	18916
847.972	18989
848.108	19148
848.244	19069
848.379	18951
848.515	18852
848.65	18973
848.786	18859
848.921	18859
849.057	18909
849.192	18932
849.328	18833
849.463	18852
849.598	18696
849.734	18806
849.869	18726
850.004	18574
850.14	18589
850.275	18627
850.41	18570
850.545	18582
850.68	18623
850.815	18559
850.95	18486
851.085	18837
851.22	18654
851.355	18681
851.49	18433
851.625	18547
851.76	18582
851.895	18528
852.03	18384
852.165	18445
852.299	18620
852.434	18601
852.569	18616
852.703	18547
852.838	18547
852.973	18703
853.107	18639
853.242	18471
853.376	18445
853.511	18296
853.645	18342
853.78	18483
853.914	18357
854.048	18361
854.183	18361
854.317	18456
854.451	18513
854.585	18342
854.72	18311
854.854	18471
854.988	18273
855.122	18311
855.256	18247
855.39	18327
855.524	18479
855.658	18445
855.792	18388
855.926	18388
856.06	18498
856.194	18448
856.327	18456
856.461	18243
856.595	18262
856.729	18273
856.862	18445
856.996	18418
857.13	18418
857.263	18471
857.397	18391
857.53	18391
857.664	18551
857.797	18467
857.931	18426
858.064	18391
858.197	18441
858.331	18235
858.464	18243
858.597	18410
858.731	18228
858.864	18289
858.997	18266
859.13	18441
859.263	18205
859.396	18422
859.529	18258
859.662	18163
859.795	18266
859.928	18323
860.061	18502
860.194	18574
860.327	18266
860.46	18296
860.592	18330
860.725	18486
860.858	18418
860.99	18292
861.123	18277
861.256	18308
861.388	18346
861.521	18962
861.653	18270
861.786	18148
861.918	18178
862.05	18388
862.183	18323
862.315	18323
862.447	18369
862.58	18319
862.712	18213
862.844	18034
862.976	18182
863.108	18125
863.24	18422
863.372	18007
863.504	18159
863.636	18060
863.768	17992
863.9	18053
864.032	18038
864.164	17961
864.296	18060
864.428	18182
864.559	18041
864.691	17992
864.823	18072
864.954	18022
865.086	18114
865.217	17908
865.349	17946
865.48	17897
865.612	18011
865.743	18201
865.875	17916
866.006	17999
866.137	18087
866.269	17939
866.4	18022
866.531	17855
866.662	17946
866.793	17851
866.924	17847
867.055	17897
867.186	17901
867.317	17843
867.448	17916
867.579	17817
867.71	17874
867.841	17889
867.972	17950
868.103	17961
868.233	17904
868.364	17889
868.495	18026
868.625	18057
868.756	18243
868.886	17999
869.017	18121
869.147	18182
869.278	18281
869.408	18220
869.539	18136
869.669	18163
869.799	18235
869.929	18338
870.06	18201
870.19	18460
870.32	18441
870.45	18498
870.58	18559
870.71	18623
870.84	18654
870.97	18448
871.1	18589
871.23	18787
871.36	18776
871.489	18608
871.619	18703
871.749	18703
871.879	18722
872.008	18856
872.138	18741
872.267	18658
872.397	18700
872.526	18608
872.656	18342
872.785	18559
872.915	18738
873.044	18905
873.173	18779
873.303	18844
873.432	18798
873.561	18829
873.69	18810
873.819	18749
873.948	18882
874.077	18726
874.206	18620
874.335	18840
874.464	18932
874.593	19050
874.722	18958
874.851	19088
874.979	19019
875.108	19225
875.237	19122
875.365	18943
875.494	18996
875.623	19046
875.751	18935
875.88	19019
876.008	19152
876.136	19225
876.265	19430
876.393	19567
876.521	19533
876.65	19487
876.778	19464
876.906	19411
877.034	19369
877.162	19297
877.29	19331
877.418	19476
877.546	19419
877.674	19365
877.802	19438
877.93	19415
878.058	19559
878.185	19301
878.313	19324
878.441	19460
878.568	19206
878.696	19377
878.824	19540
878.951	19521
879.079	19518
879.206	19715
879.333	19693
879.461	19449
879.588	19533
879.715	19628
879.842	19807
879.97	19468
880.097	19259
880.224	19168
880.351	19316
880.478	19320
880.605	19198
880.732	19225
880.859	19529
880.986	19263
881.112	19225
881.239	19247
881.366	19080
881.493	18932
881.619	18890
881.746	18863
881.872	18844
881.999	18837
882.125	18848
882.252	18901
882.378	18890
882.505	19042
882.631	18738
882.757	18665
882.883	18787
883.01	18688
883.136	18566
883.262	18418
883.388	18456
883.514	18684
883.64	18684
883.766	18646
883.892	18361
884.018	18513
884.143	18597
884.269	18798
884.395	18285
884.52	18319
884.646	18369
884.772	18254
884.897	18224
885.023	18251
885.148	18376
885.274	18486
885.399	18395
885.524	18197
885.65	18380
885.775	18308
885.9	18342
886.025	18338
886.15	18258
886.275	18190
886.4	18201
886.525	18262
886.65	18182
886.775	18224
886.9	18429
887.025	18437
887.149	18262
887.274	18148
887.399	18171
887.523	18235
887.648	18091
887.773	17980
887.897	18129
888.021	18053
888.146	18015
888.27	18216
888.395	18117
888.519	18144
888.643	18106
888.767	18155
888.891	17950
889.015	17885
889.139	17988
889.263	17885
889.387	18083
889.511	18053
889.635	18022
889.759	17851
889.883	17958
890.006	17847
890.13	17961
890.254	17866
890.377	17745
890.501	17661
890.624	17554
890.748	17634
890.871	17554
890.995	17429
891.118	17452
891.241	17558
891.364	17444
891.488	17543
891.611	17547
891.734	17532
891.857	17562
891.98	17619
892.103	17630
892.226	17551
892.349	17497
892.471	17349
892.594	17421
892.717	17402
892.839	17421
892.962	17532
893.085	17505
893.207	17349
893.33	17364
893.452	17444
893.575	17417
893.697	17471
893.819	17710
893.941	17672
894.064	17627
894.186	17436
894.308	17429
894.43	17490
894.552	17615
894.674	17573
894.796	17391
894.918	17490
895.04	17341
895.161	17570
895.283	17592
895.405	17444
895.526	17364
895.648	17528
895.769	17611
895.891	17505
896.012	17611
896.134	17566
896.255	17619
896.376	17562
896.498	17668
896.619	17619
896.74	17570
896.861	17691
896.982	17942
897.103	18057
897.224	17885
897.345	17821
897.466	17748
897.587	17859
897.708	17901
897.828	17767
897.949	17707
898.07	17699
898.19	17733
898.311	17851
898.431	17828
898.552	17840
898.672	17851
898.792	17851
898.913	17767
899.033	17676
899.153	17592
899.273	17429
899.393	17619
899.513	17570
899.633	17516
899.753	17649
899.873	17535
899.993	17661
900.113	17524
900.232	17661
900.352	17570
900.472	17429
900.591	17322
900.711	17372
900.83	17467
900.95	17547
901.069	17509
901.189	17296
901.308	17105
901.427	17094
901.546	17025
901.665	17128
901.784	16984
901.904	16873
902.023	16835
902.141	16637
902.26	16607
902.379	16694
902.498	16630
902.617	16519
902.735	16599
902.854	16474
902.973	16443
903.091	16265
903.21	16261
903.328	16223
903.446	16131
903.565	16112
903.683	16090
903.801	15998
903.919	16036
904.038	16013
904.156	15884
904.274	15899
904.392	15827
904.51	15804
904.627	15819
904.745	15755
904.863	15774
904.981	15606
905.098	15530
905.216	15542
905.334	15576
905.451	15515
905.569	15397
905.686	15481
905.803	15458
905.921	15275
906.038	15397
906.155	15340
906.272	15161
906.389	15214
906.506	15070
906.623	15146
906.74	15127
906.857	14944
906.974	14994
907.091	15112
907.208	15275
907.324	15127
907.441	14899
907.557	14834
907.674	14792
907.79	14644
907.907	14758
908.023	14788
908.139	14731
908.256	14720
908.372	14731
908.488	14625
908.604	14530
908.72	14511
908.836	14457
908.952	14381
909.068	14514
909.184	14549
909.3	14351
909.415	14465
909.531	14495
909.647	14339
909.762	14145
909.878	14149
909.993	14225
910.108	14233
910.224	14202
910.339	14191
910.454	14016
910.57	14111
910.685	13925
910.8	14210
910.915	14195
911.03	14062
911.145	13871
911.259	13837
911.374	13849
911.489	13788
911.604	13776
911.718	13594
911.833	13548
911.947	13487
912.062	13327
912.176	13567
912.291	13582
912.405	13578
912.519	13746
912.633	13776
912.748	13674
912.862	13632
912.976	13400
913.09	13285
913.204	13400
913.318	13369
913.431	13460
913.545	13426
913.659	13480
913.772	13346
913.886	13266
914	13251
914.113	13373
914.226	13415
914.34	13403
914.453	13088
914.566	13373
914.68	13084
914.793	13069
914.906	12901
915.019	12989
915.132	12913
915.245	12901
915.358	12951
915.47	12947
915.583	12890
915.696	13080
915.809	12993
915.921	13061
916.034	12932
916.146	12825
916.259	12795
916.371	12985
916.483	12909
916.595	12810
916.708	12810
916.82	12730
916.932	12734
917.044	12703
917.156	12840
917.268	12658
917.38	12688
917.491	12639
917.603	12585
917.715	12772
917.826	12715
917.938	12623
918.049	12456
918.161	12631
918.272	12696
918.384	12738
918.495	12650
918.606	12506
918.717	12441
918.828	12486
918.939	12429
919.05	12338
919.161	12410
919.272	12243
919.383	12308
919.494	12574
919.604	12684
919.715	12460
919.826	12441
919.936	12460
920.047	12521
920.157	12456
920.267	12555
920.378	12437
920.488	12361
920.598	12650
920.708	12798
920.818	12582
920.928	12540
921.038	12730
921.148	12707
921.258	12467
921.368	12285
921.477	12201
921.587	12216
921.697	12087
921.806	12186
921.916	12007
922.025	11954
922.134	12007
922.244	11908
922.353	11828
922.462	11714
922.571	11783
922.68	11520
922.789	11524
922.898	11596
923.007	11516
923.116	11665
923.224	11512
923.333	11493
923.442	11425
923.55	11284
923.659	11471
923.767	11414
923.876	11307
923.984	11433
924.092	11322
924.201	11318
924.309	11322
924.417	11414
924.525	11239
924.633	11360
924.741	12247
924.849	11041
924.956	11231
925.064	11025
925.172	11010
925.279	11029
925.387	11128
925.494	11029
925.602	11220
925.709	11166
925.816	11006
925.924	11025
926.031	11022
926.138	11143
926.245	11197
926.352	10980
926.459	11010
926.566	11189
926.673	10965
926.779	10866
926.886	10869
926.993	10729
927.099	10717
927.206	10668
927.312	10615
927.419	10771
927.525	10653
927.631	10656
927.737	10603
927.843	10668
927.95	10443
928.056	10561
928.162	10596
928.267	10634
928.373	11075
928.479	10641
928.585	10325
928.69	10497
928.796	10558
928.901	10409
929.007	10276
929.112	10402
929.218	10314
929.323	10363
929.428	10329
929.533	10459
929.638	10303
929.743	10322
929.848	10280
929.953	10272
930.058	10211
930.163	10006
930.267	9994
930.372	10196
930.477	10010
930.581	10204
930.685	10063
930.79	9945
930.894	9930
930.998	9926
931.103	10025
931.207	9766
931.311	9618
931.415	9599
931.519	9370
931.623	9367
