Data from test_V78500241_1090.txt Node
Date: Fri Mar 25 14:41:18 CST 2022
User: usil
Spectrometer: V785-0024
Trigger mode: 0
Integration Time (sec): 4.000000E-1
Scans to average: 1
Nonlinearity correction enabled: false
Boxcar width: 0
Storing dark spectrum: false
XAxis mode: Wavelengths
Number of Pixels in Spectrum: 1024
>>>>>Begin Spectral Data<<<<<
801.071	22713
801.214	22603
801.356	22497
801.499	22310
801.641	22158
801.783	22150
801.926	22044
802.068	21991
802.211	21865
802.353	21884
802.496	21618
802.638	21561
802.78	21363
802.923	21428
803.065	21416
803.208	21401
803.35	21370
803.492	21580
803.635	21523
803.777	21431
803.919	21504
804.061	21690
804.204	21443
804.346	21389
804.488	21279
804.63	21428
804.773	21344
804.915	21287
805.057	21389
805.199	21268
805.341	21583
805.483	21374
805.626	21386
805.768	21279
805.91	21313
806.052	21336
806.194	21268
806.336	21633
806.478	21500
806.62	21439
806.762	21450
806.904	21469
807.046	21709
807.188	21656
807.33	21656
807.472	21728
807.614	21690
807.756	21755
807.898	21724
808.04	21545
808.182	21599
808.324	21606
808.465	21743
808.607	22059
808.749	22135
808.891	22249
809.033	22363
809.174	22265
809.316	22116
809.458	21918
809.6	22090
809.741	22044
809.883	21842
810.025	22162
810.166	21888
810.308	21994
810.45	21953
810.591	21781
810.733	21728
810.875	21667
811.016	21561
811.158	21477
811.299	21641
811.441	21789
811.582	21717
811.724	21545
811.865	21500
812.007	21428
812.148	21526
812.29	21610
812.431	21739
812.573	21892
812.714	21968
812.855	22154
812.997	22067
813.138	22249
813.279	22128
813.421	22048
813.562	21911
813.703	21766
813.845	21770
813.986	21382
814.127	21184
814.268	21146
814.41	21245
814.551	21112
814.692	21146
814.833	21028
814.974	20986
815.115	21036
815.256	20941
815.397	20777
815.539	21028
815.68	20861
815.821	20819
815.962	20788
816.103	20769
816.244	20701
816.385	20606
816.526	20587
816.666	20400
816.807	20267
816.948	20396
817.089	20324
817.23	20240
817.371	20202
817.512	20126
817.653	20259
817.793	20191
817.934	20145
818.075	20256
818.216	20393
818.356	20202
818.497	20058
818.638	19856
818.778	19902
818.919	19868
819.06	19955
819.2	20126
819.341	20130
819.481	20130
819.622	20172
819.762	20431
819.903	20298
820.043	20320
820.184	20339
820.324	20225
820.465	20309
820.605	20256
820.746	20157
820.886	20001
821.026	20282
821.167	20084
821.307	20214
821.447	20183
821.588	19947
821.728	19883
821.868	19791
822.008	19609
822.149	19460
822.289	19582
822.429	19247
822.569	19240
822.709	19297
822.849	19080
822.99	19099
823.13	19004
823.27	19156
823.41	19004
823.55	18764
823.69	19038
823.83	18954
823.97	18779
824.11	18726
824.25	18726
824.389	18738
824.529	18726
824.669	18696
824.809	18825
824.949	18760
825.089	18810
825.228	18757
825.368	18490
825.508	18597
825.648	18521
825.787	18506
825.927	18582
826.067	18551
826.206	18547
826.346	18555
826.485	18661
826.625	18528
826.765	18650
826.904	18517
827.044	18247
827.183	18232
827.323	18186
827.462	18311
827.601	18224
827.741	18197
827.88	18171
828.02	18106
828.159	18102
828.298	18289
828.437	18311
828.577	18091
828.716	18323
828.855	18224
828.994	17977
829.134	17954
829.273	18129
829.412	17920
829.551	17916
829.69	17923
829.829	17920
829.968	17958
830.107	17939
830.246	17897
830.385	17821
830.524	17840
830.663	17748
830.802	17661
830.941	17608
831.08	17665
831.219	17604
831.357	17573
831.496	17680
831.635	17547
831.774	17520
831.913	17535
832.051	17284
832.19	17311
832.329	17315
832.467	17368
832.606	17113
832.744	17045
832.883	17227
833.022	17208
833.16	17197
833.299	17311
833.437	17341
833.576	17269
833.714	17322
833.852	17322
833.991	17337
834.129	17299
834.267	17414
834.406	17334
834.544	17299
834.682	17242
834.821	17417
834.959	17448
835.097	17299
835.235	17364
835.373	17318
835.511	17395
835.65	17284
835.788	17223
835.926	17079
836.064	16995
836.202	16976
836.34	17239
836.478	17258
836.615	17170
836.753	17265
836.891	17288
837.029	17269
837.167	17132
837.305	17064
837.443	16984
837.58	17033
837.718	17113
837.856	17181
837.993	17083
838.131	17102
838.269	16987
838.406	16942
838.544	16881
838.681	16778
838.819	16679
838.956	16649
839.094	16611
839.231	16573
839.369	16733
839.506	17041
839.643	16869
839.781	16630
839.918	16626
840.055	16592
840.193	16519
840.33	16592
840.467	16592
840.604	16599
840.742	16824
840.879	16527
841.016	16523
841.153	16558
841.29	16683
841.427	16561
841.564	16641
841.701	16710
841.838	16626
841.975	16352
842.112	16440
842.249	16405
842.385	16314
842.522	16500
842.659	16390
842.796	16310
842.933	16333
843.069	16325
843.206	16295
843.343	16360
843.479	16421
843.616	16455
843.752	16131
843.889	16150
844.025	16280
844.162	16082
844.298	16246
844.435	16177
844.571	16090
844.708	16207
844.844	16341
844.98	16230
845.117	16371
845.253	16147
845.389	16112
845.525	16295
845.661	16352
845.798	16234
845.934	16470
846.07	16493
846.206	16558
846.342	16508
846.478	16204
846.614	16040
846.75	15781
846.886	15720
847.022	15888
847.158	15778
847.294	15766
847.429	15838
847.565	15686
847.701	15888
847.837	15481
847.972	15412
848.108	15542
848.244	15526
848.379	15351
848.515	15321
848.65	15264
848.786	15340
848.921	15344
849.057	15466
849.192	15370
849.328	15389
849.463	15374
849.598	15222
849.734	15192
849.869	15233
850.004	15085
850.14	15066
850.275	15112
850.41	15051
850.545	15055
850.68	15062
850.815	15074
850.95	15043
851.085	15321
851.22	15161
851.355	15032
851.49	15093
851.625	15001
851.76	14971
851.895	14956
852.03	14952
852.165	15028
852.299	15089
852.434	15203
852.569	15165
852.703	15051
852.838	15218
852.973	15123
853.107	15264
853.242	14956
853.376	15005
853.511	14800
853.645	14887
853.78	15058
853.914	15017
854.048	14956
854.183	14902
854.317	14948
854.451	15100
854.585	14971
854.72	14895
854.854	15020
854.988	14887
855.122	14971
855.256	14781
855.39	14979
855.524	15047
855.658	15001
855.792	14891
855.926	14899
856.06	14994
856.194	15081
856.327	14944
856.461	14906
856.595	14868
856.729	14876
856.862	14986
856.996	15017
857.13	14906
857.263	15066
857.397	15097
857.53	14910
857.664	15051
857.797	14944
857.931	14967
858.064	14960
858.197	15032
858.331	14979
858.464	14883
858.597	14872
858.731	14963
858.864	14876
858.997	14910
859.13	14952
859.263	14982
859.396	15013
859.529	14906
859.662	14925
859.795	14868
859.928	14887
860.061	15036
860.194	15161
860.327	14960
860.46	14899
860.592	14979
860.725	15047
860.858	15062
860.99	14944
861.123	14864
861.256	14807
861.388	14998
861.521	15591
861.653	14800
861.786	14712
861.918	14792
862.05	14796
862.183	14845
862.315	14941
862.447	14921
862.58	14891
862.712	14705
862.844	14705
862.976	14792
863.108	14807
863.24	15089
863.372	14670
863.504	14693
863.636	14655
863.768	14861
863.9	14720
864.032	14617
864.164	14705
864.296	14655
864.428	14781
864.559	14800
864.691	14758
864.823	14743
864.954	14769
865.086	14712
865.217	14743
865.349	14648
865.48	14724
865.612	14686
865.743	14800
865.875	14636
866.006	14632
866.137	14678
866.269	14670
866.4	14686
866.531	14674
866.662	14568
866.793	14629
866.924	14549
867.055	14632
867.186	14625
867.317	14659
867.448	14556
867.579	14571
867.71	14571
867.841	14560
867.972	14663
868.103	14655
868.233	14724
868.364	14629
868.495	14823
868.625	14853
868.756	14925
868.886	14823
869.017	14952
869.147	14986
869.278	15009
869.408	14918
869.539	14899
869.669	15001
869.799	14960
869.929	15055
870.06	15085
870.19	15256
870.32	15157
870.45	15397
870.58	15245
870.71	15424
870.84	15416
870.97	15355
871.1	15279
871.23	15504
871.36	15462
871.489	15431
871.619	15397
871.749	15553
871.879	15584
872.008	15606
872.138	15523
872.267	15511
872.397	15405
872.526	15397
872.656	15466
872.785	15454
872.915	15447
873.044	15591
873.173	15561
873.303	15557
873.432	15671
873.561	15637
873.69	15492
873.819	15549
873.948	15652
874.077	15526
874.206	15648
874.335	15648
874.464	15705
874.593	15774
874.722	15808
874.851	15915
874.979	15835
875.108	15968
875.237	15876
875.365	15774
875.494	15998
875.623	15907
875.751	15766
875.88	15934
876.008	15968
876.136	16029
876.265	16333
876.393	16348
876.521	16413
876.65	16371
876.778	16204
876.906	16242
877.034	16265
877.162	16268
877.29	16246
877.418	16265
877.546	16363
877.674	16303
877.802	16375
877.93	16265
878.058	16242
878.185	16166
878.313	16291
878.441	16382
878.568	16280
878.696	16299
878.824	16413
878.951	16512
879.079	16634
879.206	16752
879.333	16622
879.461	16500
879.588	16729
879.715	16755
879.842	16881
879.97	16580
880.097	16242
880.224	16310
880.351	16249
880.478	16257
880.605	16150
880.732	16215
880.859	16493
880.986	16344
881.112	16230
881.239	16211
881.366	15972
881.493	15854
881.619	15747
881.746	15888
881.872	15835
881.999	15827
882.125	15861
882.252	15823
882.378	15903
882.505	16032
882.631	15770
882.757	15625
882.883	15671
883.01	15709
883.136	15568
883.262	15519
883.388	15511
883.514	15591
883.64	15709
883.766	15762
883.892	15496
884.018	15507
884.143	15633
884.269	15804
884.395	15412
884.52	15386
884.646	15340
884.772	15283
884.897	15275
885.023	15340
885.148	15466
885.274	15496
885.399	15587
885.524	15408
885.65	15454
885.775	15325
885.9	15329
886.025	15329
886.15	15374
886.275	15260
886.4	15192
886.525	15374
886.65	15260
886.775	15291
886.9	15458
887.025	15584
887.149	15378
887.274	15165
887.399	15150
887.523	15104
887.648	15081
887.773	15039
887.897	15131
888.021	15142
888.146	15077
888.27	15165
888.395	15230
888.519	15135
888.643	15256
888.767	15241
888.891	15047
889.015	14918
889.139	14994
889.263	14986
889.387	15104
889.511	15180
889.635	15062
889.759	14918
889.883	15001
890.006	15001
890.13	15066
890.254	14849
890.377	15028
890.501	14819
890.624	14819
890.748	14864
890.871	14739
890.995	14636
891.118	14575
891.241	14648
891.364	14651
891.488	14861
891.611	14583
891.734	14655
891.857	14819
891.98	14731
892.103	14773
892.226	14640
892.349	14689
892.471	14488
892.594	14678
892.717	14659
892.839	14625
892.962	14708
893.085	14777
893.207	14648
893.33	14408
893.452	14564
893.575	14815
893.697	14621
893.819	14788
893.941	14876
894.064	14777
894.186	14701
894.308	14621
894.43	14735
894.552	14834
894.674	14811
894.796	14579
894.918	14739
895.04	14788
895.161	14792
895.283	14785
895.405	14697
895.526	14842
895.648	14705
895.769	14800
895.891	14864
896.012	14899
896.134	14872
896.255	14891
896.376	14689
896.498	14769
896.619	14834
896.74	14823
896.861	14868
896.982	15036
897.103	15233
897.224	15184
897.345	15001
897.466	15001
897.587	15081
897.708	15188
897.828	15070
897.949	15032
898.07	14910
898.19	15157
898.311	15123
898.431	15123
898.552	15195
898.672	15203
898.792	15268
898.913	15176
899.033	15123
899.153	14937
899.273	14891
899.393	14880
899.513	15001
899.633	15036
899.753	15036
899.873	14910
899.993	15032
900.113	14948
900.232	14986
900.352	15020
900.472	14883
900.591	14743
900.711	14891
900.83	14743
900.95	14925
901.069	14944
901.189	14872
901.308	14522
901.427	14511
901.546	14594
901.665	14571
901.784	14533
901.904	14381
902.023	14298
902.141	14153
902.26	14202
902.379	14142
902.498	14130
902.617	14035
902.735	14187
902.854	14062
902.973	14031
903.091	13826
903.21	13799
903.328	13761
903.446	13666
903.565	13620
903.683	13616
903.801	13472
903.919	13651
904.038	13662
904.156	13343
904.274	13445
904.392	13449
904.51	13358
904.627	13445
904.745	13449
904.863	13575
904.981	13320
905.098	13091
905.216	13133
905.334	13198
905.451	13164
905.569	13099
905.686	13145
905.803	13110
905.921	12943
906.038	13076
906.155	13031
906.272	12890
906.389	12825
906.506	12741
906.623	12719
906.74	12669
906.857	12593
906.974	12555
907.091	12734
907.208	12909
907.324	12692
907.441	12665
907.557	12433
907.674	12467
907.79	12346
907.907	12334
908.023	12475
908.139	12502
908.256	12407
908.372	12350
908.488	12346
908.604	12281
908.72	12235
908.836	12228
908.952	12220
909.068	12213
909.184	12300
909.3	12171
909.415	12243
909.531	12247
909.647	11954
909.762	11996
909.878	11988
909.993	12015
910.108	11920
910.224	12026
910.339	11984
910.454	11874
910.57	11889
910.685	11832
910.8	12087
910.915	11977
911.03	11836
911.145	11745
911.259	11653
911.374	11699
911.489	11596
911.604	11592
911.718	11455
911.833	11463
911.947	11360
912.062	11303
912.176	11368
912.291	11436
912.405	11387
912.519	11646
912.633	11684
912.748	11486
912.862	11429
912.976	11288
913.09	11071
913.204	11284
913.318	11330
913.431	11364
913.545	11376
913.659	11379
913.772	11292
913.886	11254
914	11162
914.113	11258
914.226	11269
914.34	11223
914.453	11064
914.566	11292
914.68	11090
914.793	11113
914.906	10900
915.019	10904
915.132	10854
915.245	10930
915.358	10873
915.47	10873
915.583	10961
915.696	10900
915.809	10957
915.921	11075
916.034	10908
916.146	10877
916.259	10812
916.371	10919
916.483	10938
916.595	10717
916.708	10782
916.82	10790
916.932	10793
917.044	10831
917.156	10790
917.268	10702
917.38	10672
917.491	10698
917.603	10687
917.715	10748
917.826	10812
917.938	10714
918.049	10546
918.161	10687
918.272	10797
918.384	10839
918.495	10698
918.606	10603
918.717	10436
918.828	10634
918.939	10645
919.05	10466
919.161	10645
919.272	10322
919.383	10485
919.494	10664
919.604	10767
919.715	10615
919.826	10550
919.936	10546
920.047	10679
920.157	10580
920.267	10759
920.378	10637
920.488	10637
920.598	10771
920.708	11022
920.818	10801
920.928	10835
921.038	10946
921.148	10938
921.258	10630
921.368	10577
921.477	10432
921.587	10481
921.697	10356
921.806	10474
921.916	10322
922.025	10173
922.134	10158
922.244	10090
922.353	10196
922.462	9998
922.571	9968
922.68	9846
922.789	9804
922.898	9861
923.007	9808
923.116	9812
923.224	9857
923.333	9899
923.442	9728
923.55	9690
923.659	9709
923.767	9770
923.876	9679
923.984	9743
924.092	9622
924.201	9720
924.309	9694
924.417	9679
924.525	9587
924.633	9671
924.741	10565
924.849	9507
924.956	9591
925.064	9466
925.172	9363
925.279	9435
925.387	9466
925.494	9492
925.602	9572
925.709	9538
925.816	9340
925.924	9431
926.031	9576
926.138	9469
926.245	9481
926.352	9336
926.459	9492
926.566	9564
926.673	9416
926.779	9287
926.886	9332
926.993	9214
927.099	9214
927.206	9123
927.312	9093
927.419	9123
927.525	9214
927.631	9233
927.737	9036
927.843	9116
927.95	8921
928.056	9017
928.162	9104
928.267	9097
928.373	9709
928.479	9104
928.585	8963
928.69	9116
928.796	9108
928.901	8971
929.007	8826
929.112	8960
929.218	8960
929.323	8845
929.428	8857
929.533	8948
929.638	8800
929.743	8838
929.848	8899
929.953	8868
930.058	8773
930.163	8625
930.267	8667
930.372	8727
930.477	8621
930.581	8880
930.685	8708
930.79	8606
930.894	8648
930.998	8617
931.103	8686
931.207	8351
931.311	8301
931.415	8195
931.519	8058
931.623	8058
