Data from test_V78500241_1098.txt Node
Date: Fri Mar 25 14:41:21 CST 2022
User: usil
Spectrometer: V785-0024
Trigger mode: 0
Integration Time (sec): 4.000000E-1
Scans to average: 1
Nonlinearity correction enabled: false
Boxcar width: 0
Storing dark spectrum: false
XAxis mode: Wavelengths
Number of Pixels in Spectrum: 1024
>>>>>Begin Spectral Data<<<<<
801.071	22637
801.214	22618
801.356	22325
801.499	22207
801.641	22036
801.783	22010
801.926	22150
802.068	22078
802.211	21960
802.353	21816
802.496	21622
802.638	21477
802.78	21515
802.923	21374
803.065	21408
803.208	21367
803.35	21496
803.492	21473
803.635	21564
803.777	21424
803.919	21443
804.061	21762
804.204	21420
804.346	21431
804.488	21291
804.63	21264
804.773	21233
804.915	21393
805.057	21538
805.199	21218
805.341	21435
805.483	21466
805.626	21443
805.768	21332
805.91	21161
806.052	21428
806.194	21199
806.336	21511
806.478	21264
806.62	21408
806.762	21485
806.904	21595
807.046	21682
807.188	21739
807.33	21736
807.472	21816
807.614	21675
807.756	21770
807.898	21663
808.04	21511
808.182	21561
808.324	21633
808.465	21705
808.607	22029
808.749	22067
808.891	22230
809.033	22230
809.174	22143
809.316	22010
809.458	22055
809.6	21968
809.741	21930
809.883	21816
810.025	22090
810.166	22063
810.308	22017
810.45	21911
810.591	21808
810.733	21774
810.875	21500
811.016	21603
811.158	21435
811.299	21705
811.441	21797
811.582	21648
811.724	21553
811.865	21583
812.007	21530
812.148	21606
812.29	21435
812.431	21660
812.573	21842
812.714	22032
812.855	21884
812.997	22097
813.138	22181
813.279	22166
813.421	21994
813.562	21991
813.703	21888
813.845	21698
813.986	21447
814.127	21279
814.268	21146
814.41	21138
814.551	21112
814.692	21104
814.833	20956
814.974	21138
815.115	21077
815.256	21032
815.397	20944
815.539	20994
815.68	20769
815.821	20807
815.962	20811
816.103	20758
816.244	20777
816.385	20590
816.526	20499
816.666	20450
816.807	20271
816.948	20305
817.089	20351
817.23	20256
817.371	20309
817.512	20157
817.653	20195
817.793	20202
817.934	20210
818.075	20218
818.216	20210
818.356	20282
818.497	20024
818.638	19883
818.778	19974
818.919	19967
819.06	20035
819.2	20001
819.341	20058
819.481	20077
819.622	20252
819.762	20415
819.903	20366
820.043	20233
820.184	20149
820.324	20305
820.465	20229
820.605	20180
820.746	20096
820.886	20046
821.026	20077
821.167	20176
821.307	20168
821.447	20065
821.588	20043
821.728	19845
821.868	19765
822.008	19483
822.149	19506
822.289	19624
822.429	19377
822.569	19270
822.709	19247
822.849	19171
822.99	19053
823.13	19034
823.27	19019
823.41	18920
823.55	18772
823.69	18951
823.83	18878
823.97	18916
824.11	18749
824.25	18642
824.389	18585
824.529	18791
824.669	18681
824.809	18745
824.949	18848
825.089	18768
825.228	18798
825.368	18486
825.508	18601
825.648	18517
825.787	18452
825.927	18528
826.067	18418
826.206	18418
826.346	18471
826.485	18555
826.625	18475
826.765	18665
826.904	18536
827.044	18216
827.183	18300
827.323	18076
827.462	18205
827.601	18197
827.741	18133
827.88	18136
828.02	17931
828.159	18163
828.298	18152
828.437	18098
828.577	18205
828.716	18281
828.855	18091
828.994	17904
829.134	17885
829.273	17923
829.412	17923
829.551	17870
829.69	17996
829.829	17882
829.968	18015
830.107	17965
830.246	17950
830.385	17866
830.524	17745
830.663	17745
830.802	17581
830.941	17459
831.08	17562
831.219	17490
831.357	17570
831.496	17756
831.635	17547
831.774	17455
831.913	17448
832.051	17307
832.19	17299
832.329	17330
832.467	17273
832.606	17178
832.744	17208
832.883	17303
833.022	17235
833.16	17212
833.299	17337
833.437	17227
833.576	17376
833.714	17242
833.852	17280
833.991	17288
834.129	17368
834.267	17315
834.406	17239
834.544	17326
834.682	17341
834.821	17288
834.959	17570
835.097	17121
835.235	17425
835.373	17273
835.511	17364
835.65	17079
835.788	17143
835.926	17041
836.064	16961
836.202	16984
836.34	17166
836.478	17273
836.615	17212
836.753	17204
836.891	17265
837.029	17216
837.167	17212
837.305	17155
837.443	17143
837.58	16934
837.718	17147
837.856	17037
837.993	16869
838.131	16995
838.269	16949
838.406	16858
838.544	16786
838.681	16755
838.819	16641
838.956	16584
839.094	16569
839.231	16641
839.369	16683
839.506	16816
839.643	16858
839.781	16538
839.918	16546
840.055	16603
840.193	16694
840.33	16599
840.467	16664
840.604	16706
840.742	16713
840.879	16398
841.016	16580
841.153	16497
841.29	16740
841.427	16500
841.564	16634
841.701	16512
841.838	16577
841.975	16561
842.112	16497
842.249	16314
842.385	16367
842.522	16561
842.659	16322
842.796	16234
842.933	16402
843.069	16265
843.206	16287
843.343	16386
843.479	16318
843.616	16356
843.752	16074
843.889	16154
844.025	16417
844.162	16112
844.298	16276
844.435	16158
844.571	15994
844.708	16124
844.844	16344
844.98	16318
845.117	16318
845.253	16112
845.389	16067
845.525	16093
845.661	16242
845.798	16265
845.934	16440
846.07	16314
846.206	16413
846.342	16432
846.478	16169
846.614	15888
846.75	15690
846.886	15800
847.022	15770
847.158	15732
847.294	15675
847.429	15736
847.565	15625
847.701	15979
847.837	15378
847.972	15351
848.108	15572
848.244	15378
848.379	15317
848.515	15325
848.65	15199
848.786	15294
848.921	15310
849.057	15405
849.192	15439
849.328	15245
849.463	15321
849.598	15272
849.734	15298
849.869	15199
850.004	15150
850.14	15081
850.275	15024
850.41	14937
850.545	15005
850.68	15070
850.815	15112
850.95	14918
851.085	15188
851.22	15173
851.355	15051
851.49	15013
851.625	15017
851.76	15097
851.895	14906
852.03	14872
852.165	14967
852.299	15058
852.434	15176
852.569	15024
852.703	15176
852.838	15184
852.973	15211
853.107	15157
853.242	15051
853.376	14918
853.511	14895
853.645	14948
853.78	14948
853.914	14868
854.048	14826
854.183	14952
854.317	14899
854.451	15066
854.585	14899
854.72	14929
854.854	15005
854.988	14842
855.122	14902
855.256	14800
855.39	14963
855.524	15032
855.658	14963
855.792	14929
855.926	14921
856.06	14975
856.194	15070
856.327	14937
856.461	14933
856.595	14925
856.729	14883
856.862	14963
856.996	14933
857.13	15005
857.263	14998
857.397	14979
857.53	14902
857.664	14823
857.797	14887
857.931	15001
858.064	14937
858.197	14979
858.331	14914
858.464	14895
858.597	14785
858.731	14876
858.864	15028
858.997	14868
859.13	15062
859.263	14941
859.396	15009
859.529	14937
859.662	14807
859.795	14929
859.928	15017
860.061	14979
860.194	15146
860.327	14982
860.46	14853
860.592	15066
860.725	15051
860.858	15013
860.99	14899
861.123	14857
861.256	14902
861.388	14895
861.521	15644
861.653	14785
861.786	14762
861.918	14804
862.05	14788
862.183	14781
862.315	14937
862.447	14986
862.58	14853
862.712	14705
862.844	14594
862.976	14815
863.108	14655
863.24	15245
863.372	14610
863.504	14590
863.636	14705
863.768	14720
863.9	14708
864.032	14552
864.164	14579
864.296	14735
864.428	14686
864.559	14800
864.691	14804
864.823	14758
864.954	14716
865.086	14743
865.217	14644
865.349	14465
865.48	14648
865.612	14640
865.743	14861
865.875	14758
866.006	14617
866.137	14838
866.269	14674
866.4	14659
866.531	14701
866.662	14610
866.793	14583
866.924	14648
867.055	14625
867.186	14758
867.317	14632
867.448	14541
867.579	14602
867.71	14518
867.841	14552
867.972	14674
868.103	14617
868.233	14697
868.364	14682
868.495	14674
868.625	14876
868.756	14971
868.886	14769
869.017	14880
869.147	15017
869.278	14971
869.408	14994
869.539	14914
869.669	14990
869.799	14921
869.929	15009
870.06	15058
870.19	15252
870.32	15176
870.45	15245
870.58	15241
870.71	15450
870.84	15447
870.97	15321
871.1	15241
871.23	15454
871.36	15496
871.489	15359
871.619	15416
871.749	15515
871.879	15599
872.008	15576
872.138	15485
872.267	15530
872.397	15424
872.526	15332
872.656	15310
872.785	15424
872.915	15416
873.044	15599
873.173	15477
873.303	15549
873.432	15614
873.561	15557
873.69	15481
873.819	15587
873.948	15534
874.077	15599
874.206	15625
874.335	15572
874.464	15701
874.593	15766
874.722	15793
874.851	15876
874.979	15895
875.108	15922
875.237	15835
875.365	15690
875.494	15789
875.623	15945
875.751	15743
875.88	15888
876.008	16006
876.136	16082
876.265	16185
876.393	16405
876.521	16284
876.65	16344
876.778	16276
876.906	16173
877.034	16249
877.162	16329
877.29	16124
877.418	16306
877.546	16253
877.674	16352
877.802	16280
877.93	16337
878.058	16181
878.185	16185
878.313	16394
878.441	16246
878.568	16188
878.696	16249
878.824	16428
878.951	16360
879.079	16615
879.206	16599
879.333	16615
879.461	16554
879.588	16653
879.715	16729
879.842	16755
879.97	16481
880.097	16306
880.224	16181
880.351	16268
880.478	16169
880.605	16135
880.732	16139
880.859	16318
880.986	16234
881.112	16177
881.239	16101
881.366	15895
881.493	15850
881.619	15755
881.746	15873
881.872	15876
881.999	15892
882.125	15907
882.252	15861
882.378	15827
882.505	15892
882.631	15759
882.757	15572
882.883	15644
883.01	15572
883.136	15663
883.262	15481
883.388	15519
883.514	15637
883.64	15637
883.766	15667
883.892	15367
884.018	15538
884.143	15675
884.269	15694
884.395	15488
884.52	15306
884.646	15397
884.772	15203
884.897	15180
885.023	15302
885.148	15420
885.274	15481
885.399	15397
885.524	15260
885.65	15359
885.775	15336
885.9	15329
886.025	15401
886.15	15298
886.275	15310
886.4	15279
886.525	15325
886.65	15264
886.775	15329
886.9	15302
887.025	15542
887.149	15370
887.274	15176
887.399	15116
887.523	15043
887.648	15036
887.773	15032
887.897	15249
888.021	15207
888.146	15100
888.27	15195
888.395	15252
888.519	15195
888.643	15176
888.767	15207
888.891	15005
889.015	15005
889.139	15017
889.263	14998
889.387	15032
889.511	15108
889.635	15085
889.759	14929
889.883	15058
890.006	15005
890.13	15001
890.254	14864
890.377	14975
890.501	14762
890.624	14701
890.748	14842
890.871	14708
890.995	14636
891.118	14610
891.241	14621
891.364	14785
891.488	14727
891.611	14530
891.734	14731
891.857	14807
891.98	14667
892.103	14746
892.226	14644
892.349	14678
892.471	14450
892.594	14629
892.717	14670
892.839	14625
892.962	14617
893.085	14648
893.207	14587
893.33	14507
893.452	14667
893.575	14739
893.697	14621
893.819	14830
893.941	14906
894.064	14823
894.186	14594
894.308	14590
894.43	14727
894.552	14921
894.674	14815
894.796	14610
894.918	14587
895.04	14648
895.161	14785
895.283	14724
895.405	14632
895.526	14621
895.648	14876
895.769	14724
895.891	14819
896.012	14937
896.134	14800
896.255	14739
896.376	14724
896.498	14743
896.619	14754
896.74	14830
896.861	14906
896.982	15077
897.103	15310
897.224	15036
897.345	14982
897.466	14986
897.587	14990
897.708	15135
897.828	15150
897.949	15024
898.07	14925
898.19	15017
898.311	15142
898.431	15074
898.552	15176
898.672	15203
898.792	15287
898.913	15154
899.033	15009
899.153	15028
899.273	14906
899.393	14971
899.513	14853
899.633	14921
899.753	15077
899.873	14929
899.993	14979
900.113	15005
900.232	15093
900.352	14925
900.472	14861
900.591	14857
900.711	14925
900.83	14819
900.95	14952
901.069	14967
901.189	14727
901.308	14518
901.427	14579
901.546	14594
901.665	14454
901.784	14610
901.904	14396
902.023	14320
902.141	14149
902.26	14183
902.379	14187
902.498	14062
902.617	14092
902.735	14115
902.854	14050
902.973	13974
903.091	13791
903.21	13765
903.328	13780
903.446	13639
903.565	13685
903.683	13639
903.801	13609
903.919	13586
904.038	13552
904.156	13460
904.274	13480
904.392	13525
904.51	13316
904.627	13434
904.745	13457
904.863	13537
904.981	13225
905.098	13042
905.216	13053
905.334	13099
905.451	13202
905.569	13137
905.686	13156
905.803	13152
905.921	12909
906.038	13046
906.155	12962
906.272	12798
906.389	12825
906.506	12817
906.623	12707
906.74	12585
906.857	12669
906.974	12665
907.091	12810
907.208	12814
907.324	12776
907.441	12623
907.557	12544
907.674	12464
907.79	12334
907.907	12399
908.023	12441
908.139	12384
908.256	12330
908.372	12388
908.488	12292
908.604	12197
908.72	12251
908.836	12117
908.952	12209
909.068	12197
909.184	12292
909.3	12266
909.415	12163
909.531	12235
909.647	12015
909.762	11958
909.878	11965
909.993	11927
910.108	11958
910.224	11969
910.339	11939
910.454	11916
910.57	11794
910.685	11821
910.8	11996
910.915	11954
911.03	11920
911.145	11668
911.259	11630
911.374	11707
911.489	11665
911.604	11490
911.718	11395
911.833	11440
911.947	11299
912.062	11185
912.176	11452
912.291	11433
912.405	11448
912.519	11524
912.633	11649
912.748	11463
912.862	11414
912.976	11254
913.09	11140
913.204	11185
913.318	11296
913.431	11318
913.545	11349
913.659	11395
913.772	11170
913.886	11197
914	11124
914.113	11189
914.226	11315
914.34	11261
914.453	11140
914.566	11189
914.68	11079
914.793	10980
914.906	11010
915.019	10809
915.132	10843
915.245	10847
915.358	10809
915.47	10919
915.583	10889
915.696	10873
915.809	10968
915.921	11048
916.034	10850
916.146	10831
916.259	10767
916.371	10889
916.483	10835
916.595	10824
916.708	10915
916.82	10858
916.932	10759
917.044	10812
917.156	10904
917.268	10626
917.38	10637
917.491	10706
917.603	10683
917.715	10866
917.826	10759
917.938	10752
918.049	10630
918.161	10710
918.272	10763
918.384	10774
918.495	10748
918.606	10512
918.717	10531
918.828	10596
918.939	10535
919.05	10512
919.161	10565
919.272	10276
919.383	10470
919.494	10607
919.604	10717
919.715	10577
919.826	10478
919.936	10485
920.047	10656
920.157	10603
920.267	10809
920.378	10588
920.488	10554
920.598	10824
920.708	10862
920.818	10694
920.928	10812
921.038	11045
921.148	10938
921.258	10626
921.368	10459
921.477	10443
921.587	10443
921.697	10341
921.806	10447
921.916	10268
922.025	10185
922.134	10150
922.244	10067
922.353	10025
922.462	10059
922.571	9915
922.68	9865
922.789	9846
922.898	9778
923.007	9724
923.116	9835
923.224	9793
923.333	9865
923.442	9720
923.55	9698
923.659	9675
923.767	9766
923.876	9682
923.984	9800
924.092	9629
924.201	9724
924.309	9652
924.417	9694
924.525	9614
924.633	9667
924.741	10569
924.849	9439
924.956	9587
925.064	9462
925.172	9447
925.279	9412
925.387	9469
925.494	9367
925.602	9576
925.709	9481
925.816	9397
925.924	9485
926.031	9515
926.138	9424
926.245	9462
926.352	9412
926.459	9542
926.566	9553
926.673	9386
926.779	9283
926.886	9275
926.993	9195
927.099	9131
927.206	9150
927.312	9093
927.419	9222
927.525	9184
927.631	9127
927.737	9184
927.843	9017
927.95	8929
928.056	9020
928.162	9066
928.267	9154
928.373	9648
928.479	9116
928.585	8902
928.69	9047
928.796	9112
928.901	8925
929.007	8811
929.112	8971
929.218	8971
929.323	8857
929.428	8823
929.533	8994
929.638	8815
929.743	8792
929.848	8849
929.953	8853
930.058	8781
930.163	8651
930.267	8644
930.372	8792
930.477	8667
930.581	8842
930.685	8727
930.79	8606
930.894	8594
930.998	8499
931.103	8754
931.207	8324
931.311	8298
931.415	8301
931.519	8088
931.623	8031
