Data from test_V78500241_693.txt Node
Date: Fri Mar 25 14:38:32 CST 2022
User: usil
Spectrometer: V785-0024
Trigger mode: 0
Integration Time (sec): 4.000000E-1
Scans to average: 1
Nonlinearity correction enabled: false
Boxcar width: 0
Storing dark spectrum: false
XAxis mode: Wavelengths
Number of Pixels in Spectrum: 1024
>>>>>Begin Spectral Data<<<<<
801.071	28025
801.214	27941
801.356	27587
801.499	27519
801.641	27313
801.783	27370
801.926	27363
802.068	27382
802.211	27237
802.353	27085
802.496	26902
802.638	26853
802.78	26906
802.923	26853
803.065	26743
803.208	26693
803.35	26735
803.492	27085
803.635	27032
803.777	26956
803.919	26830
804.061	27203
804.204	27085
804.346	26990
804.488	27104
804.63	27104
804.773	27039
804.915	27169
805.057	27450
805.199	27256
805.341	27610
805.483	27542
805.626	27652
805.768	27538
805.91	27789
806.052	27812
806.194	27994
806.336	28284
806.478	28265
806.62	28451
806.762	28809
806.904	29216
807.046	29668
807.188	30083
807.33	30407
807.472	31259
807.614	31647
807.756	32594
807.898	33724
808.04	35402
808.182	37392
808.324	40032
808.465	42924
808.607	46325
808.749	49164
808.891	51066
809.033	51070
809.174	49601
809.316	46748
809.458	43088
809.6	39751
809.741	36913
809.883	34744
810.025	33321
810.166	32305
810.308	31518
810.45	30525
810.591	30091
810.733	29668
810.875	29261
811.016	28869
811.158	28755
811.299	28622
811.441	28512
811.582	28394
811.724	28128
811.865	28025
812.007	27884
812.148	27819
812.29	27880
812.431	27835
812.573	27922
812.714	27914
812.855	27994
812.997	27983
813.138	28246
813.279	28029
813.421	27854
813.562	27720
813.703	27606
813.845	27359
813.986	27039
814.127	26933
814.268	26746
814.41	26697
814.551	26640
814.692	26659
814.833	26564
814.974	26549
815.115	26552
815.256	26434
815.397	26339
815.539	26488
815.68	26259
815.821	26024
815.962	26180
816.103	26153
816.244	25944
816.385	25898
816.526	25906
816.666	25582
816.807	25582
816.948	25594
817.089	25632
817.23	25567
817.371	25479
817.512	25499
817.653	25472
817.793	25400
817.934	25426
818.075	25449
818.216	25316
818.356	25381
818.497	25190
818.638	25072
818.778	25069
818.919	24966
819.06	25069
819.2	25255
819.341	25320
819.481	25213
819.622	25400
819.762	25590
819.903	25392
820.043	25476
820.184	25304
820.324	25274
820.465	25270
820.605	25320
820.746	25236
820.886	25126
821.026	25263
821.167	25050
821.307	25084
821.447	25042
821.588	24989
821.728	24871
821.868	24734
822.008	24540
822.149	24528
822.289	24566
822.429	24251
822.569	24087
822.709	24076
822.849	23843
822.99	23931
823.13	24098
823.27	23805
823.41	23821
823.55	23604
823.69	23775
823.83	23771
823.97	23665
824.11	23360
824.25	23543
824.389	23406
824.529	23611
824.669	23570
824.809	23554
824.949	23539
825.089	23554
825.228	23497
825.368	23216
825.508	23250
825.648	23288
825.787	23337
825.927	23254
826.067	23261
826.206	23227
826.346	23242
826.485	23246
826.625	23128
826.765	23364
826.904	23261
827.044	23014
827.183	23071
827.323	22957
827.462	23006
827.601	22904
827.741	23044
827.88	22946
828.02	22850
828.159	22812
828.298	22938
828.437	22904
828.577	22687
828.716	23022
828.855	22713
828.994	22538
829.134	22569
829.273	22641
829.412	22630
829.551	22660
829.69	22656
829.829	22607
829.968	22641
830.107	22634
830.246	22535
830.385	22440
830.524	22500
830.663	22474
830.802	22223
830.941	22211
831.08	22238
831.219	22272
831.357	22238
831.496	22363
831.635	22147
831.774	22025
831.913	22093
832.051	21949
832.19	22090
832.329	22185
832.467	21998
832.606	21884
832.744	21994
832.883	22204
833.022	22230
833.16	22116
833.299	22542
833.437	22500
833.576	22694
833.714	22873
833.852	22972
833.991	23018
834.129	23258
834.267	23162
834.406	23056
834.544	23060
834.682	23029
834.821	22790
834.959	22911
835.097	22493
835.235	22584
835.373	22428
835.511	22173
835.65	22044
835.788	22086
835.926	21804
836.064	21728
836.202	21781
836.34	21888
836.478	21899
836.615	21759
836.753	21854
836.891	21808
837.029	21739
837.167	21629
837.305	21545
837.443	21530
837.58	21466
837.718	21644
837.856	21545
837.993	21519
838.131	21439
838.269	21386
838.406	21428
838.544	21302
838.681	21089
838.819	21165
838.956	20944
839.094	20963
839.231	21028
839.369	21146
839.506	21226
839.643	21199
839.781	20872
839.918	20933
840.055	20876
840.193	20929
840.33	20853
840.467	20853
840.604	20910
840.742	21169
840.879	20796
841.016	20689
841.153	20773
841.29	20937
841.427	20971
841.564	21009
841.701	20826
841.838	20849
841.975	20800
842.112	20823
842.249	20769
842.385	20785
842.522	20941
842.659	20891
842.796	20697
842.933	20762
843.069	20762
843.206	20697
843.343	20762
843.479	20830
843.616	20880
843.752	20636
843.889	20815
844.025	20921
844.162	20895
844.298	21077
844.435	21180
844.571	21332
844.708	21682
844.844	22131
844.98	22421
845.117	23060
845.253	23977
845.389	25879
845.525	29691
845.661	35661
845.798	42612
845.934	47824
846.07	49590
846.206	48083
846.342	43141
846.478	36346
846.614	30296
846.75	26530
846.886	24091
847.022	22782
847.158	22021
847.294	21386
847.429	21013
847.565	20769
847.701	20830
847.837	20339
847.972	20088
848.108	20050
848.244	20073
848.379	20005
848.515	19662
848.65	19868
848.786	19647
848.921	19639
849.057	19814
849.192	19715
849.328	19635
849.463	19666
849.598	19449
849.734	19445
849.869	19510
850.004	19354
850.14	19335
850.275	19316
850.41	19282
850.545	19232
850.68	19221
850.815	19285
850.95	19213
851.085	19464
851.22	19407
851.355	19270
851.49	19183
851.625	19285
851.76	19354
851.895	19183
852.03	19247
852.165	19339
852.299	19335
852.434	19270
852.569	19426
852.703	19320
852.838	19422
852.973	19468
853.107	19537
853.242	19422
853.376	19362
853.511	19259
853.645	19327
853.78	19483
853.914	19422
854.048	19468
854.183	19457
854.317	19616
854.451	19708
854.585	19647
854.72	19453
854.854	19540
854.988	19400
855.122	19392
855.256	19114
855.39	19308
855.524	19415
855.658	19365
855.792	19301
855.926	19232
856.06	19274
856.194	19236
856.327	19095
856.461	19076
856.595	19171
856.729	19027
856.862	19244
856.996	19141
857.13	19168
857.263	19274
857.397	19122
857.53	18913
857.664	19133
857.797	19122
857.931	19213
858.064	19137
858.197	19122
858.331	19053
858.464	18844
858.597	18966
858.731	18795
858.864	18973
858.997	18905
859.13	19091
859.263	18985
859.396	18943
859.529	18977
859.662	18859
859.795	18844
859.928	18966
860.061	19027
860.194	19129
860.327	18962
860.46	19023
860.592	18973
860.725	18958
860.858	19012
860.99	19012
861.123	18757
861.256	18779
861.388	18977
861.521	19586
861.653	18757
861.786	18715
861.918	18715
862.05	18772
862.183	18878
862.315	18909
862.447	18882
862.58	18840
862.712	18608
862.844	18608
862.976	18677
863.108	18642
863.24	18947
863.372	18418
863.504	18566
863.636	18589
863.768	18639
863.9	18631
864.032	18494
864.164	18566
864.296	18566
864.428	18661
864.559	18502
864.691	18661
864.823	18688
864.954	18570
865.086	18521
865.217	18502
865.349	18422
865.48	18448
865.612	18506
865.743	18688
865.875	18528
866.006	18448
866.137	18448
866.269	18460
866.4	18502
866.531	18395
866.662	18407
866.793	18479
866.924	18544
867.055	18357
867.186	18528
867.317	18429
867.448	18338
867.579	18300
867.71	18277
867.841	18338
867.972	18391
868.103	18441
868.233	18422
868.364	18483
868.495	18502
868.625	18654
868.756	18810
868.886	18585
869.017	18741
869.147	18810
869.278	18734
869.408	18760
869.539	18673
869.669	18787
869.799	18692
869.929	18829
870.06	18787
870.19	18901
870.32	19053
870.45	19160
870.58	19148
870.71	19247
870.84	19225
870.97	19118
871.1	19095
871.23	19365
871.36	19415
871.489	19244
871.619	19392
871.749	19384
871.879	19460
872.008	19495
872.138	19377
872.267	19449
872.397	19354
872.526	19266
872.656	19350
872.785	19369
872.915	19453
873.044	19590
873.173	19597
873.303	19575
873.432	19685
873.561	19791
873.69	19647
873.819	19776
873.948	19780
874.077	19780
874.206	19750
874.335	19906
874.464	19947
874.593	20100
874.722	20145
874.851	20244
874.979	20248
875.108	20248
875.237	20233
875.365	20138
875.494	20294
875.623	20347
875.751	20317
875.88	20545
876.008	20575
876.136	20701
876.265	21058
876.393	21283
876.521	21028
876.65	21291
876.778	21245
876.906	21249
877.034	21146
877.162	21454
877.29	21424
877.418	21549
877.546	21709
877.674	21720
877.802	21892
877.93	22010
878.058	22063
878.185	22261
878.313	22618
878.441	23067
878.568	23227
878.696	23832
878.824	24688
878.951	25826
879.079	27439
879.206	29562
879.333	31594
879.461	33462
879.588	34401
879.715	34485
879.842	33549
879.97	31628
880.097	29535
880.224	27812
880.351	26648
880.478	25871
880.605	25240
880.732	24905
880.859	24677
880.986	24323
881.112	24273
881.239	24125
881.366	23999
881.493	23798
881.619	23756
881.746	23790
881.872	23958
881.999	23897
882.125	23901
882.252	24076
882.378	24038
882.505	24106
882.631	23992
882.757	23935
882.883	23954
883.01	23855
883.136	23965
883.262	23748
883.388	23741
883.514	23878
883.64	23828
883.766	23726
883.892	23623
884.018	23661
884.143	23767
884.269	23809
884.395	23691
884.52	23585
884.646	23592
884.772	23581
884.897	23570
885.023	23646
885.148	23554
885.274	23680
885.399	23414
885.524	23341
885.65	23140
885.775	22946
885.9	22862
886.025	22965
886.15	22717
886.275	22455
886.4	22299
886.525	22162
886.65	22097
886.775	21892
886.9	21941
887.025	22063
887.149	21690
887.274	21291
887.399	21321
887.523	21214
887.648	21043
887.773	20921
887.897	20994
888.021	20910
888.146	20750
888.27	20906
888.395	20967
888.519	20758
888.643	20720
888.767	20743
888.891	20583
889.015	20339
889.139	20305
889.263	20244
889.387	20358
889.511	20389
889.635	20244
889.759	20054
889.883	20100
890.006	20039
890.13	20126
890.254	19906
890.377	19852
890.501	19605
890.624	19609
890.748	19780
890.871	19518
890.995	19369
891.118	19400
891.241	19365
891.364	19327
891.488	19247
891.611	19335
891.734	19270
891.857	19331
891.98	19301
892.103	19236
892.226	19133
892.349	19107
892.471	18806
892.594	18935
892.717	19015
892.839	18939
892.962	18886
893.085	18947
893.207	18954
893.33	18646
893.452	18734
893.575	18779
893.697	18585
893.819	18905
893.941	18970
894.064	18779
894.186	18608
894.308	18509
894.43	18722
894.552	18715
894.674	18604
894.796	18521
894.918	18608
895.04	18448
895.161	18654
895.283	18608
895.405	18380
895.526	18437
895.648	18361
895.769	18471
895.891	18502
896.012	18502
896.134	18429
896.255	18418
896.376	18384
896.498	18395
896.619	18391
896.74	18445
896.861	18376
896.982	18715
897.103	18734
897.224	18608
897.345	18490
897.466	18422
897.587	18536
897.708	18665
897.828	18582
897.949	18426
898.07	18292
898.19	18532
898.311	18589
898.431	18433
898.552	18540
898.672	18639
898.792	18544
898.913	18528
899.033	18414
899.153	18311
899.273	18224
899.393	18376
899.513	18338
899.633	18300
899.753	18319
899.873	18197
899.993	18304
900.113	18213
900.232	18323
900.352	18266
900.472	18209
900.591	18106
900.711	18194
900.83	18095
900.95	18167
901.069	18186
901.189	17958
901.308	17665
901.427	17668
901.546	17718
901.665	17653
901.784	17707
901.904	17562
902.023	17459
902.141	17345
902.26	17197
902.379	17280
902.498	17147
902.617	17155
902.735	17094
902.854	17083
902.973	17014
903.091	16809
903.21	16736
903.328	16858
903.446	16615
903.565	16634
903.683	16599
903.801	16409
903.919	16485
904.038	16405
904.156	16291
904.274	16363
904.392	16257
904.51	16215
904.627	16215
904.745	16272
904.863	16287
904.981	16021
905.098	15911
905.216	15857
905.334	15937
905.451	15994
905.569	15907
905.686	15953
905.803	15975
905.921	15717
906.038	15827
906.155	15713
906.272	15652
906.389	15694
906.506	15542
906.623	15454
906.74	15431
906.857	15230
906.974	15359
907.091	15412
907.208	15492
907.324	15443
907.441	15245
907.557	15260
907.674	15112
907.79	15165
907.907	15154
908.023	15157
908.139	15169
908.256	15058
908.372	15036
908.488	14952
908.604	14807
908.72	14788
908.836	14788
908.952	14853
909.068	14880
909.184	14929
909.3	14796
909.415	14792
909.531	14845
909.647	14670
909.762	14571
909.878	14598
909.993	14644
910.108	14503
910.224	14545
910.339	14564
910.454	14537
910.57	14396
910.685	14309
910.8	14621
910.915	14507
911.03	14499
911.145	14263
911.259	14202
911.374	14240
911.489	14077
911.604	14096
911.718	13974
911.833	13978
911.947	13925
912.062	13769
912.176	13986
912.291	13913
912.405	13913
912.519	14142
912.633	14077
912.748	13944
912.862	13967
912.976	13769
913.09	13753
913.204	13712
913.318	13788
913.431	13887
913.545	13887
913.659	13871
913.772	13639
913.886	13651
914	13639
914.113	13693
914.226	13715
914.34	13753
914.453	13518
914.566	13658
914.68	13563
914.793	13453
914.906	13327
915.019	13392
915.132	13263
915.245	13293
915.358	13308
915.47	13396
915.583	13396
915.696	13324
915.809	13506
915.921	13426
916.034	13320
916.146	13187
916.259	13278
916.371	13369
916.483	13392
916.595	13304
916.708	13274
916.82	13289
916.932	13301
917.044	13247
917.156	13217
917.268	13118
917.38	13149
917.491	13019
917.603	12973
917.715	13129
917.826	13050
917.938	12996
918.049	12951
918.161	12966
918.272	13164
918.384	13103
918.495	13023
918.606	12829
918.717	12825
918.828	12798
918.939	12905
919.05	12681
919.161	12768
919.272	12646
919.383	12627
919.494	12890
919.604	12916
919.715	12795
919.826	12772
919.936	12856
920.047	12856
920.157	12817
920.267	12943
920.378	12772
920.488	12787
920.598	12924
920.708	13046
920.818	13034
920.928	12859
921.038	13027
921.148	13031
921.258	12772
921.368	12597
921.477	12555
921.587	12448
921.697	12376
921.806	12547
921.916	12338
922.025	12289
922.134	12216
922.244	12144
922.353	12262
922.462	12102
922.571	12007
922.68	11931
922.789	11779
922.898	11878
923.007	11714
923.116	11958
923.224	11908
923.333	11847
923.442	11680
923.55	11638
923.659	11691
923.767	11756
923.876	11619
923.984	11718
924.092	11585
924.201	11642
924.309	11581
924.417	11703
924.525	11604
924.633	11600
924.741	12532
924.849	11356
924.956	11444
925.064	11360
925.172	11307
925.279	11326
925.387	11334
925.494	11318
925.602	11497
925.709	11395
925.816	11250
925.924	11379
926.031	11497
926.138	11299
926.245	11379
926.352	11330
926.459	11345
926.566	11395
926.673	11250
926.779	11170
926.886	11140
926.993	10965
927.099	10976
927.206	10904
927.312	11018
927.419	11060
927.525	10980
927.631	11045
927.737	10885
927.843	10904
927.95	10759
928.056	10744
928.162	10805
928.267	10896
928.373	11360
928.479	10957
928.585	10596
928.69	10831
928.796	10923
928.901	10755
929.007	10618
929.112	10706
929.218	10729
929.323	10615
929.428	10618
929.533	10721
929.638	10561
929.743	10584
929.848	10611
929.953	10626
930.058	10584
930.163	10371
930.267	10280
930.372	10405
930.477	10363
930.581	10577
930.685	10398
930.79	10207
930.894	10242
930.998	10257
931.103	10341
931.207	9937
931.311	9949
931.415	9812
931.519	9682
931.623	9629
