Data from test_V78500241_3251.txt Node
Date: Fri Mar 25 14:56:21 CST 2022
User: usil
Spectrometer: V785-0024
Trigger mode: 0
Integration Time (sec): 4.000000E-1
Scans to average: 1
Nonlinearity correction enabled: false
Boxcar width: 0
Storing dark spectrum: false
XAxis mode: Wavelengths
Number of Pixels in Spectrum: 1024
>>>>>Begin Spectral Data<<<<<
801.071	22017
801.214	21892
801.356	21762
801.499	21523
801.641	21496
801.783	21355
801.926	21481
802.068	21336
802.211	21214
802.353	21184
802.496	20933
802.638	20948
802.78	20823
802.923	20727
803.065	20636
803.208	20746
803.35	20697
803.492	20697
803.635	20941
803.777	20781
803.919	20762
804.061	21020
804.204	20689
804.346	20632
804.488	20594
804.63	20708
804.773	20674
804.915	20621
805.057	20838
805.199	20693
805.341	20667
805.483	20845
805.626	20629
805.768	20568
805.91	20720
806.052	20670
806.194	20526
806.336	20773
806.478	20526
806.62	20552
806.762	20682
806.904	20861
807.046	20975
807.188	20842
807.33	20941
807.472	21043
807.614	20746
807.756	20864
807.898	20743
808.04	20644
808.182	20701
808.324	20701
808.465	20724
808.607	20990
808.749	20937
808.891	21032
809.033	21184
809.174	20960
809.316	20952
809.458	20952
809.6	20902
809.741	21032
809.883	21005
810.025	21100
810.166	21188
810.308	21260
810.45	21089
810.591	20990
810.733	20792
810.875	20811
811.016	20667
811.158	20659
811.299	20872
811.441	20857
811.582	20868
811.724	20682
811.865	20682
812.007	20773
812.148	20785
812.29	20743
812.431	20842
812.573	20963
812.714	21157
812.855	21226
812.997	21351
813.138	21485
813.279	21359
813.421	21173
813.562	21051
813.703	21043
813.845	20777
813.986	20655
814.127	20427
814.268	20290
814.41	20332
814.551	20362
814.692	20442
814.833	20191
814.974	20286
815.115	20278
815.256	20142
815.397	20084
815.539	20103
815.68	19849
815.821	19932
815.962	20122
816.103	19959
816.244	19856
816.385	19700
816.526	19639
816.666	19556
816.807	19514
816.948	19609
817.089	19571
817.23	19438
817.371	19476
817.512	19533
817.653	19388
817.793	19343
817.934	19438
818.075	19483
818.216	19343
818.356	19373
818.497	19293
818.638	19206
818.778	19042
818.919	19065
819.06	19175
819.2	19266
819.341	19316
819.481	19274
819.622	19381
819.762	19556
819.903	19529
820.043	19483
820.184	19438
820.324	19312
820.465	19403
820.605	19445
820.746	19384
820.886	19308
821.026	19343
821.167	19274
821.307	19346
821.447	19354
821.588	19301
821.728	19076
821.868	18977
822.008	18749
822.149	18753
822.289	18833
822.429	18547
822.569	18486
822.709	18490
822.849	18357
822.99	18311
823.13	18201
823.27	18327
823.41	18095
823.55	18045
823.69	18087
823.83	18186
823.97	18049
824.11	17847
824.25	17885
824.389	17824
824.529	17958
824.669	17923
824.809	17973
824.949	17946
825.089	17931
825.228	17802
825.368	17661
825.508	17680
825.648	17600
825.787	17668
825.927	17627
826.067	17551
826.206	17623
826.346	17684
826.485	17714
826.625	17585
826.765	17756
826.904	17687
827.044	17463
827.183	17402
827.323	17341
827.462	17497
827.601	17284
827.741	17433
827.88	17497
828.02	17166
828.159	17292
828.298	17296
828.437	17379
828.577	17277
828.716	17391
828.855	17376
828.994	17105
829.134	17079
829.273	17132
829.412	17014
829.551	16972
829.69	17147
829.829	17132
829.968	17064
830.107	17045
830.246	17178
830.385	17048
830.524	17060
830.663	16938
830.802	16771
830.941	16664
831.08	16702
831.219	16805
831.357	16729
831.496	16980
831.635	16637
831.774	16580
831.913	16645
832.051	16550
832.19	16474
832.329	16428
832.467	16363
832.606	16428
832.744	16341
832.883	16466
833.022	16394
833.16	16470
833.299	16550
833.437	16352
833.576	16493
833.714	16489
833.852	16481
833.991	16455
834.129	16436
834.267	16504
834.406	16436
834.544	16535
834.682	16352
834.821	16489
834.959	16641
835.097	16333
835.235	16596
835.373	16565
835.511	16481
835.65	16329
835.788	16257
835.926	16253
836.064	16150
836.202	16257
836.34	16428
836.478	16352
836.615	16394
836.753	16379
836.891	16409
837.029	16519
837.167	16432
837.305	16325
837.443	16284
837.58	16291
837.718	16322
837.856	16169
837.993	16147
838.131	16253
838.269	16128
838.406	16124
838.544	16128
838.681	15975
838.819	15915
838.956	15846
839.094	15789
839.231	15857
839.369	16040
839.506	16082
839.643	16116
839.781	15865
839.918	15766
840.055	15861
840.193	15804
840.33	15701
840.467	15789
840.604	15808
840.742	15991
840.879	15682
841.016	15637
841.153	15728
841.29	15937
841.427	15865
841.564	15778
841.701	15838
841.838	15762
841.975	15633
842.112	15743
842.249	15561
842.385	15580
842.522	15759
842.659	15614
842.796	15500
842.933	15542
843.069	15534
843.206	15511
843.343	15637
843.479	15614
843.616	15671
843.752	15332
843.889	15355
844.025	15454
844.162	15408
844.298	15469
844.435	15401
844.571	15310
844.708	15428
844.844	15511
844.98	15405
845.117	15401
845.253	15336
845.389	15218
845.525	15306
845.661	15146
845.798	15116
845.934	15203
846.07	15207
846.206	15230
846.342	15252
846.478	15116
846.614	14918
846.75	14975
846.886	14956
847.022	14918
847.158	14960
847.294	14857
847.429	14937
847.565	14963
847.701	15188
847.837	14735
847.972	14651
848.108	14720
848.244	14743
848.379	14610
848.515	14503
848.65	14469
848.786	14590
848.921	14545
849.057	14667
849.192	14598
849.328	14594
849.463	14533
849.598	14495
849.734	14419
849.869	14434
850.004	14343
850.14	14404
850.275	14263
850.41	14168
850.545	14199
850.68	14248
850.815	14267
850.95	14225
851.085	14522
851.22	14332
851.355	14275
851.49	14191
851.625	14252
851.76	14252
851.895	14191
852.03	14214
852.165	14259
852.299	14290
852.434	14294
852.569	14187
852.703	14370
852.838	14404
852.973	14465
853.107	14454
853.242	14358
853.376	14153
853.511	14092
853.645	14145
853.78	14248
853.914	14202
854.048	14183
854.183	14130
854.317	14233
854.451	14317
854.585	14111
854.72	14119
854.854	14149
854.988	14084
855.122	14073
855.256	14024
855.39	14168
855.524	14305
855.658	14336
855.792	14282
855.926	14176
856.06	14172
856.194	14286
856.327	14145
856.461	14081
856.595	14111
856.729	14088
856.862	14187
856.996	14191
857.13	14164
857.263	14240
857.397	14309
857.53	14115
857.664	14233
857.797	14259
857.931	14259
858.064	14324
858.197	14248
858.331	14161
858.464	14062
858.597	14027
858.731	14149
858.864	14092
858.997	14043
859.13	14221
859.263	14138
859.396	14271
859.529	14195
859.662	14077
859.795	14134
859.928	14168
860.061	14336
860.194	14396
860.327	14164
860.46	14164
860.592	14256
860.725	14298
860.858	14313
860.99	14100
861.123	14058
861.256	14100
861.388	14172
861.521	14952
861.653	13993
861.786	14008
861.918	14020
862.05	14149
862.183	14130
862.315	14142
862.447	14256
862.58	14218
862.712	13967
862.844	13856
862.976	13989
863.108	13982
863.24	14282
863.372	13776
863.504	13936
863.636	13936
863.768	13955
863.9	13955
864.032	13902
864.164	13925
864.296	13978
864.428	13982
864.559	14073
864.691	14035
864.823	14008
864.954	13989
865.086	13932
865.217	13921
865.349	13845
865.48	13852
865.612	13951
865.743	14100
865.875	13982
866.006	13811
866.137	13913
866.269	13932
866.4	13879
866.531	13807
866.662	13849
866.793	13887
866.924	13917
867.055	13936
867.186	13852
867.317	13852
867.448	13818
867.579	13906
867.71	13837
867.841	13887
867.972	13906
868.103	13986
868.233	13982
868.364	13997
868.495	14001
868.625	14168
868.756	14294
868.886	14100
869.017	14088
869.147	14313
869.278	14248
869.408	14183
869.539	14210
869.669	14233
869.799	14221
869.929	14332
870.06	14176
870.19	14484
870.32	14446
870.45	14499
870.58	14579
870.71	14632
870.84	14743
870.97	14537
871.1	14518
871.23	14785
871.36	14765
871.489	14727
871.619	14754
871.749	14739
871.879	14872
872.008	14853
872.138	14838
872.267	14640
872.397	14670
872.526	14598
872.656	14613
872.785	14674
872.915	14781
873.044	14887
873.173	14788
873.303	14857
873.432	14902
873.561	14891
873.69	14830
873.819	14849
873.948	14845
874.077	14773
874.206	14720
874.335	14807
874.464	14895
874.593	15089
874.722	15104
874.851	15233
874.979	15222
875.108	15237
875.237	15176
875.365	15055
875.494	15047
875.623	15112
875.751	15207
875.88	15180
876.008	15378
876.136	15378
876.265	15466
876.393	15648
876.521	15660
876.65	15736
876.778	15663
876.906	15469
877.034	15496
877.162	15545
877.29	15519
877.418	15610
877.546	15580
877.674	15663
877.802	15504
877.93	15534
878.058	15576
878.185	15424
878.313	15523
878.441	15519
878.568	15477
878.696	15542
878.824	15633
878.951	15622
879.079	15656
879.206	15911
879.333	15709
879.461	15679
879.588	15724
879.715	15800
879.842	15793
879.97	15603
880.097	15439
880.224	15321
880.351	15481
880.478	15355
880.605	15397
880.732	15538
880.859	15667
880.986	15538
881.112	15378
881.239	15306
881.366	15176
881.493	15142
881.619	15005
881.746	15161
881.872	15093
881.999	15051
882.125	14948
882.252	15097
882.378	15119
882.505	15268
882.631	15066
882.757	14880
882.883	14986
883.01	15001
883.136	14785
883.262	14727
883.388	14819
883.514	14902
883.64	14868
883.766	14910
883.892	14693
884.018	14804
884.143	14838
884.269	14944
884.395	14724
884.52	14549
884.646	14648
884.772	14511
884.897	14526
885.023	14522
885.148	14796
885.274	14743
885.399	14769
885.524	14712
885.65	14632
885.775	14621
885.9	14663
886.025	14724
886.15	14621
886.275	14533
886.4	14518
886.525	14530
886.65	14431
886.775	14526
886.9	14659
887.025	14804
887.149	14590
887.274	14503
887.399	14400
887.523	14438
887.648	14415
887.773	14248
887.897	14495
888.021	14488
888.146	14385
888.27	14579
888.395	14533
888.519	14530
888.643	14541
888.767	14415
888.891	14305
889.015	14275
889.139	14404
889.263	14294
889.387	14377
889.511	14450
889.635	14427
889.759	14377
889.883	14244
890.006	14252
890.13	14446
890.254	14233
890.377	14229
890.501	14096
890.624	14020
890.748	14107
890.871	14073
890.995	13970
891.118	13944
891.241	14031
891.364	14031
891.488	14069
891.611	13967
891.734	13894
891.857	14050
891.98	14035
892.103	14016
892.226	13978
892.349	14001
892.471	13871
892.594	13890
892.717	13970
892.839	13940
892.962	14008
893.085	14046
893.207	13925
893.33	13925
893.452	13917
893.575	14050
893.697	13963
893.819	14195
893.941	14218
894.064	14172
894.186	13940
894.308	14043
894.43	14153
894.552	14168
894.674	14016
894.796	13993
894.918	14088
895.04	14058
895.161	14119
895.283	14031
895.405	14020
895.526	14069
895.648	14164
895.769	14282
895.891	14187
896.012	14233
896.134	14168
896.255	14176
896.376	14149
896.498	14134
896.619	14309
896.74	14244
896.861	14248
896.982	14537
897.103	14712
897.224	14431
897.345	14419
897.466	14374
897.587	14423
897.708	14590
897.828	14446
897.949	14370
898.07	14206
898.19	14400
898.311	14594
898.431	14583
898.552	14461
898.672	14644
898.792	14606
898.913	14594
899.033	14495
899.153	14351
899.273	14317
899.393	14404
899.513	14355
899.633	14419
899.753	14431
899.873	14347
899.993	14511
900.113	14351
900.232	14336
900.352	14442
900.472	14324
900.591	14221
900.711	14248
900.83	14229
900.95	14324
901.069	14374
901.189	14202
901.308	13944
901.427	13940
901.546	13921
901.665	13955
901.784	13940
901.904	13864
902.023	13791
902.141	13514
902.26	13483
902.379	13563
902.498	13464
902.617	13457
902.735	13533
902.854	13506
902.973	13441
903.091	13190
903.21	13202
903.328	13228
903.446	13152
903.565	13099
903.683	13091
903.801	12977
903.919	13057
904.038	13084
904.156	12913
904.274	12928
904.392	12905
904.51	12890
904.627	12920
904.745	12848
904.863	12852
904.981	12665
905.098	12532
905.216	12646
905.334	12574
905.451	12509
905.569	12395
905.686	12597
905.803	12597
905.921	12422
906.038	12426
906.155	12372
906.272	12285
906.389	12327
906.506	12136
906.623	12136
906.74	12213
906.857	12019
906.974	12155
907.091	12289
907.208	12232
907.324	12216
907.441	12140
907.557	11946
907.674	11935
907.79	11840
907.907	11942
908.023	11901
908.139	11843
908.256	11863
908.372	11885
908.488	11916
908.604	11634
908.72	11589
908.836	11741
908.952	11619
909.068	11691
909.184	11798
909.3	11691
909.415	11790
909.531	11714
909.647	11535
909.762	11455
909.878	11440
909.993	11417
910.108	11379
910.224	11372
910.339	11436
910.454	11345
910.57	11220
910.685	11212
910.8	11577
910.915	11493
911.03	11315
911.145	11197
911.259	11090
911.374	11136
911.489	11174
911.604	10972
911.718	10854
911.833	10919
911.947	10771
912.062	10717
912.176	10885
912.291	10896
912.405	10839
912.519	11136
912.633	11162
912.748	10911
912.862	10919
912.976	10824
913.09	10714
913.204	10767
913.318	10809
913.431	10862
913.545	10854
913.659	10889
913.772	10790
913.886	10706
914	10645
914.113	10763
914.226	10828
914.34	10759
914.453	10611
914.566	10755
914.68	10611
914.793	10561
914.906	10417
915.019	10424
915.132	10352
915.245	10432
915.358	10512
915.47	10382
915.583	10451
915.696	10424
915.809	10577
915.921	10538
916.034	10447
916.146	10360
916.259	10333
916.371	10455
916.483	10421
916.595	10287
916.708	10382
916.82	10386
916.932	10447
917.044	10341
917.156	10318
917.268	10272
917.38	10303
917.491	10215
917.603	10204
917.715	10360
917.826	10352
917.938	10192
918.049	10169
918.161	10280
918.272	10386
918.384	10348
918.495	10227
918.606	10097
918.717	10124
918.828	10181
918.939	10211
919.05	10059
919.161	10109
919.272	9953
919.383	10021
919.494	10246
919.604	10363
919.715	10158
919.826	10063
919.936	10158
920.047	10192
920.157	10242
920.267	10451
920.378	10124
920.488	10124
920.598	10341
920.708	10455
920.818	10329
920.928	10287
921.038	10561
921.148	10424
921.258	10242
921.368	10143
921.477	10025
921.587	10010
921.697	9922
921.806	9987
921.916	9945
922.025	9747
922.134	9637
922.244	9698
922.353	9740
922.462	9576
922.571	9447
922.68	9431
922.789	9340
922.898	9447
923.007	9325
923.116	9412
923.224	9428
923.333	9359
923.442	9245
923.55	9253
923.659	9283
923.767	9313
923.876	9253
923.984	9313
924.092	9275
924.201	9294
924.309	9302
924.417	9294
924.525	9214
924.633	9241
924.741	10188
924.849	9028
924.956	9207
925.064	8971
925.172	8998
925.279	8971
925.387	9089
925.494	9017
925.602	9192
925.709	9195
925.816	9039
925.924	9066
926.031	9165
926.138	9138
926.245	9131
926.352	9032
926.459	9180
926.566	9176
926.673	8933
926.779	8906
926.886	8880
926.993	8769
927.099	8773
927.206	8659
927.312	8731
927.419	8758
927.525	8781
927.631	8834
927.737	8693
927.843	8663
927.95	8556
928.056	8621
928.162	8735
928.267	8739
928.373	9256
928.479	8731
928.585	8545
928.69	8689
928.796	8716
928.901	8560
929.007	8423
929.112	8606
929.218	8552
929.323	8568
929.428	8473
929.533	8625
929.638	8431
929.743	8476
929.848	8526
929.953	8431
930.058	8400
930.163	8282
930.267	8324
930.372	8434
930.477	8221
930.581	8427
930.685	8389
930.79	8187
930.894	8225
930.998	8176
931.103	8362
931.207	7974
931.311	7959
931.415	7879
931.519	7712
931.623	7738
