Data from test_V78500241_3651.txt Node
Date: Fri Mar 25 14:59:08 CST 2022
User: usil
Spectrometer: V785-0024
Trigger mode: 0
Integration Time (sec): 4.000000E-1
Scans to average: 1
Nonlinearity correction enabled: false
Boxcar width: 0
Storing dark spectrum: false
XAxis mode: Wavelengths
Number of Pixels in Spectrum: 1024
>>>>>Begin Spectral Data<<<<<
801.071	21880
801.214	21778
801.356	21591
801.499	21500
801.641	21313
801.783	21332
801.926	21374
802.068	21192
802.211	21176
802.353	20910
802.496	20895
802.638	20724
802.78	20712
802.923	20636
803.065	20636
803.208	20556
803.35	20587
803.492	20659
803.635	20769
803.777	20686
803.919	20598
804.061	20948
804.204	20659
804.346	20537
804.488	20537
804.63	20602
804.773	20590
804.915	20461
805.057	20594
805.199	20377
805.341	20526
805.483	20549
805.626	20552
805.768	20389
805.91	20530
806.052	20632
806.194	20305
806.336	20629
806.478	20514
806.62	20537
806.762	20545
806.904	20750
807.046	20937
807.188	20883
807.33	20762
807.472	20914
807.614	20720
807.756	20712
807.898	20701
808.04	20457
808.182	20545
808.324	20609
808.465	20724
808.607	20667
808.749	20948
808.891	21028
809.033	20994
809.174	20845
809.316	20914
809.458	20956
809.6	20941
809.741	20937
809.883	20948
810.025	21085
810.166	21058
810.308	21100
810.45	20986
810.591	20921
810.733	20762
810.875	20648
811.016	20606
811.158	20621
811.299	20568
811.441	20819
811.582	20765
811.724	20724
811.865	20526
812.007	20575
812.148	20594
812.29	20613
812.431	20853
812.573	21074
812.714	20948
812.855	21017
812.997	21119
813.138	21321
813.279	21180
813.421	21131
813.562	21074
813.703	20971
813.845	20632
813.986	20541
814.127	20294
814.268	20176
814.41	20240
814.551	20191
814.692	20259
814.833	19951
814.974	20183
815.115	20115
815.256	19955
815.397	20054
815.539	20092
815.68	19967
815.821	19833
815.962	19830
816.103	19868
816.244	19731
816.385	19559
816.526	19582
816.666	19510
816.807	19297
816.948	19419
817.089	19358
817.23	19411
817.371	19304
817.512	19240
817.653	19282
817.793	19209
817.934	19217
818.075	19198
818.216	19335
818.356	19304
818.497	19194
818.638	18966
818.778	18928
818.919	18993
819.06	19008
819.2	19088
819.341	19183
819.481	19118
819.622	19384
819.762	19434
819.903	19388
820.043	19381
820.184	19247
820.324	19236
820.465	19270
820.605	19206
820.746	19278
820.886	19050
821.026	19225
821.167	19194
821.307	19354
821.447	19232
821.588	18947
821.728	19023
821.868	18913
822.008	18753
822.149	18715
822.289	18738
822.429	18479
822.569	18376
822.709	18448
822.849	18277
822.99	18213
823.13	18125
823.27	18060
823.41	17954
823.55	17885
823.69	18015
823.83	17969
823.97	17764
824.11	17737
824.25	17802
824.389	17615
824.529	17855
824.669	17710
824.809	17817
824.949	17817
825.089	17775
825.228	17748
825.368	17547
825.508	17532
825.648	17547
825.787	17611
825.927	17566
826.067	17554
826.206	17509
826.346	17436
826.485	17554
826.625	17516
826.765	17566
826.904	17543
827.044	17330
827.183	17242
827.323	17227
827.462	17299
827.601	17143
827.741	17212
827.88	17151
828.02	17132
828.159	17216
828.298	17197
828.437	17311
828.577	17208
828.716	17307
828.855	17162
828.994	16938
829.134	16976
829.273	17079
829.412	16991
829.551	16889
829.69	16892
829.829	17006
829.968	17197
830.107	17033
830.246	17003
830.385	16976
830.524	16908
830.663	16835
830.802	16694
830.941	16702
831.08	16584
831.219	16622
831.357	16691
831.496	16767
831.635	16641
831.774	16573
831.913	16497
832.051	16409
832.19	16318
832.329	16497
832.467	16352
832.606	16344
832.744	16375
832.883	16310
833.022	16363
833.16	16382
833.299	16352
833.437	16367
833.576	16325
833.714	16295
833.852	16306
833.991	16440
834.129	16363
834.267	16459
834.406	16402
834.544	16405
834.682	16428
834.821	16371
834.959	16542
835.097	16238
835.235	16329
835.373	16299
835.511	16421
835.65	16337
835.788	16166
835.926	16196
836.064	16188
836.202	16154
836.34	16154
836.478	16417
836.615	16295
836.753	16295
836.891	16344
837.029	16325
837.167	16310
837.305	16143
837.443	16185
837.58	16158
837.718	16382
837.856	16143
837.993	16150
838.131	16162
838.269	16109
838.406	16188
838.544	15968
838.681	15827
838.819	15808
838.956	15755
839.094	15797
839.231	15686
839.369	15842
839.506	16150
839.643	15911
839.781	15751
839.918	15625
840.055	15717
840.193	15751
840.33	15682
840.467	15690
840.604	15663
840.742	16040
840.879	15614
841.016	15618
841.153	15633
841.29	15823
841.427	15755
841.564	15774
841.701	15842
841.838	15610
841.975	15603
842.112	15717
842.249	15519
842.385	15515
842.522	15641
842.659	15481
842.796	15576
842.933	15439
843.069	15500
843.206	15447
843.343	15641
843.479	15538
843.616	15454
843.752	15294
843.889	15218
844.025	15443
844.162	15237
844.298	15367
844.435	15306
844.571	15275
844.708	15332
844.844	15439
844.98	15443
845.117	15488
845.253	15313
845.389	15127
845.525	15283
845.661	15157
845.798	15005
845.934	15104
846.07	15104
846.206	15116
846.342	15226
846.478	14998
846.614	14880
846.75	14853
846.886	14887
847.022	14975
847.158	14849
847.294	14830
847.429	14960
847.565	14853
847.701	15047
847.837	14670
847.972	14663
848.108	14712
848.244	14667
848.379	14636
848.515	14495
848.65	14385
848.786	14434
848.921	14404
849.057	14530
849.192	14564
849.328	14587
849.463	14492
849.598	14404
849.734	14343
849.869	14332
850.004	14229
850.14	14259
850.275	14206
850.41	14172
850.545	14221
850.68	14278
850.815	14221
850.95	14309
851.085	14374
851.22	14423
851.355	14244
851.49	14248
851.625	14259
851.76	14233
851.895	14180
852.03	14107
852.165	14134
852.299	14225
852.434	14309
852.569	14225
852.703	14313
852.838	14294
852.973	14290
853.107	14396
853.242	14134
853.376	14054
853.511	13947
853.645	13970
853.78	14202
853.914	14111
854.048	14081
854.183	13989
854.317	14092
854.451	14218
854.585	14073
854.72	14012
854.854	14142
854.988	14043
855.122	14103
855.256	13879
855.39	14031
855.524	14199
855.658	14168
855.792	14054
855.926	14138
856.06	14168
856.194	14187
856.327	14164
856.461	14031
856.595	14020
856.729	14046
856.862	14199
856.996	14103
857.13	14176
857.263	14221
857.397	14233
857.53	14172
857.664	14096
857.797	14202
857.931	14259
858.064	14172
858.197	14278
858.331	14069
858.464	14035
858.597	13986
858.731	14168
858.864	14157
858.997	14115
859.13	14096
859.263	14088
859.396	14142
859.529	14046
859.662	14107
859.795	14111
859.928	14096
860.061	14355
860.194	14305
860.327	14062
860.46	14084
860.592	14210
860.725	14237
860.858	14191
860.99	14157
861.123	14005
861.256	14142
861.388	14054
861.521	14785
861.653	14065
861.786	13921
861.918	14024
862.05	14058
862.183	14115
862.315	14161
862.447	14252
862.58	14008
862.712	13974
862.844	13887
862.976	14001
863.108	14020
863.24	14229
863.372	13822
863.504	13856
863.636	13967
863.768	13982
863.9	14027
864.032	13731
864.164	13894
864.296	13978
864.428	13967
864.559	14024
864.691	14050
864.823	13989
864.954	13967
865.086	13906
865.217	13879
865.349	13849
865.48	13898
865.612	13986
865.743	14134
865.875	13909
866.006	13917
866.137	13909
866.269	13833
866.4	13883
866.531	13913
866.662	13830
866.793	13890
866.924	13936
867.055	13883
867.186	13982
867.317	13818
867.448	13731
867.579	13894
867.71	13852
867.841	13879
867.972	13856
868.103	13925
868.233	13932
868.364	13959
868.495	13928
868.625	14111
868.756	14210
868.886	14096
869.017	14153
869.147	14248
869.278	14336
869.408	14195
869.539	14142
869.669	14218
869.799	14161
869.929	14294
870.06	14218
870.19	14457
870.32	14404
870.45	14503
870.58	14594
870.71	14667
870.84	14739
870.97	14644
871.1	14640
871.23	14724
871.36	14754
871.489	14750
871.619	14781
871.749	14712
871.879	14777
872.008	14861
872.138	14735
872.267	14705
872.397	14678
872.526	14511
872.656	14655
872.785	14560
872.915	14712
873.044	14872
873.173	14792
873.303	14781
873.432	14861
873.561	14883
873.69	14868
873.819	14868
873.948	14861
874.077	14948
874.206	14758
874.335	14811
874.464	14979
874.593	15112
874.722	14994
874.851	15173
874.979	15074
875.108	15154
875.237	15032
875.365	15112
875.494	15051
875.623	15203
875.751	15127
875.88	15119
876.008	15260
876.136	15348
876.265	15511
876.393	15652
876.521	15557
876.65	15671
876.778	15599
876.906	15500
877.034	15447
877.162	15485
877.29	15447
877.418	15481
877.546	15564
877.674	15549
877.802	15526
877.93	15523
878.058	15515
878.185	15466
878.313	15507
878.441	15538
878.568	15454
878.696	15538
878.824	15564
878.951	15667
879.079	15656
879.206	15869
879.333	15747
879.461	15572
879.588	15618
879.715	15625
879.842	15720
879.97	15732
880.097	15397
880.224	15355
880.351	15473
880.478	15393
880.605	15370
880.732	15302
880.859	15603
880.986	15344
881.112	15431
881.239	15230
881.366	15169
881.493	15100
881.619	14975
881.746	15028
881.872	15013
881.999	15013
882.125	14941
882.252	15142
882.378	14998
882.505	15252
882.631	14998
882.757	14864
882.883	14800
883.01	14921
883.136	14823
883.262	14689
883.388	14735
883.514	14925
883.64	14925
883.766	14861
883.892	14632
884.018	14785
884.143	14872
884.269	14902
884.395	14606
884.52	14564
884.646	14629
884.772	14484
884.897	14465
885.023	14632
885.148	14667
885.274	14727
885.399	14754
885.524	14571
885.65	14594
885.775	14632
885.9	14617
886.025	14602
886.15	14648
886.275	14549
886.4	14450
886.525	14575
886.65	14526
886.775	14484
886.9	14735
887.025	14796
887.149	14537
887.274	14438
887.399	14351
887.523	14374
887.648	14396
887.773	14233
887.897	14526
888.021	14518
888.146	14484
888.27	14419
888.395	14629
888.519	14537
888.643	14511
888.767	14343
888.891	14313
889.015	14305
889.139	14358
889.263	14317
889.387	14381
889.511	14419
889.635	14290
889.759	14271
889.883	14164
890.006	14374
890.13	14336
890.254	14191
890.377	14256
890.501	14024
890.624	14058
890.748	14263
890.871	14046
890.995	13913
891.118	13909
891.241	14012
891.364	13917
891.488	14046
891.611	13963
891.734	13940
891.857	14031
891.98	13997
892.103	14111
892.226	13879
892.349	13909
892.471	13826
892.594	13997
892.717	13993
892.839	14008
892.962	13940
893.085	14001
893.207	14050
893.33	13875
893.452	14016
893.575	14046
893.697	14043
893.819	14267
893.941	14191
894.064	14100
894.186	13921
894.308	13959
894.43	14206
894.552	14195
894.674	14176
894.796	13894
894.918	14043
895.04	14031
895.161	14126
895.283	14058
895.405	14001
895.526	14020
895.648	14077
895.769	14115
895.891	14103
896.012	14176
896.134	14214
896.255	14176
896.376	14111
896.498	14138
896.619	14221
896.74	14221
896.861	14240
896.982	14526
897.103	14629
897.224	14415
897.345	14427
897.466	14415
897.587	14381
897.708	14613
897.828	14461
897.949	14412
898.07	14351
898.19	14427
898.311	14526
898.431	14499
898.552	14495
898.672	14606
898.792	14674
898.913	14526
899.033	14495
899.153	14408
899.273	14240
899.393	14339
899.513	14332
899.633	14317
899.753	14438
899.873	14214
899.993	14389
900.113	14366
900.232	14282
900.352	14294
900.472	14240
900.591	14187
900.711	14282
900.83	14214
900.95	14324
901.069	14374
901.189	14256
901.308	13970
901.427	13921
901.546	13913
901.665	14035
901.784	13913
901.904	13864
902.023	13681
902.141	13400
902.26	13392
902.379	13559
902.498	13422
902.617	13396
902.735	13537
902.854	13445
902.973	13369
903.091	13194
903.21	13152
903.328	13065
903.446	13099
903.565	13110
903.683	13126
903.801	13023
903.919	13012
904.038	13053
904.156	12840
904.274	12882
904.392	12760
904.51	12916
904.627	12878
904.745	12928
904.863	12825
904.981	12665
905.098	12551
905.216	12479
905.334	12646
905.451	12471
905.569	12536
905.686	12563
905.803	12597
905.921	12327
906.038	12441
906.155	12418
906.272	12319
906.389	12213
906.506	12098
906.623	12091
906.74	12140
906.857	12041
906.974	12136
907.091	12194
907.208	12273
907.324	12171
907.441	12106
907.557	11923
907.674	11996
907.79	11741
907.907	11950
908.023	12041
908.139	11923
908.256	11843
908.372	11779
908.488	11847
908.604	11657
908.72	11630
908.836	11676
908.952	11627
909.068	11657
909.184	11794
909.3	11661
909.415	11665
909.531	11783
909.647	11501
909.762	11402
909.878	11372
909.993	11417
910.108	11364
910.224	11341
910.339	11429
910.454	11337
910.57	11261
910.685	11235
910.8	11467
910.915	11444
911.03	11250
911.145	11174
911.259	11098
911.374	11136
911.489	11041
911.604	11025
911.718	10900
911.833	10911
911.947	10801
912.062	10729
912.176	10809
912.291	10805
912.405	10919
912.519	11056
912.633	11121
912.748	10934
912.862	10885
912.976	10721
913.09	10622
913.204	10733
913.318	10725
913.431	10801
913.545	10889
913.659	10877
913.772	10771
913.886	10679
914	10626
914.113	10763
914.226	10736
914.34	10778
914.453	10554
914.566	10702
914.68	10523
914.793	10626
914.906	10375
915.019	10367
915.132	10322
915.245	10386
915.358	10485
915.47	10344
915.583	10462
915.696	10459
915.809	10531
915.921	10569
916.034	10428
916.146	10272
916.259	10325
916.371	10413
916.483	10409
916.595	10223
916.708	10356
916.82	10303
916.932	10291
917.044	10291
917.156	10295
917.268	10215
917.38	10230
917.491	10192
917.603	10227
917.715	10367
917.826	10287
917.938	10238
918.049	10097
918.161	10295
918.272	10382
918.384	10348
918.495	10253
918.606	10162
918.717	10063
918.828	10093
918.939	10143
919.05	9972
919.161	10017
919.272	9888
919.383	9968
919.494	10162
919.604	10299
919.715	10090
919.826	10124
919.936	10082
920.047	10188
920.157	10196
920.267	10344
920.378	10192
920.488	10036
920.598	10398
920.708	10394
920.818	10295
920.928	10272
921.038	10474
921.148	10436
921.258	10128
921.368	10131
921.477	10029
921.587	9937
921.697	9831
921.806	9972
921.916	9873
922.025	9755
922.134	9690
922.244	9686
922.353	9698
922.462	9671
922.571	9519
922.68	9363
922.789	9325
922.898	9420
923.007	9351
923.116	9428
923.224	9332
923.333	9317
923.442	9298
923.55	9241
923.659	9260
923.767	9321
923.876	9241
923.984	9272
924.092	9161
924.201	9268
924.309	9245
924.417	9237
924.525	9195
924.633	9207
924.741	10036
924.849	8982
924.956	9188
925.064	9005
925.172	8948
925.279	8971
925.387	9093
925.494	9066
925.602	9211
925.709	9108
925.816	8986
925.924	9062
926.031	9195
926.138	9108
926.245	9123
926.352	9024
926.459	9226
926.566	9150
926.673	9089
926.779	8887
926.886	8864
926.993	8842
927.099	8788
927.206	8720
927.312	8655
927.419	8807
927.525	8766
927.631	8849
927.737	8705
927.843	8632
927.95	8575
928.056	8640
928.162	8697
928.267	8697
928.373	9283
928.479	8758
928.585	8590
928.69	8674
928.796	8689
928.901	8552
929.007	8465
929.112	8602
929.218	8598
929.323	8541
929.428	8499
929.533	8674
929.638	8476
929.743	8465
929.848	8503
929.953	8511
930.058	8454
930.163	8267
930.267	8343
930.372	8434
930.477	8305
930.581	8480
930.685	8317
930.79	8210
930.894	8191
930.998	8199
931.103	8393
931.207	8031
931.311	8024
931.415	7921
931.519	7780
931.623	7731
