Data from test_V78500241_3575.txt Node
Date: Fri Mar 25 14:58:36 CST 2022
User: usil
Spectrometer: V785-0024
Trigger mode: 0
Integration Time (sec): 4.000000E-1
Scans to average: 1
Nonlinearity correction enabled: false
Boxcar width: 0
Storing dark spectrum: false
XAxis mode: Wavelengths
Number of Pixels in Spectrum: 1024
>>>>>Begin Spectral Data<<<<<
801.071	21975
801.214	21770
801.356	21553
801.499	21473
801.641	21348
801.783	21211
801.926	21344
802.068	21294
802.211	21150
802.353	20895
802.496	20857
802.638	20853
802.78	20769
802.923	20781
803.065	20598
803.208	20499
803.35	20667
803.492	20758
803.635	20895
803.777	20533
803.919	20689
804.061	20872
804.204	20602
804.346	20568
804.488	20499
804.63	20648
804.773	20461
804.915	20522
805.057	20655
805.199	20442
805.341	20480
805.483	20697
805.626	20499
805.768	20370
805.91	20393
806.052	20438
806.194	20343
806.336	20609
806.478	20404
806.62	20480
806.762	20457
806.904	20667
807.046	20941
807.188	20819
807.33	20754
807.472	20857
807.614	20739
807.756	20636
807.898	20552
808.04	20571
808.182	20549
808.324	20503
808.465	20499
808.607	20811
808.749	20796
808.891	20925
809.033	21085
809.174	20880
809.316	20708
809.458	20804
809.6	20849
809.741	20811
809.883	20823
810.025	20944
810.166	20971
810.308	21032
810.45	20906
810.591	20872
810.733	20568
810.875	20590
811.016	20625
811.158	20480
811.299	20663
811.441	20606
811.582	20609
811.724	20625
811.865	20598
812.007	20590
812.148	20476
812.29	20655
812.431	20739
812.573	20902
812.714	20994
812.855	21119
812.997	21214
813.138	21294
813.279	21222
813.421	21051
813.562	21108
813.703	20796
813.845	20826
813.986	20484
814.127	20294
814.268	20244
814.41	20092
814.551	20088
814.692	20164
814.833	20084
814.974	20153
815.115	20164
815.256	19993
815.397	19830
815.539	19947
815.68	19833
815.821	19898
815.962	19833
816.103	19776
816.244	19590
816.385	19613
816.526	19525
816.666	19438
816.807	19183
816.948	19331
817.089	19365
817.23	19331
817.371	19316
817.512	19206
817.653	19266
817.793	19381
817.934	19156
818.075	19320
818.216	19255
818.356	19251
818.497	18989
818.638	19072
818.778	18996
818.919	18981
819.06	19019
819.2	19148
819.341	19099
819.481	19072
819.622	19236
819.762	19407
819.903	19369
820.043	19327
820.184	19308
820.324	19339
820.465	19259
820.605	19228
820.746	19213
820.886	19141
821.026	19141
821.167	19145
821.307	19419
821.447	19228
821.588	18977
821.728	18985
821.868	18783
822.008	18677
822.149	18631
822.289	18681
822.429	18509
822.569	18426
822.709	18357
822.849	18213
822.99	18224
823.13	18220
823.27	18140
823.41	17923
823.55	18038
823.69	18022
823.83	18007
823.97	18007
824.11	17786
824.25	17646
824.389	17840
824.529	17855
824.669	17908
824.809	17935
824.949	17794
825.089	17821
825.228	17798
825.368	17562
825.508	17516
825.648	17672
825.787	17528
825.927	17634
826.067	17482
826.206	17493
826.346	17452
826.485	17585
826.625	17387
826.765	17562
826.904	17573
827.044	17315
827.183	17337
827.323	17231
827.462	17372
827.601	17337
827.741	17193
827.88	17239
828.02	17178
828.159	17170
828.298	17277
828.437	17288
828.577	17254
828.716	17398
828.855	17334
828.994	17022
829.134	16987
829.273	17071
829.412	17006
829.551	16915
829.69	16927
829.829	17010
829.968	17102
830.107	17067
830.246	17121
830.385	16908
830.524	16930
830.663	16790
830.802	16904
830.941	16694
831.08	16542
831.219	16752
831.357	16679
831.496	16866
831.635	16592
831.774	16489
831.913	16569
832.051	16379
832.19	16459
832.329	16398
832.467	16390
832.606	16150
832.744	16200
832.883	16314
833.022	16352
833.16	16291
833.299	16447
833.437	16344
833.576	16318
833.714	16402
833.852	16459
833.991	16394
834.129	16478
834.267	16379
834.406	16379
834.544	16390
834.682	16440
834.821	16386
834.959	16599
835.097	16375
835.235	16398
835.373	16394
835.511	16440
835.65	16318
835.788	16318
835.926	16120
836.064	16162
836.202	16188
836.34	16329
836.478	16382
836.615	16253
836.753	16344
836.891	16295
837.029	16379
837.167	16265
837.305	16284
837.443	16192
837.58	16147
837.718	16276
837.856	16268
837.993	16150
838.131	16097
838.269	16128
838.406	16112
838.544	16101
838.681	15884
838.819	15861
838.956	15766
839.094	15762
839.231	15682
839.369	15880
839.506	16150
839.643	15953
839.781	15747
839.918	15804
840.055	15800
840.193	15842
840.33	15660
840.467	15675
840.604	15831
840.742	15968
840.879	15637
841.016	15690
841.153	15587
841.29	15808
841.427	15793
841.564	15854
841.701	15671
841.838	15675
841.975	15629
842.112	15720
842.249	15515
842.385	15469
842.522	15713
842.659	15625
842.796	15500
842.933	15568
843.069	15545
843.206	15545
843.343	15519
843.479	15492
843.616	15580
843.752	15359
843.889	15317
844.025	15477
844.162	15249
844.298	15367
844.435	15329
844.571	15241
844.708	15424
844.844	15523
844.98	15526
845.117	15321
845.253	15161
845.389	15180
845.525	15249
845.661	15146
845.798	15218
845.934	15039
846.07	15074
846.206	15142
846.342	15180
846.478	15211
846.614	14891
846.75	14842
846.886	14906
847.022	15074
847.158	14826
847.294	14785
847.429	14990
847.565	14929
847.701	15100
847.837	14712
847.972	14556
848.108	14708
848.244	14743
848.379	14511
848.515	14393
848.65	14518
848.786	14480
848.921	14533
849.057	14587
849.192	14549
849.328	14507
849.463	14530
849.598	14499
849.734	14404
849.869	14374
850.004	14301
850.14	14320
850.275	14187
850.41	14161
850.545	14244
850.68	14229
850.815	14271
850.95	14221
851.085	14381
851.22	14370
851.355	14267
851.49	14263
851.625	14176
851.76	14244
851.895	14153
852.03	14145
852.165	14282
852.299	14259
852.434	14286
852.569	14282
852.703	14278
852.838	14434
852.973	14511
853.107	14446
853.242	14218
853.376	14157
853.511	14020
853.645	14073
853.78	14301
853.914	14145
854.048	14123
854.183	14100
854.317	14153
854.451	14237
854.585	14084
854.72	14054
854.854	14237
854.988	14050
855.122	14103
855.256	14046
855.39	14050
855.524	14195
855.658	14191
855.792	14183
855.926	14176
856.06	14206
856.194	14172
856.327	14183
856.461	14016
856.595	14065
856.729	14096
856.862	14214
856.996	14199
857.13	14248
857.263	14282
857.397	14206
857.53	14088
857.664	14191
857.797	14259
857.931	14301
858.064	14183
858.197	14153
858.331	14069
858.464	14073
858.597	14069
858.731	14103
858.864	14077
858.997	14126
859.13	14195
859.263	14214
859.396	14157
859.529	14088
859.662	14119
859.795	14081
859.928	14142
860.061	14343
860.194	14298
860.327	14054
860.46	14195
860.592	14199
860.725	14298
860.858	14172
860.99	14153
861.123	14149
861.256	14103
861.388	14119
861.521	14929
861.653	13963
861.786	14001
861.918	13986
862.05	14016
862.183	13978
862.315	14058
862.447	14214
862.58	14100
862.712	13959
862.844	13791
862.976	13993
863.108	13978
863.24	14278
863.372	13807
863.504	13959
863.636	14008
863.768	14005
863.9	13936
864.032	13890
864.164	13898
864.296	13936
864.428	13997
864.559	14016
864.691	13974
864.823	13955
864.954	13978
865.086	13944
865.217	13906
865.349	13818
865.48	13868
865.612	14001
865.743	13909
865.875	13906
866.006	13875
866.137	13944
866.269	14050
866.4	13963
866.531	13818
866.662	13841
866.793	13875
866.924	13860
867.055	13913
867.186	13928
867.317	13860
867.448	13799
867.579	13807
867.71	13807
867.841	13837
867.972	13833
868.103	13921
868.233	13856
868.364	13849
868.495	14001
868.625	14100
868.756	14237
868.886	14012
869.017	14115
869.147	14252
869.278	14244
869.408	14103
869.539	14199
869.669	14214
869.799	14210
869.929	14385
870.06	14290
870.19	14461
870.32	14396
870.45	14514
870.58	14640
870.71	14549
870.84	14644
870.97	14537
871.1	14579
871.23	14720
871.36	14739
871.489	14610
871.619	14712
871.749	14800
871.879	14830
872.008	14826
872.138	14750
872.267	14823
872.397	14663
872.526	14575
872.656	14533
872.785	14606
872.915	14804
873.044	14826
873.173	14853
873.303	14872
873.432	14826
873.561	14830
873.69	14720
873.819	14716
873.948	14921
874.077	14834
874.206	14796
874.335	14781
874.464	14918
874.593	15066
874.722	15070
874.851	15268
874.979	15055
875.108	15180
875.237	15142
875.365	15085
875.494	15070
875.623	15112
875.751	15150
875.88	15085
876.008	15336
876.136	15412
876.265	15530
876.393	15648
876.521	15641
876.65	15587
876.778	15538
876.906	15534
877.034	15443
877.162	15507
877.29	15462
877.418	15519
877.546	15511
877.674	15633
877.802	15515
877.93	15511
878.058	15473
878.185	15424
878.313	15496
878.441	15587
878.568	15401
878.696	15458
878.824	15504
878.951	15561
879.079	15679
879.206	15789
879.333	15720
879.461	15568
879.588	15595
879.715	15694
879.842	15785
879.97	15587
880.097	15420
880.224	15321
880.351	15370
880.478	15477
880.605	15294
880.732	15458
880.859	15606
880.986	15393
881.112	15428
881.239	15275
881.366	15169
881.493	15127
881.619	15127
881.746	15108
881.872	15077
881.999	15074
882.125	14979
882.252	15085
882.378	15032
882.505	15180
882.631	15085
882.757	14807
882.883	14921
883.01	14910
883.136	14754
883.262	14785
883.388	14682
883.514	14785
883.64	14941
883.766	14861
883.892	14735
884.018	14727
884.143	14952
884.269	14994
884.395	14655
884.52	14492
884.646	14632
884.772	14533
884.897	14442
885.023	14693
885.148	14636
885.274	14765
885.399	14689
885.524	14560
885.65	14518
885.775	14537
885.9	14499
886.025	14663
886.15	14625
886.275	14587
886.4	14461
886.525	14575
886.65	14461
886.775	14495
886.9	14720
887.025	14781
887.149	14579
887.274	14267
887.399	14385
887.523	14381
887.648	14339
887.773	14362
887.897	14522
888.021	14408
888.146	14301
888.27	14533
888.395	14533
888.519	14484
888.643	14412
888.767	14495
888.891	14393
889.015	14286
889.139	14324
889.263	14191
889.387	14381
889.511	14526
889.635	14431
889.759	14191
889.883	14233
890.006	14309
890.13	14301
890.254	14275
890.377	14149
890.501	14027
890.624	13993
890.748	14126
890.871	14043
890.995	13963
891.118	13883
891.241	14039
891.364	13970
891.488	14046
891.611	14031
891.734	14035
891.857	14012
891.98	14035
892.103	13997
892.226	13917
892.349	13932
892.471	13841
892.594	13947
892.717	13978
892.839	14031
892.962	13993
893.085	13970
893.207	13989
893.33	13772
893.452	13811
893.575	14043
893.697	13932
893.819	14161
893.941	14237
894.064	14039
894.186	13887
894.308	13871
894.43	14153
894.552	14115
894.674	14016
894.796	13932
894.918	14020
895.04	14024
895.161	14103
895.283	14069
895.405	14031
895.526	14046
895.648	14058
895.769	14035
895.891	14043
896.012	14275
896.134	14263
896.255	14096
896.376	14027
896.498	14206
896.619	14145
896.74	14275
896.861	14187
896.982	14408
897.103	14621
897.224	14351
897.345	14393
897.466	14317
897.587	14328
897.708	14492
897.828	14370
897.949	14412
898.07	14301
898.19	14446
898.311	14560
898.431	14507
898.552	14492
898.672	14613
898.792	14590
898.913	14587
899.033	14461
899.153	14332
899.273	14256
899.393	14309
899.513	14374
899.633	14195
899.753	14434
899.873	14286
899.993	14442
900.113	14362
900.232	14347
900.352	14256
900.472	14218
900.591	14142
900.711	14221
900.83	14142
900.95	14233
901.069	14370
901.189	14126
901.308	13906
901.427	13898
901.546	13871
901.665	13951
901.784	13974
901.904	13757
902.023	13651
902.141	13510
902.26	13400
902.379	13445
902.498	13449
902.617	13426
902.735	13445
902.854	13354
902.973	13400
903.091	13187
903.21	13202
903.328	13194
903.446	13122
903.565	12970
903.683	13042
903.801	12863
903.919	12996
904.038	13000
904.156	12840
904.274	12924
904.392	12878
904.51	12791
904.627	12791
904.745	12932
904.863	12886
904.981	12620
905.098	12601
905.216	12566
905.334	12521
905.451	12601
905.569	12502
905.686	12566
905.803	12555
905.921	12437
906.038	12395
906.155	12422
906.272	12224
906.389	12262
906.506	12110
906.623	12163
906.74	12178
906.857	12022
906.974	12045
907.091	12243
907.208	12262
907.324	12114
907.441	12095
907.557	11939
907.674	11923
907.79	11767
907.907	11798
908.023	11916
908.139	11901
908.256	11832
908.372	11805
908.488	11786
908.604	11676
908.72	11688
908.836	11688
908.952	11619
909.068	11726
909.184	11779
909.3	11630
909.415	11691
909.531	11707
909.647	11463
909.762	11433
909.878	11372
909.993	11486
910.108	11410
910.224	11395
910.339	11463
910.454	11395
910.57	11303
910.685	11258
910.8	11455
910.915	11364
911.03	11303
911.145	11178
911.259	11185
911.374	11124
911.489	11010
911.604	10999
911.718	10828
911.833	10904
911.947	10691
912.062	10664
912.176	10812
912.291	10930
912.405	10797
912.519	11033
912.633	11033
912.748	10976
912.862	10946
912.976	10706
913.09	10687
913.204	10714
913.318	10736
913.431	10877
913.545	10869
913.659	10873
913.772	10790
913.886	10702
914	10603
914.113	10729
914.226	10733
914.34	10748
914.453	10611
914.566	10755
914.68	10607
914.793	10519
914.906	10417
915.019	10322
915.132	10394
915.245	10402
915.358	10344
915.47	10455
915.583	10402
915.696	10409
915.809	10538
915.921	10584
916.034	10382
916.146	10341
916.259	10348
916.371	10398
916.483	10390
916.595	10325
916.708	10341
916.82	10306
916.932	10318
917.044	10284
917.156	10287
917.268	10249
917.38	10322
917.491	10272
917.603	10253
917.715	10375
917.826	10341
917.938	10207
918.049	10063
918.161	10238
918.272	10390
918.384	10447
918.495	10246
918.606	10078
918.717	10010
918.828	10131
918.939	10128
919.05	9972
919.161	10169
919.272	9865
919.383	10013
919.494	10166
919.604	10325
919.715	10109
919.826	10029
919.936	10078
920.047	10169
920.157	10139
920.267	10257
920.378	10196
920.488	10048
920.598	10291
920.708	10390
920.818	10287
920.928	10333
921.038	10432
921.148	10462
921.258	10169
921.368	10067
921.477	10055
921.587	9960
921.697	9816
921.806	10017
921.916	9895
922.025	9740
922.134	9728
922.244	9618
922.353	9705
922.462	9591
922.571	9542
922.68	9393
922.789	9291
922.898	9359
923.007	9363
923.116	9367
923.224	9363
923.333	9321
923.442	9279
923.55	9233
923.659	9253
923.767	9401
923.876	9245
923.984	9325
924.092	9230
924.201	9279
924.309	9321
924.417	9233
924.525	9188
924.633	9241
924.741	9994
924.849	9009
924.956	9188
925.064	9020
925.172	8990
925.279	8918
925.387	9043
925.494	9093
925.602	9150
925.709	9077
925.816	8990
925.924	8998
926.031	9123
926.138	9093
926.245	9089
926.352	9032
926.459	9184
926.566	9154
926.673	8960
926.779	8918
926.886	8880
926.993	8826
927.099	8773
927.206	8701
927.312	8648
927.419	8762
927.525	8785
927.631	8769
927.737	8743
927.843	8602
927.95	8556
928.056	8583
928.162	8674
928.267	8750
928.373	9321
928.479	8693
928.585	8518
928.69	8705
928.796	8705
928.901	8568
929.007	8396
929.112	8613
929.218	8541
929.323	8499
929.428	8476
929.533	8651
929.638	8427
929.743	8499
929.848	8514
929.953	8465
930.058	8374
930.163	8282
930.267	8313
930.372	8396
930.477	8248
930.581	8461
930.685	8282
930.79	8210
930.894	8244
930.998	8183
931.103	8320
931.207	8001
931.311	7883
931.415	7883
931.519	7662
931.623	7734
