Data from test_V78500241_2229.txt Node
Date: Fri Mar 25 14:49:14 CST 2022
User: usil
Spectrometer: V785-0024
Trigger mode: 0
Integration Time (sec): 4.000000E-1
Scans to average: 1
Nonlinearity correction enabled: false
Boxcar width: 0
Storing dark spectrum: false
XAxis mode: Wavelengths
Number of Pixels in Spectrum: 1024
>>>>>Begin Spectral Data<<<<<
801.071	22211
801.214	22010
801.356	21736
801.499	21759
801.641	21679
801.783	21447
801.926	21618
802.068	21378
802.211	21405
802.353	21298
802.496	21112
802.638	20967
802.78	20921
802.923	20910
803.065	20785
803.208	20807
803.35	20895
803.492	20864
803.635	20986
803.777	20796
803.919	20883
804.061	21237
804.204	20815
804.346	20765
804.488	20800
804.63	20769
804.773	20781
804.915	20819
805.057	20739
805.199	20667
805.341	20842
805.483	20811
805.626	20857
805.768	20830
805.91	20853
806.052	20781
806.194	20739
806.336	20864
806.478	20701
806.62	20689
806.762	20785
806.904	20971
807.046	21116
807.188	21131
807.33	21108
807.472	21199
807.614	20994
807.756	21009
807.898	20937
808.04	20830
808.182	20792
808.324	20864
808.465	20998
808.607	21116
808.749	21218
808.891	21264
809.033	21367
809.174	21188
809.316	21135
809.458	21047
809.6	21074
809.741	21275
809.883	21218
810.025	21317
810.166	21252
810.308	21230
810.45	21317
810.591	21165
810.733	21176
810.875	21005
811.016	20963
811.158	20800
811.299	21055
811.441	21135
811.582	21047
811.724	20921
811.865	20895
812.007	21036
812.148	20864
812.29	21009
812.431	21089
812.573	21237
812.714	21313
812.855	21401
812.997	21488
813.138	21701
813.279	21511
813.421	21382
813.562	21351
813.703	21222
813.845	21093
813.986	20895
814.127	20613
814.268	20511
814.41	20636
814.551	20385
814.692	20583
814.833	20427
814.974	20457
815.115	20370
815.256	20298
815.397	20355
815.539	20286
815.68	20199
815.821	20103
815.962	20286
816.103	20206
816.244	19974
816.385	19993
816.526	19879
816.666	19890
816.807	19635
816.948	19704
817.089	19704
817.23	19826
817.371	19693
817.512	19651
817.653	19548
817.793	19457
817.934	19605
818.075	19742
818.216	19540
818.356	19590
818.497	19339
818.638	19240
818.778	19289
818.919	19244
819.06	19320
819.2	19400
819.341	19487
819.481	19464
819.622	19765
819.762	19772
819.903	19776
820.043	19658
820.184	19499
820.324	19578
820.465	19639
820.605	19559
820.746	19514
820.886	19422
821.026	19552
821.167	19419
821.307	19556
821.447	19533
821.588	19415
821.728	19339
821.868	19057
822.008	19122
822.149	19023
822.289	18833
822.429	18779
822.569	18677
822.709	18734
822.849	18471
822.99	18350
823.13	18467
823.27	18369
823.41	18254
823.55	18213
823.69	18410
823.83	18296
823.97	18178
824.11	18190
824.25	18114
824.389	18057
824.529	18121
824.669	17999
824.809	18106
824.949	18171
825.089	18155
825.228	17988
825.368	17897
825.508	17878
825.648	17946
825.787	17950
825.927	17733
826.067	17745
826.206	17824
826.346	17817
826.485	17809
826.625	17676
826.765	17904
826.904	17946
827.044	17608
827.183	17589
827.323	17524
827.462	17558
827.601	17528
827.741	17524
827.88	17520
828.02	17436
828.159	17459
828.298	17615
828.437	17661
828.577	17452
828.716	17600
828.855	17505
828.994	17318
829.134	17296
829.273	17284
829.412	17326
829.551	17220
829.69	17250
829.829	17261
829.968	17360
830.107	17277
830.246	17376
830.385	17220
830.524	17151
830.663	17086
830.802	16999
830.941	16877
831.08	16820
831.219	16968
831.357	17083
831.496	17105
831.635	16869
831.774	16839
831.913	16725
832.051	16706
832.19	16577
832.329	16660
832.467	16675
832.606	16478
832.744	16634
832.883	16554
833.022	16504
833.16	16672
833.299	16531
833.437	16603
833.576	16698
833.714	16573
833.852	16641
833.991	16615
834.129	16664
834.267	16672
834.406	16577
834.544	16565
834.682	16660
834.821	16527
834.959	16843
835.097	16599
835.235	16618
835.373	16630
835.511	16607
835.65	16489
835.788	16542
835.926	16337
836.064	16341
836.202	16257
836.34	16481
836.478	16626
836.615	16493
836.753	16493
836.891	16622
837.029	16508
837.167	16428
837.305	16531
837.443	16440
837.58	16329
837.718	16417
837.856	16299
837.993	16360
838.131	16329
838.269	16280
838.406	16367
838.544	16246
838.681	16021
838.819	16021
838.956	15922
839.094	15941
839.231	15903
839.369	16048
839.506	16234
839.643	16234
839.781	16013
839.918	15934
840.055	15937
840.193	15930
840.33	15945
840.467	15873
840.604	15983
840.742	16093
840.879	15827
841.016	15907
841.153	15827
841.29	16040
841.427	15930
841.564	15956
841.701	16010
841.838	15888
841.975	15732
842.112	15808
842.249	15770
842.385	15652
842.522	15865
842.659	15690
842.796	15667
842.933	15656
843.069	15682
843.206	15606
843.343	15778
843.479	15713
843.616	15724
843.752	15511
843.889	15564
844.025	15561
844.162	15454
844.298	15622
844.435	15534
844.571	15420
844.708	15538
844.844	15603
844.98	15675
845.117	15576
845.253	15549
845.389	15389
845.525	15435
845.661	15454
845.798	15283
845.934	15332
846.07	15195
846.206	15348
846.342	15450
846.478	15336
846.614	15104
846.75	14960
846.886	14979
847.022	15043
847.158	15001
847.294	15062
847.429	15085
847.565	15116
847.701	15291
847.837	14845
847.972	14834
848.108	14918
848.244	14918
848.379	14773
848.515	14678
848.65	14602
848.786	14693
848.921	14590
849.057	14758
849.192	14785
849.328	14686
849.463	14549
849.598	14686
849.734	14629
849.869	14541
850.004	14488
850.14	14400
850.275	14442
850.41	14370
850.545	14347
850.68	14412
850.815	14400
850.95	14465
851.085	14594
851.22	14530
851.355	14438
851.49	14431
851.625	14343
851.76	14385
851.895	14320
852.03	14381
852.165	14381
852.299	14454
852.434	14533
852.569	14568
852.703	14450
852.838	14514
852.973	14644
853.107	14613
853.242	14381
853.376	14244
853.511	14191
853.645	14271
853.78	14442
853.914	14202
854.048	14256
854.183	14244
854.317	14305
854.451	14465
854.585	14240
854.72	14221
854.854	14313
854.988	14176
855.122	14271
855.256	14191
855.39	14157
855.524	14450
855.658	14393
855.792	14259
855.926	14358
856.06	14419
856.194	14389
856.327	14355
856.461	14309
856.595	14259
856.729	14259
856.862	14351
856.996	14377
857.13	14393
857.263	14419
857.397	14438
857.53	14358
857.664	14385
857.797	14377
857.931	14385
858.064	14309
858.197	14366
858.331	14290
858.464	14233
858.597	14237
858.731	14385
858.864	14298
858.997	14332
859.13	14393
859.263	14267
859.396	14385
859.529	14336
859.662	14256
859.795	14263
859.928	14347
860.061	14454
860.194	14339
860.327	14305
860.46	14309
860.592	14347
860.725	14431
860.858	14362
860.99	14275
861.123	14134
861.256	14202
861.388	14259
861.521	14796
861.653	14142
861.786	14138
861.918	14073
862.05	14263
862.183	14161
862.315	14267
862.447	14385
862.58	14233
862.712	14027
862.844	14035
862.976	14084
863.108	14103
863.24	14377
863.372	14050
863.504	14058
863.636	14096
863.768	14016
863.9	14103
864.032	14016
864.164	14100
864.296	14001
864.428	14218
864.559	14145
864.691	14149
864.823	14164
864.954	14126
865.086	14107
865.217	14111
865.349	13986
865.48	14107
865.612	14077
865.743	14161
865.875	14031
866.006	14001
866.137	14123
866.269	14054
866.4	13970
866.531	14020
866.662	14005
866.793	14046
866.924	14024
867.055	14073
867.186	14001
867.317	13936
867.448	13955
867.579	13967
867.71	13993
867.841	13928
867.972	14149
868.103	14096
868.233	14065
868.364	14016
868.495	14054
868.625	14278
868.756	14412
868.886	14123
869.017	14123
869.147	14389
869.278	14377
869.408	14343
869.539	14317
869.669	14511
869.799	14240
869.929	14400
870.06	14370
870.19	14594
870.32	14545
870.45	14705
870.58	14701
870.71	14895
870.84	14788
870.97	14735
871.1	14674
871.23	14830
871.36	14819
871.489	14826
871.619	14948
871.749	14849
871.879	14864
872.008	15001
872.138	14906
872.267	14857
872.397	14758
872.526	14689
872.656	14667
872.785	14739
872.915	14956
873.044	14876
873.173	14925
873.303	14986
873.432	14918
873.561	15001
873.69	14982
873.819	15009
873.948	14975
874.077	14982
874.206	14899
874.335	15093
874.464	15146
874.593	15138
874.722	15192
874.851	15256
874.979	15435
875.108	15245
875.237	15104
875.365	15180
875.494	15207
875.623	15275
875.751	15188
875.88	15268
876.008	15340
876.136	15485
876.265	15694
876.393	15835
876.521	15690
876.65	15739
876.778	15648
876.906	15690
877.034	15610
877.162	15686
877.29	15701
877.418	15690
877.546	15660
877.674	15690
877.802	15690
877.93	15736
878.058	15629
878.185	15526
878.313	15698
878.441	15690
878.568	15500
878.696	15667
878.824	15603
878.951	15713
879.079	15869
879.206	15994
879.333	15827
879.461	15755
879.588	15736
879.715	15812
879.842	15991
879.97	15743
880.097	15542
880.224	15576
880.351	15580
880.478	15572
880.605	15511
880.732	15553
880.859	15694
880.986	15538
881.112	15500
881.239	15568
881.366	15287
881.493	15169
881.619	15066
881.746	15161
881.872	15161
881.999	15207
882.125	15104
882.252	15195
882.378	15112
882.505	15317
882.631	15081
882.757	15047
882.883	15036
883.01	14933
883.136	14948
883.262	14845
883.388	14861
883.514	15017
883.64	15135
883.766	14933
883.892	14750
884.018	14830
884.143	14952
884.269	15127
884.395	14762
884.52	14629
884.646	14686
884.772	14537
884.897	14655
885.023	14697
885.148	14826
885.274	14845
885.399	14781
885.524	14773
885.65	14754
885.775	14773
885.9	14720
886.025	14819
886.15	14727
886.275	14629
886.4	14610
886.525	14625
886.65	14674
886.775	14674
886.9	14777
887.025	14933
887.149	14708
887.274	14511
887.399	14427
887.523	14457
887.648	14415
887.773	14465
887.897	14549
888.021	14636
888.146	14419
888.27	14579
888.395	14705
888.519	14507
888.643	14678
888.767	14549
888.891	14499
889.015	14366
889.139	14442
889.263	14294
889.387	14434
889.511	14587
889.635	14419
889.759	14434
889.883	14423
890.006	14469
890.13	14492
890.254	14263
890.377	14370
890.501	14240
890.624	14195
890.748	14252
890.871	14180
890.995	14035
891.118	14031
891.241	14062
891.364	14180
891.488	14256
891.611	14142
891.734	14153
891.857	14172
891.98	14126
892.103	14191
892.226	14134
892.349	14054
892.471	13974
892.594	14020
892.717	14065
892.839	13989
892.962	14103
893.085	14180
893.207	14073
893.33	13997
893.452	14088
893.575	14221
893.697	14050
893.819	14275
893.941	14301
894.064	14221
894.186	14001
894.308	14107
894.43	14252
894.552	14267
894.674	14225
894.796	14008
894.918	14187
895.04	14077
895.161	14199
895.283	14248
895.405	14088
895.526	14237
895.648	14275
895.769	14206
895.891	14256
896.012	14275
896.134	14271
896.255	14256
896.376	14229
896.498	14237
896.619	14282
896.74	14324
896.861	14419
896.982	14632
897.103	14739
897.224	14579
897.345	14495
897.466	14499
897.587	14499
897.708	14648
897.828	14560
897.949	14545
898.07	14317
898.19	14461
898.311	14636
898.431	14541
898.552	14606
898.672	14800
898.792	14693
898.913	14655
899.033	14507
899.153	14434
899.273	14347
899.393	14408
899.513	14461
899.633	14636
899.753	14518
899.873	14507
899.993	14473
900.113	14389
900.232	14560
900.352	14431
900.472	14324
900.591	14328
900.711	14385
900.83	14305
900.95	14434
901.069	14408
901.189	14294
901.308	14100
901.427	13940
901.546	14031
901.665	14012
901.784	14107
901.904	13902
902.023	13890
902.141	13620
902.26	13537
902.379	13613
902.498	13567
902.617	13480
902.735	13514
902.854	13571
902.973	13464
903.091	13251
903.21	13270
903.328	13411
903.446	13331
903.565	13202
903.683	13099
903.801	13122
903.919	13126
904.038	13171
904.156	13000
904.274	13012
904.392	12973
904.51	12939
904.627	12973
904.745	13000
904.863	13031
904.981	12825
905.098	12684
905.216	12654
905.334	12658
905.451	12582
905.569	12681
905.686	12658
905.803	12623
905.921	12441
906.038	12532
906.155	12509
906.272	12380
906.389	12452
906.506	12251
906.623	12258
906.74	12243
906.857	12232
906.974	12171
907.091	12350
907.208	12475
907.324	12289
907.441	12209
907.557	11992
907.674	11973
907.79	11946
907.907	12015
908.023	11988
908.139	12015
908.256	12003
908.372	11893
908.488	11920
908.604	11824
908.72	11783
908.836	11741
908.952	11695
909.068	11771
909.184	11866
909.3	11813
909.415	11874
909.531	11783
909.647	11585
909.762	11539
909.878	11482
909.993	11532
910.108	11547
910.224	11551
910.339	11448
910.454	11364
910.57	11227
910.685	11299
910.8	11615
910.915	11589
911.03	11448
911.145	11227
911.259	11261
911.374	11201
911.489	11113
911.604	11121
911.718	11003
911.833	11010
911.947	10889
912.062	10812
912.176	11037
912.291	10942
912.405	10911
912.519	11212
912.633	11178
912.748	11064
912.862	11014
912.976	10759
913.09	10744
913.204	10908
913.318	10805
913.431	10923
913.545	10991
913.659	11014
913.772	10885
913.886	10679
914	10717
914.113	10900
914.226	10862
914.34	10816
914.453	10615
914.566	10797
914.68	10687
914.793	10656
914.906	10531
915.019	10508
915.132	10485
915.245	10459
915.358	10516
915.47	10519
915.583	10519
915.696	10546
915.809	10714
915.921	10740
916.034	10481
916.146	10363
916.259	10493
916.371	10500
916.483	10615
916.595	10409
916.708	10451
916.82	10455
916.932	10382
917.044	10352
917.156	10363
917.268	10265
917.38	10295
917.491	10360
917.603	10352
917.715	10455
917.826	10398
917.938	10295
918.049	10303
918.161	10291
918.272	10474
918.384	10493
918.495	10421
918.606	10188
918.717	10135
918.828	10253
918.939	10268
919.05	10116
919.161	10143
919.272	10036
919.383	10109
919.494	10238
919.604	10432
919.715	10207
919.826	10090
919.936	10120
920.047	10280
920.157	10158
920.267	10451
920.378	10257
920.488	10280
920.598	10379
920.708	10523
920.818	10390
920.928	10432
921.038	10630
921.148	10588
921.258	10188
921.368	10124
921.477	10086
921.587	10158
921.697	9915
921.806	10105
921.916	9953
922.025	9876
922.134	9747
922.244	9762
922.353	9880
922.462	9667
922.571	9572
922.68	9469
922.789	9473
922.898	9447
923.007	9389
923.116	9439
923.224	9481
923.333	9447
923.442	9386
923.55	9389
923.659	9431
923.767	9435
923.876	9367
923.984	9473
924.092	9310
924.201	9367
924.309	9428
924.417	9340
924.525	9272
924.633	9306
924.741	10257
924.849	9104
924.956	9393
925.064	9070
925.172	9005
925.279	9138
925.387	9135
925.494	9097
925.602	9245
925.709	9180
925.816	9001
925.924	9135
926.031	9188
926.138	9192
926.245	9184
926.352	9074
926.459	9150
926.566	9214
926.673	9001
926.779	8990
926.886	8948
926.993	8864
927.099	8838
927.206	8781
927.312	8762
927.419	8830
927.525	8804
927.631	8944
927.737	8705
927.843	8708
927.95	8651
928.056	8800
928.162	8720
928.267	8815
928.373	9401
928.479	8853
928.585	8640
928.69	8716
928.796	8796
928.901	8636
929.007	8514
929.112	8678
929.218	8640
929.323	8526
929.428	8499
929.533	8743
929.638	8568
929.743	8549
929.848	8556
929.953	8488
930.058	8492
930.163	8301
930.267	8332
930.372	8404
930.477	8301
930.581	8594
930.685	8347
930.79	8221
930.894	8294
930.998	8202
931.103	8385
931.207	8081
931.311	8065
931.415	7894
931.519	7757
931.623	7738
