Data from test_V78500241_2127.txt Node
Date: Fri Mar 25 14:48:31 CST 2022
User: usil
Spectrometer: V785-0024
Trigger mode: 0
Integration Time (sec): 4.000000E-1
Scans to average: 1
Nonlinearity correction enabled: false
Boxcar width: 0
Storing dark spectrum: false
XAxis mode: Wavelengths
Number of Pixels in Spectrum: 1024
>>>>>Begin Spectral Data<<<<<
801.071	22268
801.214	21983
801.356	21804
801.499	21587
801.641	21542
801.783	21504
801.926	21443
802.068	21374
802.211	21302
802.353	21363
802.496	20998
802.638	20994
802.78	20963
802.923	20979
803.065	20864
803.208	20834
803.35	20899
803.492	20956
803.635	20944
803.777	20842
803.919	20948
804.061	21157
804.204	20887
804.346	20872
804.488	20773
804.63	20864
804.773	20769
804.915	20731
805.057	20861
805.199	20735
805.341	20792
805.483	20914
805.626	20845
805.768	20834
805.91	20807
806.052	20663
806.194	20834
806.336	20914
806.478	20758
806.62	20667
806.762	20731
806.904	21058
807.046	21188
807.188	21112
807.33	21180
807.472	21157
807.614	20910
807.756	20967
807.898	20800
808.04	20819
808.182	20765
808.324	20800
808.465	20880
808.607	21032
808.749	21135
808.891	21241
809.033	21230
809.174	21214
809.316	21013
809.458	20960
809.6	21161
809.741	21226
809.883	21279
810.025	21336
810.166	21325
810.308	21283
810.45	21222
810.591	21138
810.733	20986
810.875	20998
811.016	20830
811.158	20864
811.299	20857
811.441	21032
811.582	21066
811.724	21005
811.865	20864
812.007	20864
812.148	20975
812.29	20872
812.431	21051
812.573	21119
812.714	21241
812.855	21359
812.997	21526
813.138	21637
813.279	21477
813.421	21564
813.562	21298
813.703	21104
813.845	20963
813.986	20883
814.127	20625
814.268	20511
814.41	20427
814.551	20514
814.692	20442
814.833	20362
814.974	20370
815.115	20473
815.256	20290
815.397	20332
815.539	20240
815.68	20122
815.821	20176
815.962	20187
816.103	20164
816.244	20073
816.385	19883
816.526	19963
816.666	19791
816.807	19757
816.948	19624
817.089	19700
817.23	19624
817.371	19506
817.512	19639
817.653	19651
817.793	19529
817.934	19586
818.075	19635
818.216	19586
818.356	19616
818.497	19430
818.638	19316
818.778	19244
818.919	19282
819.06	19377
819.2	19403
819.341	19434
819.481	19403
819.622	19632
819.762	19845
819.903	19712
820.043	19613
820.184	19582
820.324	19578
820.465	19647
820.605	19715
820.746	19563
820.886	19358
821.026	19533
821.167	19552
821.307	19658
821.447	19605
821.588	19525
821.728	19415
821.868	19274
822.008	19050
822.149	19038
822.289	18878
822.429	18734
822.569	18768
822.709	18665
822.849	18475
822.99	18422
823.13	18361
823.27	18464
823.41	18300
823.55	18178
823.69	18361
823.83	18300
823.97	18216
824.11	18007
824.25	18053
824.389	18102
824.529	18140
824.669	18064
824.809	18152
824.949	18251
825.089	18057
825.228	18098
825.368	17859
825.508	17889
825.648	17832
825.787	17916
825.927	17988
826.067	17733
826.206	17855
826.346	17813
826.485	17878
826.625	17741
826.765	17882
826.904	17832
827.044	17581
827.183	17581
827.323	17478
827.462	17589
827.601	17623
827.741	17482
827.88	17482
828.02	17395
828.159	17459
828.298	17417
828.437	17657
828.577	17558
828.716	17573
828.855	17478
828.994	17189
829.134	17360
829.273	17398
829.412	17189
829.551	17159
829.69	17235
829.829	17341
829.968	17315
830.107	17326
830.246	17349
830.385	17231
830.524	17174
830.663	17029
830.802	17022
830.941	16839
831.08	16858
831.219	16885
831.357	16949
831.496	17166
831.635	16839
831.774	16862
831.913	16748
832.051	16710
832.19	16710
832.329	16736
832.467	16588
832.606	16535
832.744	16611
832.883	16599
833.022	16516
833.16	16527
833.299	16634
833.437	16706
833.576	16588
833.714	16584
833.852	16641
833.991	16645
834.129	16664
834.267	16790
834.406	16710
834.544	16664
834.682	16702
834.821	16573
834.959	16866
835.097	16615
835.235	16607
835.373	16733
835.511	16607
835.65	16538
835.788	16512
835.926	16325
836.064	16325
836.202	16398
836.34	16603
836.478	16675
836.615	16485
836.753	16645
836.891	16660
837.029	16599
837.167	16588
837.305	16436
837.443	16462
837.58	16363
837.718	16481
837.856	16371
837.993	16306
838.131	16402
838.269	16402
838.406	16303
838.544	16265
838.681	16185
838.819	16055
838.956	16002
839.094	15956
839.231	16044
839.369	16055
839.506	16344
839.643	16219
839.781	15964
839.918	15888
840.055	15926
840.193	15998
840.33	15934
840.467	15991
840.604	15979
840.742	16207
840.879	15888
841.016	15819
841.153	15911
841.29	16109
841.427	15994
841.564	16029
841.701	15888
841.838	15922
841.975	15880
842.112	15930
842.249	15728
842.385	15633
842.522	15876
842.659	15846
842.796	15694
842.933	15781
843.069	15713
843.206	15701
843.343	15850
843.479	15808
843.616	15713
843.752	15530
843.889	15538
844.025	15736
844.162	15412
844.298	15732
844.435	15561
844.571	15443
844.708	15557
844.844	15675
844.98	15564
845.117	15614
845.253	15416
845.389	15401
845.525	15504
845.661	15424
845.798	15313
845.934	15340
846.07	15344
846.206	15416
846.342	15496
846.478	15325
846.614	15154
846.75	15100
846.886	15081
847.022	15180
847.158	15100
847.294	15062
847.429	15097
847.565	15039
847.701	15298
847.837	14887
847.972	14834
848.108	14960
848.244	14804
848.379	14735
848.515	14644
848.65	14564
848.786	14655
848.921	14788
849.057	14796
849.192	14842
849.328	14731
849.463	14682
849.598	14640
849.734	14571
849.869	14598
850.004	14431
850.14	14495
850.275	14396
850.41	14336
850.545	14438
850.68	14442
850.815	14503
850.95	14431
851.085	14689
851.22	14602
851.355	14560
851.49	14423
851.625	14431
851.76	14415
851.895	14404
852.03	14351
852.165	14415
852.299	14427
852.434	14480
852.569	14442
852.703	14473
852.838	14610
852.973	14549
853.107	14621
853.242	14446
853.376	14313
853.511	14202
853.645	14328
853.78	14473
853.914	14259
854.048	14332
854.183	14161
854.317	14347
854.451	14545
854.585	14328
854.72	14244
854.854	14336
854.988	14202
855.122	14347
855.256	14180
855.39	14240
855.524	14374
855.658	14336
855.792	14366
855.926	14313
856.06	14389
856.194	14473
856.327	14332
856.461	14275
856.595	14248
856.729	14305
856.862	14492
856.996	14336
857.13	14419
857.263	14362
857.397	14427
857.53	14267
857.664	14282
857.797	14442
857.931	14457
858.064	14305
858.197	14415
858.331	14263
858.464	14298
858.597	14225
858.731	14415
858.864	14290
858.997	14259
859.13	14366
859.263	14370
859.396	14358
859.529	14290
859.662	14317
859.795	14210
859.928	14301
860.061	14400
860.194	14545
860.327	14355
860.46	14355
860.592	14450
860.725	14400
860.858	14385
860.99	14282
861.123	14351
861.256	14191
861.388	14275
861.521	15020
861.653	14248
861.786	14221
861.918	14229
862.05	14294
862.183	14301
862.315	14328
862.447	14362
862.58	14252
862.712	14069
862.844	14081
862.976	14077
863.108	14149
863.24	14454
863.372	13944
863.504	14054
863.636	14115
863.768	14176
863.9	14077
864.032	14058
864.164	14001
864.296	14191
864.428	14161
864.559	14187
864.691	14187
864.823	14191
864.954	14157
865.086	14153
865.217	14054
865.349	13959
865.48	14126
865.612	14134
865.743	14267
865.875	14206
866.006	14024
866.137	14130
866.269	14180
866.4	14035
866.531	14035
866.662	14123
866.793	13959
866.924	14069
867.055	14054
867.186	14077
867.317	14058
867.448	13970
867.579	14065
867.71	13947
867.841	14088
867.972	14043
868.103	14050
868.233	14123
868.364	14058
868.495	14199
868.625	14294
868.756	14393
868.886	14218
869.017	14339
869.147	14514
869.278	14404
869.408	14393
869.539	14366
869.669	14313
869.799	14324
869.929	14457
870.06	14400
870.19	14617
870.32	14476
870.45	14625
870.58	14724
870.71	14785
870.84	14777
870.97	14811
871.1	14674
871.23	14914
871.36	14899
871.489	14902
871.619	14853
871.749	14868
871.879	14918
872.008	15077
872.138	14944
872.267	14902
872.397	14727
872.526	14739
872.656	14758
872.785	14678
872.915	14944
873.044	14941
873.173	14929
873.303	15028
873.432	15051
873.561	15039
873.69	14971
873.819	14941
873.948	15043
874.077	14899
874.206	15070
874.335	14918
874.464	15123
874.593	15245
874.722	15214
874.851	15180
874.979	15256
875.108	15272
875.237	15348
875.365	15173
875.494	15268
875.623	15348
875.751	15249
875.88	15283
876.008	15393
876.136	15549
876.265	15793
876.393	15850
876.521	15819
876.65	15747
876.778	15831
876.906	15686
877.034	15679
877.162	15724
877.29	15701
877.418	15644
877.546	15633
877.674	15698
877.802	15724
877.93	15660
878.058	15663
878.185	15682
878.313	15660
878.441	15656
878.568	15591
878.696	15625
878.824	15736
878.951	15755
879.079	15857
879.206	15907
879.333	15831
879.461	15736
879.588	15819
879.715	15819
879.842	16010
879.97	15823
880.097	15599
880.224	15481
880.351	15492
880.478	15523
880.605	15599
880.732	15542
880.859	15686
880.986	15606
881.112	15542
881.239	15416
881.366	15310
881.493	15291
881.619	15237
881.746	15222
881.872	15169
881.999	15131
882.125	15199
882.252	15211
882.378	15226
882.505	15306
882.631	15119
882.757	15131
882.883	15051
883.01	15047
883.136	14918
883.262	14941
883.388	14830
883.514	15013
883.64	15108
883.766	14880
883.892	14819
884.018	14834
884.143	14986
884.269	15093
884.395	14811
884.52	14712
884.646	14743
884.772	14739
884.897	14575
885.023	14792
885.148	14777
885.274	14872
885.399	14807
885.524	14735
885.65	14762
885.775	14785
885.9	14762
886.025	14857
886.15	14826
886.275	14659
886.4	14564
886.525	14663
886.65	14724
886.775	14720
886.9	14868
887.025	14834
887.149	14697
887.274	14533
887.399	14552
887.523	14507
887.648	14404
887.773	14461
887.897	14640
888.021	14621
888.146	14556
888.27	14663
888.395	14678
888.519	14606
888.643	14644
888.767	14674
888.891	14503
889.015	14469
889.139	14533
889.263	14434
889.387	14438
889.511	14697
889.635	14541
889.759	14408
889.883	14366
890.006	14377
890.13	14545
890.254	14404
890.377	14389
890.501	14271
890.624	14229
890.748	14282
890.871	14286
890.995	14027
891.118	14081
891.241	14016
891.364	14065
891.488	14187
891.611	14069
891.734	14157
891.857	14145
891.98	14142
892.103	14256
892.226	14138
892.349	14069
892.471	13982
892.594	14088
892.717	14172
892.839	14024
892.962	14195
893.085	14153
893.207	14115
893.33	14119
893.452	14100
893.575	14153
893.697	14024
893.819	14309
893.941	14400
894.064	14278
894.186	14050
894.308	14077
894.43	14267
894.552	14408
894.674	14240
894.796	14092
894.918	14183
895.04	14115
895.161	14313
895.283	14278
895.405	14237
895.526	14221
895.648	14214
895.769	14263
895.891	14301
896.012	14343
896.134	14351
896.255	14347
896.376	14328
896.498	14240
896.619	14271
896.74	14404
896.861	14492
896.982	14727
897.103	14811
897.224	14663
897.345	14518
897.466	14454
897.587	14617
897.708	14731
897.828	14541
897.949	14594
898.07	14473
898.19	14518
898.311	14762
898.431	14537
898.552	14701
898.672	14655
898.792	14739
898.913	14697
899.033	14613
899.153	14488
899.273	14404
899.393	14434
899.513	14514
899.633	14514
899.753	14473
899.873	14480
899.993	14438
900.113	14522
900.232	14571
900.352	14465
900.472	14400
900.591	14336
900.711	14366
900.83	14229
900.95	14488
901.069	14503
901.189	14328
901.308	14142
901.427	14054
901.546	14062
901.665	14001
901.784	14103
901.904	13940
902.023	13879
902.141	13670
902.26	13689
902.379	13666
902.498	13594
902.617	13510
902.735	13628
902.854	13632
902.973	13537
903.091	13320
903.21	13285
903.328	13339
903.446	13278
903.565	13118
903.683	13099
903.801	13015
903.919	13156
904.038	13187
904.156	12993
904.274	13053
904.392	12943
904.51	12993
904.627	12966
904.745	12977
904.863	13057
904.981	12749
905.098	12741
905.216	12662
905.334	12719
905.451	12726
905.569	12688
905.686	12677
905.803	12623
905.921	12544
906.038	12623
906.155	12456
906.272	12399
906.389	12490
906.506	12213
906.623	12361
906.74	12247
906.857	12163
906.974	12148
907.091	12334
907.208	12350
907.324	12266
907.441	12315
907.557	12076
907.674	11984
907.79	11980
907.907	11996
908.023	12057
908.139	12011
908.256	11965
908.372	11939
908.488	11992
908.604	11832
908.72	11767
908.836	11802
908.952	11657
909.068	11767
909.184	11866
909.3	11688
909.415	11821
909.531	11824
909.647	11543
909.762	11638
909.878	11417
909.993	11558
910.108	11535
910.224	11573
910.339	11573
910.454	11383
910.57	11383
910.685	11299
910.8	11623
910.915	11497
911.03	11356
911.145	11288
911.259	11227
911.374	11155
911.489	11162
911.604	11166
911.718	11041
911.833	10980
911.947	10995
912.062	10889
912.176	10995
912.291	11079
912.405	10965
912.519	11162
912.633	11140
912.748	11094
912.862	11010
912.976	10820
913.09	10778
913.204	10809
913.318	10843
913.431	10923
913.545	10987
913.659	10980
913.772	10904
913.886	10717
914	10759
914.113	10790
914.226	10919
914.34	10740
914.453	10793
914.566	10866
914.68	10691
914.793	10706
914.906	10558
915.019	10569
915.132	10421
915.245	10538
915.358	10455
915.47	10519
915.583	10489
915.696	10592
915.809	10679
915.921	10702
916.034	10512
916.146	10504
916.259	10363
916.371	10512
916.483	10588
916.595	10394
916.708	10428
916.82	10428
916.932	10481
917.044	10333
917.156	10390
917.268	10306
917.38	10375
917.491	10299
917.603	10295
917.715	10508
917.826	10493
917.938	10337
918.049	10215
918.161	10325
918.272	10462
918.384	10474
918.495	10284
918.606	10196
918.717	10124
918.828	10185
918.939	10272
919.05	10143
919.161	10188
919.272	9998
919.383	10131
919.494	10242
919.604	10398
919.715	10223
919.826	10101
919.936	10173
920.047	10360
920.157	10306
920.267	10443
920.378	10246
920.488	10253
920.598	10405
920.708	10558
920.818	10405
920.928	10356
921.038	10580
921.148	10519
921.258	10276
921.368	10257
921.477	10128
921.587	10131
921.697	9975
921.806	10207
921.916	9949
922.025	9747
922.134	9827
922.244	9736
922.353	9903
922.462	9705
922.571	9580
922.68	9477
922.789	9443
922.898	9496
923.007	9439
923.116	9496
923.224	9500
923.333	9466
923.442	9416
923.55	9310
923.659	9363
923.767	9485
923.876	9272
923.984	9370
924.092	9348
924.201	9367
924.309	9348
924.417	9378
924.525	9218
924.633	9256
924.741	10287
924.849	9116
924.956	9275
925.064	9146
925.172	9058
925.279	9123
925.387	9173
925.494	9123
925.602	9180
925.709	9211
925.816	9100
925.924	9112
926.031	9184
926.138	9180
926.245	9119
926.352	9055
926.459	9173
926.566	9253
926.673	9074
926.779	8994
926.886	9017
926.993	8849
927.099	8838
927.206	8785
927.312	8826
927.419	8963
927.525	8872
927.631	8876
927.737	8716
927.843	8800
927.95	8667
928.056	8716
928.162	8777
928.267	8815
928.373	9268
928.479	8826
928.585	8568
928.69	8716
928.796	8701
928.901	8689
929.007	8587
929.112	8697
929.218	8670
929.323	8636
929.428	8590
929.533	8651
929.638	8571
929.743	8537
929.848	8625
929.953	8552
930.058	8499
930.163	8324
930.267	8336
930.372	8438
930.477	8324
930.581	8541
930.685	8469
930.79	8259
930.894	8290
930.998	8259
931.103	8400
931.207	8145
931.311	8065
931.415	7940
931.519	7761
931.623	7795
