Data from test_V78500241_651.txt Node
Date: Fri Mar 25 14:38:15 CST 2022
User: usil
Spectrometer: V785-0024
Trigger mode: 0
Integration Time (sec): 4.000000E-1
Scans to average: 1
Nonlinearity correction enabled: false
Boxcar width: 0
Storing dark spectrum: false
XAxis mode: Wavelengths
Number of Pixels in Spectrum: 1024
>>>>>Begin Spectral Data<<<<<
801.071	27979
801.214	27831
801.356	27644
801.499	27595
801.641	27469
801.783	27306
801.926	27473
802.068	27252
802.211	27138
802.353	27074
802.496	26948
802.638	26891
802.78	26796
802.923	26895
803.065	26750
803.208	26823
803.35	26895
803.492	26940
803.635	26960
803.777	26940
803.919	27085
804.061	27313
804.204	27131
804.346	26948
804.488	26960
804.63	27009
804.773	26956
804.915	27127
805.057	27389
805.199	27355
805.341	27401
805.483	27462
805.626	27504
805.768	27564
805.91	27583
806.052	27812
806.194	27876
806.336	28230
806.478	28295
806.62	28303
806.762	28538
806.904	29060
807.046	29528
807.188	29733
807.33	30213
807.472	30681
807.614	31141
807.756	31966
807.898	32952
808.04	34310
808.182	36171
808.324	38438
808.465	40984
808.607	43985
808.749	46535
808.891	48098
809.033	48349
809.174	46782
809.316	44195
809.458	41094
809.6	38248
809.741	35661
809.883	33728
810.025	32503
810.166	31578
810.308	30897
810.45	30277
810.591	29843
810.733	29200
810.875	29075
811.016	28767
811.158	28333
811.299	28466
811.441	28474
811.582	28318
811.724	28044
811.865	27778
812.007	27838
812.148	27892
812.29	27713
812.431	27838
812.573	27861
812.714	28032
812.855	27953
812.997	27934
813.138	28158
813.279	27888
813.421	27854
813.562	27747
813.703	27580
813.845	27336
813.986	27142
814.127	26857
814.268	26705
814.41	26712
814.551	26564
814.692	26834
814.833	26655
814.974	26625
815.115	26575
815.256	26393
815.397	26358
815.539	26313
815.68	26233
815.821	26240
815.962	26161
816.103	26180
816.244	25966
816.385	25887
816.526	25944
816.666	25727
816.807	25548
816.948	25609
817.089	25712
817.23	25495
817.371	25533
817.512	25563
817.653	25430
817.793	25441
817.934	25419
818.075	25301
818.216	25552
818.356	25403
818.497	25362
818.638	25015
818.778	25088
818.919	25168
819.06	25107
819.2	25403
819.341	25278
819.481	25282
819.622	25495
819.762	25616
819.903	25521
820.043	25384
820.184	25339
820.324	25339
820.465	25358
820.605	25339
820.746	25304
820.886	25217
821.026	25179
821.167	25031
821.307	25179
821.447	25247
821.588	25065
821.728	24886
821.868	24795
822.008	24688
822.149	24456
822.289	24540
822.429	24323
822.569	24129
822.709	24292
822.849	24049
822.99	24041
823.13	23988
823.27	23843
823.41	23741
823.55	23627
823.69	23722
823.83	23786
823.97	23764
824.11	23589
824.25	23547
824.389	23429
824.529	23592
824.669	23562
824.809	23585
824.949	23623
825.089	23558
825.228	23490
825.368	23341
825.508	23402
825.648	23330
825.787	23341
825.927	23398
826.067	23296
826.206	23261
826.346	23220
826.485	23395
826.625	23246
826.765	23398
826.904	23322
827.044	23003
827.183	22961
827.323	23037
827.462	23029
827.601	23083
827.741	22934
827.88	23022
828.02	22850
828.159	22885
828.298	22896
828.437	22957
828.577	22896
828.716	23044
828.855	22892
828.994	22706
829.134	22607
829.273	22698
829.412	22577
829.551	22634
829.69	22527
829.829	22592
829.968	22538
830.107	22660
830.246	22653
830.385	22474
830.524	22405
830.663	22432
830.802	22299
830.941	22192
831.08	22181
831.219	22333
831.357	22318
831.496	22447
831.635	22192
831.774	22181
831.913	22040
832.051	22067
832.19	22036
832.329	22101
832.467	22025
832.606	22051
832.744	21998
832.883	22090
833.022	22105
833.16	22314
833.299	22394
833.437	22459
833.576	22622
833.714	22596
833.852	22927
833.991	22968
834.129	23014
834.267	23018
834.406	22972
834.544	22869
834.682	22778
834.821	22611
834.959	22687
835.097	22523
835.235	22348
835.373	22352
835.511	22139
835.65	21915
835.788	21930
835.926	21720
836.064	21675
836.202	21671
836.34	21785
836.478	21888
836.615	21789
836.753	21663
836.891	21876
837.029	21770
837.167	21660
837.305	21660
837.443	21622
837.58	21599
837.718	21625
837.856	21507
837.993	21469
838.131	21485
838.269	21447
838.406	21435
838.544	21367
838.681	21176
838.819	21203
838.956	21070
839.094	20925
839.231	21104
839.369	21108
839.506	21355
839.643	21252
839.781	21047
839.918	20880
840.055	20883
840.193	20815
840.33	20785
840.467	20914
840.604	20883
840.742	21123
840.879	20655
841.016	20849
841.153	20773
841.29	20910
841.427	20956
841.564	20914
841.701	20925
841.838	20868
841.975	20861
842.112	20853
842.249	20674
842.385	20621
842.522	20762
842.659	20754
842.796	20648
842.933	20754
843.069	20720
843.206	20811
843.343	20914
843.479	20705
843.616	20819
843.752	20708
843.889	20769
844.025	20918
844.162	20674
844.298	21043
844.435	21013
844.571	21214
844.708	21496
844.844	21835
844.98	22268
845.117	22733
845.253	23642
845.389	25263
845.525	28314
845.661	33500
845.798	39660
845.934	44206
846.07	45926
846.206	44651
846.342	40489
846.478	34497
846.614	29132
846.75	25795
846.886	23665
847.022	22542
847.158	21793
847.294	21329
847.429	20876
847.565	20712
847.701	20781
847.837	20244
847.972	20122
848.108	19970
848.244	20119
848.379	19677
848.515	19765
848.65	19647
848.786	19662
848.921	19643
849.057	19689
849.192	19681
849.328	19582
849.463	19696
849.598	19552
849.734	19480
849.869	19476
850.004	19285
850.14	19400
850.275	19388
850.41	19327
850.545	19244
850.68	19244
850.815	19266
850.95	19312
851.085	19438
851.22	19377
851.355	19304
851.49	19251
851.625	19198
851.76	19221
851.895	19217
852.03	19297
852.165	19320
852.299	19438
852.434	19343
852.569	19407
852.703	19251
852.838	19377
852.973	19586
853.107	19499
853.242	19354
853.376	19285
853.511	19091
853.645	19285
853.78	19533
853.914	19483
854.048	19327
854.183	19373
854.317	19506
854.451	19548
854.585	19422
854.72	19324
854.854	19540
854.988	19278
855.122	19457
855.256	19213
855.39	19365
855.524	19266
855.658	19236
855.792	19198
855.926	19160
856.06	19247
856.194	19324
856.327	19141
856.461	19160
856.595	19023
856.729	18943
856.862	19152
856.996	19057
857.13	19080
857.263	19190
857.397	19107
857.53	19012
857.664	19050
857.797	19133
857.931	19126
858.064	19175
858.197	19148
858.331	18871
858.464	18985
858.597	18814
858.731	18993
858.864	18985
858.997	18928
859.13	18905
859.263	19004
859.396	19034
859.529	18939
859.662	18764
859.795	18817
859.928	19015
860.061	18981
860.194	19042
860.327	18928
860.46	18989
860.592	19031
860.725	19072
860.858	19099
860.99	18867
861.123	18776
861.256	18833
861.388	18924
861.521	19453
861.653	18837
861.786	18779
861.918	18829
862.05	18734
862.183	18867
862.315	18916
862.447	18840
862.58	18954
862.712	18719
862.844	18646
862.976	18631
863.108	18608
863.24	19053
863.372	18612
863.504	18616
863.636	18532
863.768	18578
863.9	18559
864.032	18483
864.164	18635
864.296	18612
864.428	18658
864.559	18757
864.691	18654
864.823	18620
864.954	18608
865.086	18604
865.217	18540
865.349	18350
865.48	18483
865.612	18566
865.743	18589
865.875	18467
866.006	18475
866.137	18418
866.269	18471
866.4	18547
866.531	18490
866.662	18399
866.793	18429
866.924	18380
867.055	18563
867.186	18422
867.317	18426
867.448	18201
867.579	18513
867.71	18456
867.841	18376
867.972	18471
868.103	18464
868.233	18494
868.364	18566
868.495	18494
868.625	18768
868.756	18886
868.886	18677
869.017	18833
869.147	18795
869.278	18909
869.408	18764
869.539	18798
869.669	18863
869.799	18745
869.929	18947
870.06	18817
870.19	18985
870.32	19114
870.45	19145
870.58	19133
870.71	19213
870.84	19293
870.97	19255
871.1	19183
871.23	19327
871.36	19400
871.489	19384
871.619	19396
871.749	19537
871.879	19521
872.008	19525
872.138	19468
872.267	19453
872.397	19289
872.526	19373
872.656	19308
872.785	19312
872.915	19639
873.044	19693
873.173	19533
873.303	19590
873.432	19639
873.561	19753
873.69	19639
873.819	19772
873.948	19868
874.077	19753
874.206	19727
874.335	19788
874.464	19875
874.593	20081
874.722	20134
874.851	20157
874.979	20164
875.108	20225
875.237	20172
875.365	20081
875.494	20290
875.623	20366
875.751	20351
875.88	20336
876.008	20541
876.136	20727
876.265	20891
876.393	21058
876.521	21039
876.65	21207
876.778	21123
876.906	21264
877.034	21222
877.162	21367
877.29	21332
877.418	21359
877.546	21515
877.674	21648
877.802	21732
877.93	21831
878.058	21865
878.185	22006
878.313	22360
878.441	22641
878.568	22873
878.696	23398
878.824	24182
878.951	25171
879.079	26632
879.206	28443
879.333	30327
879.461	31677
879.588	32861
879.715	32807
879.842	32027
879.97	30357
880.097	28470
880.224	26925
880.351	25795
880.478	25255
880.605	24589
880.732	24342
880.859	24194
880.986	23798
881.112	23726
881.239	23585
881.366	23433
881.493	23330
881.619	23288
881.746	23296
881.872	23471
881.999	23379
882.125	23353
882.252	23543
882.378	23455
882.505	23687
882.631	23452
882.757	23421
882.883	23505
883.01	23417
883.136	23235
883.262	23037
883.388	23064
883.514	23250
883.64	23372
883.766	23105
883.892	23052
884.018	23151
884.143	23292
884.269	23448
884.395	22995
884.52	22987
884.646	23041
884.772	22927
884.897	23014
885.023	23029
885.148	23041
885.274	23079
885.399	22953
885.524	22702
885.65	22729
885.775	22466
885.9	22497
886.025	22356
886.15	22207
886.275	22090
886.4	21873
886.525	21926
886.65	21583
886.775	21644
886.9	21675
887.025	21622
887.149	21401
887.274	21104
887.399	20895
887.523	20902
887.648	20819
887.773	20617
887.897	20845
888.021	20632
888.146	20564
888.27	20697
888.395	20587
888.519	20518
888.643	20492
888.767	20438
888.891	20218
889.015	20107
889.139	20115
889.263	20016
889.387	20092
889.511	20164
889.635	20024
889.759	19936
889.883	19871
890.006	19932
890.13	19833
890.254	19791
890.377	19738
890.501	19426
890.624	19388
890.748	19476
890.871	19396
890.995	19247
891.118	19213
891.241	19236
891.364	19270
891.488	19282
891.611	19103
891.734	19225
891.857	19122
891.98	19126
892.103	19038
892.226	19076
892.349	18954
892.471	18871
892.594	18905
892.717	18977
892.839	18859
892.962	18837
893.085	18932
893.207	18764
893.33	18661
893.452	18627
893.575	18825
893.697	18642
893.819	18741
893.941	18913
894.064	18795
894.186	18528
894.308	18486
894.43	18612
894.552	18749
894.674	18570
894.796	18441
894.918	18566
895.04	18471
895.161	18544
895.283	18566
895.405	18445
895.526	18395
895.648	18445
895.769	18441
895.891	18448
896.012	18506
896.134	18414
896.255	18346
896.376	18327
896.498	18407
896.619	18494
896.74	18338
896.861	18483
896.982	18612
897.103	18871
897.224	18631
897.345	18544
897.466	18544
897.587	18555
897.708	18677
897.828	18612
897.949	18426
898.07	18391
898.19	18422
898.311	18566
898.431	18407
898.552	18650
898.672	18627
898.792	18475
898.913	18532
899.033	18353
899.153	18395
899.273	18273
899.393	18361
899.513	18388
899.633	18376
899.753	18319
899.873	18365
899.993	18327
900.113	18395
900.232	18327
900.352	18247
900.472	18148
900.591	18148
900.711	18209
900.83	18060
900.95	18216
901.069	18121
901.189	18076
901.308	17813
901.427	17737
901.546	17710
901.665	17676
901.784	17699
901.904	17573
902.023	17436
902.141	17220
902.26	17273
902.379	17303
902.498	17181
902.617	17094
902.735	17189
902.854	17166
902.973	16953
903.091	16752
903.21	16786
903.328	16816
903.446	16645
903.565	16618
903.683	16558
903.801	16405
903.919	16546
904.038	16462
904.156	16318
904.274	16371
904.392	16337
904.51	16166
904.627	16253
904.745	16375
904.863	16402
904.981	16055
905.098	15888
905.216	15899
905.334	15964
905.451	15934
905.569	15945
905.686	15953
905.803	15964
905.921	15736
906.038	15918
906.155	15739
906.272	15652
906.389	15629
906.506	15466
906.623	15534
906.74	15481
906.857	15363
906.974	15462
907.091	15492
907.208	15504
907.324	15507
907.441	15348
907.557	15294
907.674	15233
907.79	15097
907.907	15195
908.023	15256
908.139	15123
908.256	15104
908.372	15058
908.488	15074
908.604	15020
908.72	14781
908.836	14845
908.952	14948
909.068	14876
909.184	14925
909.3	14807
909.415	14944
909.531	14834
909.647	14651
909.762	14613
909.878	14598
909.993	14659
910.108	14598
910.224	14579
910.339	14598
910.454	14454
910.57	14393
910.685	14404
910.8	14705
910.915	14575
911.03	14438
911.145	14298
911.259	14240
911.374	14240
911.489	14115
911.604	14134
911.718	14107
911.833	14054
911.947	13921
912.062	13784
912.176	14020
912.291	13978
912.405	14001
912.519	14168
912.633	14164
912.748	14149
912.862	13963
912.976	13898
913.09	13708
913.204	13818
913.318	13811
913.431	13887
913.545	13898
913.659	13955
913.772	13871
913.886	13757
914	13670
914.113	13833
914.226	13883
914.34	13685
914.453	13605
914.566	13750
914.68	13601
914.793	13567
914.906	13441
915.019	13335
915.132	13301
915.245	13430
915.358	13441
915.47	13411
915.583	13381
915.696	13369
915.809	13571
915.921	13506
916.034	13384
916.146	13388
916.259	13289
916.371	13487
916.483	13384
916.595	13217
916.708	13308
916.82	13445
916.932	13266
917.044	13263
917.156	13152
917.268	13156
917.38	13114
917.491	13198
917.603	13103
917.715	13183
917.826	13236
917.938	13084
918.049	13012
918.161	13110
918.272	13285
918.384	13198
918.495	13042
918.606	12897
918.717	12802
918.828	12977
918.939	12897
919.05	12783
919.161	12821
919.272	12688
919.383	12620
919.494	12825
919.604	13012
919.715	12791
919.826	12745
919.936	12768
920.047	12878
920.157	12776
920.267	13031
920.378	12848
920.488	12810
920.598	13000
920.708	13179
920.818	12993
920.928	12962
921.038	13057
921.148	13084
921.258	12810
921.368	12654
921.477	12639
921.587	12604
921.697	12414
921.806	12604
921.916	12448
922.025	12308
922.134	12273
922.244	12258
922.353	12296
922.462	12186
922.571	12053
922.68	11973
922.789	11878
922.898	11969
923.007	11893
923.116	11870
923.224	11855
923.333	11790
923.442	11737
923.55	11703
923.659	11688
923.767	11843
923.876	11703
923.984	11798
924.092	11680
924.201	11627
924.309	11752
924.417	11684
924.525	11543
924.633	11646
924.741	12422
924.849	11493
924.956	11562
925.064	11417
925.172	11315
925.279	11330
925.387	11459
925.494	11372
925.602	11551
925.709	11474
925.816	11307
925.924	11372
926.031	11474
926.138	11383
926.245	11326
926.352	11315
926.459	11482
926.566	11478
926.673	11353
926.779	11185
926.886	11273
926.993	11037
927.099	11029
927.206	10919
927.312	10949
927.419	11094
927.525	11018
927.631	11048
927.737	10972
927.843	10881
927.95	10831
928.056	10835
928.162	10938
928.267	11029
928.373	11562
928.479	10991
928.585	10759
928.69	10911
928.796	10881
928.901	10744
929.007	10668
929.112	10759
929.218	10736
929.323	10649
929.428	10641
929.533	10729
929.638	10580
929.743	10550
929.848	10710
929.953	10622
930.058	10504
930.163	10329
930.267	10386
930.372	10409
930.477	10333
930.581	10588
930.685	10459
930.79	10234
930.894	10314
930.998	10249
931.103	10360
931.207	10036
931.311	9960
931.415	9945
931.519	9701
931.623	9663
