Data from test_V78500241_1710.txt Node
Date: Fri Mar 25 14:45:37 CST 2022
User: usil
Spectrometer: V785-0024
Trigger mode: 0
Integration Time (sec): 4.000000E-1
Scans to average: 1
Nonlinearity correction enabled: false
Boxcar width: 0
Storing dark spectrum: false
XAxis mode: Wavelengths
Number of Pixels in Spectrum: 1024
>>>>>Begin Spectral Data<<<<<
801.071	22238
801.214	22112
801.356	21854
801.499	21823
801.641	21652
801.783	21641
801.926	21564
802.068	21618
802.211	21424
802.353	21374
802.496	21192
802.638	21142
802.78	21138
802.923	20971
803.065	20979
803.208	20941
803.35	21074
803.492	21043
803.635	21058
803.777	20948
803.919	21089
804.061	21313
804.204	21116
804.346	20880
804.488	20777
804.63	20986
804.773	20689
804.915	20864
805.057	21020
805.199	20785
805.341	20986
805.483	20941
805.626	20918
805.768	20982
805.91	20960
806.052	20963
806.194	20670
806.336	20933
806.478	21020
806.62	20864
806.762	20914
806.904	21009
807.046	21195
807.188	21199
807.33	21188
807.472	21249
807.614	21272
807.756	21093
807.898	20971
808.04	21005
808.182	20948
808.324	21020
808.465	21207
808.607	21195
808.749	21340
808.891	21469
809.033	21526
809.174	21351
809.316	21332
809.458	21272
809.6	21195
809.741	21306
809.883	21386
810.025	21367
810.166	21420
810.308	21534
810.45	21420
810.591	21294
810.733	21116
810.875	21123
811.016	20998
811.158	21013
811.299	21112
811.441	21165
811.582	21287
811.724	20994
811.865	20967
812.007	20975
812.148	20990
812.29	21089
812.431	21245
812.573	21344
812.714	21416
812.855	21507
812.997	21561
813.138	21739
813.279	21625
813.421	21545
813.562	21515
813.703	21298
813.845	21150
813.986	20864
814.127	20804
814.268	20655
814.41	20636
814.551	20518
814.692	20629
814.833	20469
814.974	20526
815.115	20594
815.256	20457
815.397	20454
815.539	20427
815.68	20393
815.821	20339
815.962	20476
816.103	20347
816.244	20122
816.385	20054
816.526	20012
816.666	19887
816.807	19746
816.948	19875
817.089	19811
817.23	20005
817.371	19700
817.512	19734
817.653	19776
817.793	19651
817.934	19734
818.075	19868
818.216	19734
818.356	19715
818.497	19472
818.638	19415
818.778	19377
818.919	19396
819.06	19449
819.2	19457
819.341	19559
819.481	19609
819.622	19685
819.762	19967
819.903	19708
820.043	19746
820.184	19765
820.324	19685
820.465	19731
820.605	19742
820.746	19822
820.886	19628
821.026	19677
821.167	19693
821.307	19761
821.447	19685
821.588	19521
821.728	19396
821.868	19320
822.008	19122
822.149	19126
822.289	19084
822.429	18848
822.569	18798
822.709	18722
822.849	18681
822.99	18639
823.13	18566
823.27	18566
823.41	18483
823.55	18498
823.69	18391
823.83	18452
823.97	18395
824.11	18114
824.25	18247
824.389	18216
824.529	18220
824.669	18194
824.809	18380
824.949	18197
825.089	18266
825.228	18197
825.368	18015
825.508	17999
825.648	18057
825.787	18007
825.927	17984
826.067	17950
826.206	17882
826.346	18007
826.485	17942
826.625	17999
826.765	17984
826.904	17961
827.044	17737
827.183	17748
827.323	17608
827.462	17687
827.601	17634
827.741	17630
827.88	17714
828.02	17474
828.159	17573
828.298	17726
828.437	17771
828.577	17634
828.716	17786
828.855	17665
828.994	17459
829.134	17360
829.273	17463
829.412	17467
829.551	17421
829.69	17414
829.829	17360
829.968	17486
830.107	17452
830.246	17391
830.385	17444
830.524	17391
830.663	17235
830.802	17151
830.941	16949
831.08	17086
831.219	17155
831.357	17124
831.496	17174
831.635	17029
831.774	16946
831.913	16995
832.051	16782
832.19	16881
832.329	16839
832.467	16736
832.606	16641
832.744	16702
832.883	16626
833.022	16626
833.16	16713
833.299	16820
833.437	16733
833.576	16698
833.714	16668
833.852	16752
833.991	16733
834.129	16828
834.267	16793
834.406	16767
834.544	16828
834.682	16717
834.821	16721
834.959	16835
835.097	16744
835.235	16854
835.373	16771
835.511	16793
835.65	16664
835.788	16660
835.926	16615
836.064	16504
836.202	16466
836.34	16683
836.478	16809
836.615	16721
836.753	16603
836.891	16797
837.029	16694
837.167	16656
837.305	16611
837.443	16493
837.58	16519
837.718	16565
837.856	16577
837.993	16550
838.131	16519
838.269	16428
838.406	16474
838.544	16341
838.681	16268
838.819	16200
838.956	15987
839.094	16055
839.231	16238
839.369	16166
839.506	16455
839.643	16333
839.781	16090
839.918	16048
840.055	16090
840.193	16074
840.33	16109
840.467	16074
840.604	16112
840.742	16379
840.879	15915
841.016	15903
841.153	15922
841.29	16109
841.427	16116
841.564	16093
841.701	16029
841.838	16109
841.975	15930
842.112	15964
842.249	15865
842.385	15819
842.522	16109
842.659	15911
842.796	15850
842.933	15850
843.069	15743
843.206	15766
843.343	15869
843.479	15876
843.616	15812
843.752	15766
843.889	15641
844.025	15793
844.162	15701
844.298	15694
844.435	15667
844.571	15717
844.708	15682
844.844	15694
844.98	15781
845.117	15747
845.253	15496
845.389	15568
845.525	15610
845.661	15614
845.798	15412
845.934	15511
846.07	15447
846.206	15534
846.342	15519
846.478	15477
846.614	15218
846.75	15249
846.886	15207
847.022	15131
847.158	15127
847.294	15207
847.429	15222
847.565	15116
847.701	15416
847.837	14986
847.972	14933
848.108	14979
848.244	14975
848.379	14785
848.515	14819
848.65	14750
848.786	14872
848.921	14834
849.057	14952
849.192	14918
849.328	14876
849.463	14838
849.598	14853
849.734	14792
849.869	14640
850.004	14613
850.14	14594
850.275	14575
850.41	14564
850.545	14499
850.68	14488
850.815	14625
850.95	14488
851.085	14807
851.22	14602
851.355	14552
851.49	14590
851.625	14560
851.76	14587
851.895	14476
852.03	14457
852.165	14606
852.299	14602
852.434	14716
852.569	14644
852.703	14598
852.838	14720
852.973	14800
853.107	14758
853.242	14590
853.376	14533
853.511	14385
853.645	14381
853.78	14549
853.914	14503
854.048	14469
854.183	14400
854.317	14476
854.451	14655
854.585	14366
854.72	14450
854.854	14503
854.988	14400
855.122	14511
855.256	14267
855.39	14431
855.524	14560
855.658	14495
855.792	14537
855.926	14549
856.06	14564
856.194	14590
856.327	14454
856.461	14351
856.595	14492
856.729	14454
856.862	14648
856.996	14602
857.13	14492
857.263	14579
857.397	14598
857.53	14514
857.664	14537
857.797	14575
857.931	14533
858.064	14533
858.197	14507
858.331	14533
858.464	14377
858.597	14347
858.731	14419
858.864	14469
858.997	14484
859.13	14484
859.263	14317
859.396	14583
859.529	14564
859.662	14423
859.795	14438
859.928	14484
860.061	14644
860.194	14579
860.327	14522
860.46	14446
860.592	14541
860.725	14583
860.858	14552
860.99	14461
861.123	14499
861.256	14366
861.388	14412
861.521	14963
861.653	14294
861.786	14347
861.918	14294
862.05	14366
862.183	14484
862.315	14492
862.447	14480
862.58	14419
862.712	14282
862.844	14191
862.976	14362
863.108	14210
863.24	14663
863.372	14164
863.504	14237
863.636	14271
863.768	14324
863.9	14244
864.032	14157
864.164	14183
864.296	14282
864.428	14446
864.559	14290
864.691	14317
864.823	14290
864.954	14229
865.086	14256
865.217	14214
865.349	14202
865.48	14183
865.612	14275
865.743	14389
865.875	14157
866.006	14210
866.137	14229
866.269	14161
866.4	14229
866.531	14161
866.662	14244
866.793	14191
866.924	14206
867.055	14183
867.186	14206
867.317	14244
867.448	14126
867.579	14187
867.71	14199
867.841	14183
867.972	14199
868.103	14218
868.233	14199
868.364	14256
868.495	14305
868.625	14495
868.756	14541
868.886	14370
869.017	14423
869.147	14514
869.278	14602
869.408	14514
869.539	14446
869.669	14518
869.799	14571
869.929	14640
870.06	14670
870.19	14830
870.32	14731
870.45	14792
870.58	14804
870.71	14944
870.84	14982
870.97	14910
871.1	14815
871.23	15005
871.36	15097
871.489	14998
871.619	15070
871.749	14975
871.879	15119
872.008	15237
872.138	15032
872.267	15089
872.397	14788
872.526	14864
872.656	14868
872.785	14944
872.915	15043
873.044	15226
873.173	15169
873.303	15116
873.432	15070
873.561	15222
873.69	15184
873.819	15169
873.948	15195
874.077	15188
874.206	15070
874.335	15203
874.464	15195
874.593	15462
874.722	15405
874.851	15462
874.979	15538
875.108	15447
875.237	15412
875.365	15291
875.494	15405
875.623	15408
875.751	15408
875.88	15408
876.008	15576
876.136	15675
876.265	15835
876.393	15937
876.521	15975
876.65	15861
876.778	15850
876.906	15854
877.034	15823
877.162	15789
877.29	15755
877.418	15816
877.546	15797
877.674	15781
877.802	15785
877.93	15899
878.058	15793
878.185	15759
878.313	15899
878.441	15812
878.568	15724
878.696	15823
878.824	15755
878.951	15854
879.079	16025
879.206	16071
879.333	16040
879.461	15994
879.588	15964
879.715	16071
879.842	16101
879.97	15892
880.097	15614
880.224	15705
880.351	15652
880.478	15675
880.605	15641
880.732	15713
880.859	15903
880.986	15720
881.112	15759
881.239	15618
881.366	15393
881.493	15473
881.619	15256
881.746	15351
881.872	15355
881.999	15260
882.125	15344
882.252	15370
882.378	15412
882.505	15469
882.631	15310
882.757	15116
882.883	15230
883.01	15173
883.136	15127
883.262	15028
883.388	15017
883.514	15211
883.64	15119
883.766	15146
883.892	14899
884.018	15043
884.143	15180
884.269	15252
884.395	14857
884.52	14861
884.646	14830
884.772	14765
884.897	14731
885.023	14857
885.148	14967
885.274	15017
885.399	14910
885.524	14918
885.65	14876
885.775	14990
885.9	14944
886.025	14895
886.15	14918
886.275	14815
886.4	14815
886.525	14883
886.65	14773
886.775	14769
886.9	15001
887.025	15112
887.149	14845
887.274	14735
887.399	14667
887.523	14674
887.648	14587
887.773	14587
887.897	14777
888.021	14724
888.146	14697
888.27	14861
888.395	14727
888.519	14701
888.643	14746
888.767	14743
888.891	14708
889.015	14495
889.139	14598
889.263	14492
889.387	14712
889.511	14697
889.635	14765
889.759	14469
889.883	14419
890.006	14587
890.13	14674
890.254	14450
890.377	14438
890.501	14298
890.624	14336
890.748	14362
890.871	14377
890.995	14218
891.118	14153
891.241	14271
891.364	14187
891.488	14355
891.611	14130
891.734	14187
891.857	14244
891.98	14282
892.103	14237
892.226	14218
892.349	14259
892.471	14012
892.594	14233
892.717	14263
892.839	14263
892.962	14240
893.085	14320
893.207	14240
893.33	14130
893.452	14107
893.575	14347
893.697	14202
893.819	14423
893.941	14427
894.064	14438
894.186	14206
894.308	14134
894.43	14339
894.552	14434
894.674	14408
894.796	14233
894.918	14298
895.04	14336
895.161	14385
895.283	14355
895.405	14248
895.526	14332
895.648	14282
895.769	14389
895.891	14351
896.012	14480
896.134	14423
896.255	14431
896.376	14454
896.498	14370
896.619	14434
896.74	14343
896.861	14457
896.982	14720
897.103	14861
897.224	14731
897.345	14606
897.466	14598
897.587	14667
897.708	14777
897.828	14655
897.949	14716
898.07	14556
898.19	14594
898.311	14826
898.431	14720
898.552	14788
898.672	14819
898.792	14944
898.913	14796
899.033	14705
899.153	14530
899.273	14533
899.393	14629
899.513	14583
899.633	14636
899.753	14617
899.873	14610
899.993	14769
900.113	14648
900.232	14655
900.352	14545
900.472	14522
900.591	14450
900.711	14556
900.83	14400
900.95	14526
901.069	14587
901.189	14454
901.308	14145
901.427	14153
901.546	14115
901.665	14210
901.784	14115
901.904	13936
902.023	13951
902.141	13765
902.26	13712
902.379	13864
902.498	13700
902.617	13643
902.735	13776
902.854	13731
902.973	13643
903.091	13464
903.21	13457
903.328	13468
903.446	13438
903.565	13343
903.683	13339
903.801	13175
903.919	13274
904.038	13255
904.156	13103
904.274	13190
904.392	13103
904.51	13091
904.627	13072
904.745	13095
904.863	13145
904.981	12909
905.098	12837
905.216	12810
905.334	12760
905.451	12719
905.569	12798
905.686	12795
905.803	12791
905.921	12540
906.038	12711
906.155	12654
906.272	12525
906.389	12506
906.506	12372
906.623	12369
906.74	12403
906.857	12361
906.974	12315
907.091	12414
907.208	12555
907.324	12445
907.441	12285
907.557	12114
907.674	12133
907.79	12068
907.907	12121
908.023	12110
908.139	12106
908.256	12087
908.372	11931
908.488	12026
908.604	11927
908.72	11863
908.836	11908
908.952	11779
909.068	11927
909.184	12034
909.3	11885
909.415	11977
909.531	11939
909.647	11653
909.762	11638
909.878	11547
909.993	11672
910.108	11649
910.224	11543
910.339	11684
910.454	11623
910.57	11516
910.685	11372
910.8	11767
910.915	11668
911.03	11562
911.145	11356
911.259	11376
911.374	11364
911.489	11265
911.604	11231
911.718	11140
911.833	11193
911.947	10999
912.062	10900
912.176	11086
912.291	11109
912.405	11128
912.519	11269
912.633	11204
912.748	11159
912.862	11151
912.976	10911
913.09	10858
913.204	10869
913.318	10991
913.431	10961
913.545	11060
913.659	11132
913.772	10915
913.886	10858
914	10843
914.113	10923
914.226	11041
914.34	10976
914.453	10721
914.566	10961
914.68	10831
914.793	10748
914.906	10649
915.019	10542
915.132	10519
915.245	10531
915.358	10599
915.47	10577
915.583	10618
915.696	10607
915.809	10797
915.921	10721
916.034	10546
916.146	10561
916.259	10554
916.371	10664
916.483	10561
916.595	10459
916.708	10565
916.82	10550
916.932	10508
917.044	10504
917.156	10466
917.268	10390
917.38	10485
917.491	10382
917.603	10493
917.715	10470
917.826	10497
917.938	10405
918.049	10348
918.161	10447
918.272	10584
918.384	10584
918.495	10451
918.606	10268
918.717	10211
918.828	10306
918.939	10295
919.05	10147
919.161	10337
919.272	10105
919.383	10257
919.494	10276
919.604	10615
919.715	10371
919.826	10242
919.936	10303
920.047	10379
920.157	10280
920.267	10440
920.378	10417
920.488	10375
920.598	10531
920.708	10618
920.818	10527
920.928	10577
921.038	10706
921.148	10664
921.258	10344
921.368	10253
921.477	10097
921.587	10147
921.697	10109
921.806	10147
921.916	10120
922.025	9949
922.134	9857
922.244	9736
922.353	9873
922.462	9747
922.571	9633
922.68	9576
922.789	9641
922.898	9515
923.007	9538
923.116	9557
923.224	9603
923.333	9526
923.442	9389
923.55	9431
923.659	9382
923.767	9481
923.876	9397
923.984	9492
924.092	9332
924.201	9416
924.309	9447
924.417	9454
924.525	9344
924.633	9416
924.741	10303
924.849	9161
924.956	9401
925.064	9245
925.172	9119
925.279	9074
925.387	9233
925.494	9161
925.602	9370
925.709	9287
925.816	9207
925.924	9195
926.031	9245
926.138	9207
926.245	9329
926.352	9142
926.459	9279
926.566	9249
926.673	9173
926.779	8982
926.886	8994
926.993	8960
927.099	8956
927.206	8773
927.312	8868
927.419	8994
927.525	8960
927.631	8944
927.737	8895
927.843	8750
927.95	8697
928.056	8811
928.162	8830
928.267	8800
928.373	9488
928.479	8929
928.585	8682
928.69	8868
928.796	8785
928.901	8693
929.007	8632
929.112	8746
929.218	8701
929.323	8674
929.428	8590
929.533	8754
929.638	8583
929.743	8644
929.848	8651
929.953	8541
930.058	8598
930.163	8328
930.267	8381
930.372	8518
930.477	8362
930.581	8590
930.685	8511
930.79	8336
930.894	8351
930.998	8290
931.103	8465
931.207	8176
931.311	8100
931.415	8024
931.519	7864
931.623	7822
