Data from test_V78500241_2957.txt Node
Date: Fri Mar 25 14:54:18 CST 2022
User: usil
Spectrometer: V785-0024
Trigger mode: 0
Integration Time (sec): 4.000000E-1
Scans to average: 1
Nonlinearity correction enabled: false
Boxcar width: 0
Storing dark spectrum: false
XAxis mode: Wavelengths
Number of Pixels in Spectrum: 1024
>>>>>Begin Spectral Data<<<<<
801.071	22124
801.214	22097
801.356	21842
801.499	21561
801.641	21633
801.783	21481
801.926	21557
802.068	21500
802.211	21325
802.353	21237
802.496	20975
802.638	21047
802.78	20956
802.923	20777
803.065	20849
803.208	20804
803.35	20762
803.492	21001
803.635	20948
803.777	20750
803.919	20921
804.061	21131
804.204	20967
804.346	20746
804.488	20632
804.63	20788
804.773	20705
804.915	20640
805.057	20750
805.199	20636
805.341	20815
805.483	20762
805.626	20849
805.768	20609
805.91	20750
806.052	20743
806.194	20762
806.336	20739
806.478	20606
806.62	20655
806.762	20792
806.904	21009
807.046	21203
807.188	21077
807.33	20998
807.472	21096
807.614	20914
807.756	21005
807.898	20899
808.04	20621
808.182	20765
808.324	20625
808.465	20899
808.607	20963
808.749	21161
808.891	21203
809.033	21237
809.174	21176
809.316	20975
809.458	21104
809.6	21017
809.741	21093
809.883	21199
810.025	21192
810.166	21237
810.308	21275
810.45	21298
810.591	21142
810.733	20906
810.875	20956
811.016	20746
811.158	20937
811.299	21070
811.441	20998
811.582	21036
811.724	20887
811.865	20800
812.007	20739
812.148	20883
812.29	20807
812.431	20956
812.573	21100
812.714	21226
812.855	21268
812.997	21519
813.138	21622
813.279	21473
813.421	21294
813.562	21306
813.703	21180
813.845	21131
813.986	20765
814.127	20606
814.268	20514
814.41	20370
814.551	20385
814.692	20309
814.833	20313
814.974	20351
815.115	20530
815.256	20244
815.397	20210
815.539	20221
815.68	20164
815.821	20134
815.962	20142
816.103	20100
816.244	19951
816.385	19883
816.526	19772
816.666	19693
816.807	19616
816.948	19575
817.089	19628
817.23	19624
817.371	19506
817.512	19441
817.653	19533
817.793	19487
817.934	19529
818.075	19529
818.216	19521
818.356	19438
818.497	19335
818.638	19304
818.778	19209
818.919	19187
819.06	19213
819.2	19346
819.341	19392
819.481	19388
819.622	19533
819.762	19647
819.903	19658
820.043	19609
820.184	19502
820.324	19563
820.465	19613
820.605	19567
820.746	19354
820.886	19407
821.026	19480
821.167	19445
821.307	19658
821.447	19346
821.588	19304
821.728	19129
821.868	19031
822.008	18875
822.149	18993
822.289	18966
822.429	18620
822.569	18589
822.709	18635
822.849	18300
822.99	18437
823.13	18536
823.27	18410
823.41	18300
823.55	18228
823.69	18296
823.83	18266
823.97	18273
824.11	18022
824.25	18064
824.389	18057
824.529	18121
824.669	17939
824.809	18152
824.949	18121
825.089	18129
825.228	18114
825.368	17798
825.508	17786
825.648	17802
825.787	17794
825.927	17756
826.067	17836
826.206	17729
826.346	17771
826.485	17729
826.625	17790
826.765	17874
826.904	17764
827.044	17672
827.183	17516
827.323	17528
827.462	17452
827.601	17444
827.741	17414
827.88	17421
828.02	17360
828.159	17512
828.298	17505
828.437	17532
828.577	17395
828.716	17543
828.855	17421
828.994	17265
829.134	17193
829.273	17303
829.412	17227
829.551	17178
829.69	17185
829.829	17345
829.968	17296
830.107	17273
830.246	17181
830.385	17235
830.524	17178
830.663	16915
830.802	16908
830.941	16744
831.08	16774
831.219	16820
831.357	16835
831.496	17083
831.635	16885
831.774	16809
831.913	16778
832.051	16626
832.19	16706
832.329	16550
832.467	16535
832.606	16561
832.744	16504
832.883	16550
833.022	16527
833.16	16546
833.299	16546
833.437	16462
833.576	16569
833.714	16618
833.852	16599
833.991	16596
834.129	16599
834.267	16634
834.406	16626
834.544	16580
834.682	16497
834.821	16615
834.959	16713
835.097	16558
835.235	16607
835.373	16443
835.511	16615
835.65	16455
835.788	16436
835.926	16280
836.064	16325
836.202	16382
836.34	16455
836.478	16554
836.615	16459
836.753	16447
836.891	16489
837.029	16466
837.167	16402
837.305	16436
837.443	16329
837.58	16382
837.718	16386
837.856	16348
837.993	16280
838.131	16333
838.269	16280
838.406	16303
838.544	16226
838.681	16143
838.819	15991
838.956	15880
839.094	15861
839.231	15918
839.369	16040
839.506	16230
839.643	16082
839.781	15994
839.918	15816
840.055	15899
840.193	15880
840.33	15861
840.467	15884
840.604	15960
840.742	16249
840.879	15724
841.016	15778
841.153	15732
841.29	16010
841.427	15865
841.564	15838
841.701	15854
841.838	15743
841.975	15736
842.112	15747
842.249	15728
842.385	15572
842.522	15713
842.659	15641
842.796	15614
842.933	15698
843.069	15614
843.206	15648
843.343	15759
843.479	15698
843.616	15633
843.752	15405
843.889	15469
844.025	15538
844.162	15397
844.298	15599
844.435	15469
844.571	15359
844.708	15492
844.844	15549
844.98	15488
845.117	15507
845.253	15447
845.389	15336
845.525	15359
845.661	15302
845.798	15222
845.934	15272
846.07	15252
846.206	15264
846.342	15355
846.478	15291
846.614	15051
846.75	15013
846.886	14944
847.022	15108
847.158	14979
847.294	15005
847.429	15032
847.565	14994
847.701	15207
847.837	14804
847.972	14800
848.108	14807
848.244	14819
848.379	14613
848.515	14594
848.65	14602
848.786	14587
848.921	14621
849.057	14693
849.192	14754
849.328	14701
849.463	14678
849.598	14480
849.734	14370
849.869	14499
850.004	14434
850.14	14438
850.275	14400
850.41	14336
850.545	14328
850.68	14438
850.815	14427
850.95	14366
851.085	14461
851.22	14503
851.355	14362
851.49	14419
851.625	14301
851.76	14259
851.895	14358
852.03	14244
852.165	14389
852.299	14431
852.434	14476
852.569	14415
852.703	14320
852.838	14457
852.973	14522
853.107	14495
853.242	14244
853.376	14298
853.511	14069
853.645	14187
853.78	14298
853.914	14206
854.048	14221
854.183	14202
854.317	14206
854.451	14381
854.585	14263
854.72	14206
854.854	14298
854.988	14123
855.122	14180
855.256	14065
855.39	14214
855.524	14305
855.658	14221
855.792	14305
855.926	14278
856.06	14301
856.194	14324
856.327	14161
856.461	14176
856.595	14157
856.729	14199
856.862	14366
856.996	14374
857.13	14320
857.263	14336
857.397	14263
857.53	14256
857.664	14320
857.797	14355
857.931	14366
858.064	14275
858.197	14336
858.331	14168
858.464	14237
858.597	14069
858.731	14206
858.864	14355
858.997	14191
859.13	14317
859.263	14294
859.396	14199
859.529	14157
859.662	14210
859.795	14103
859.928	14103
860.061	14301
860.194	14415
860.327	14210
860.46	14256
860.592	14309
860.725	14313
860.858	14366
860.99	14157
861.123	14199
861.256	14183
861.388	14214
861.521	14796
861.653	14043
861.786	14096
861.918	14039
862.05	14248
862.183	14221
862.315	14244
862.447	14263
862.58	14199
862.712	13963
862.844	13974
862.976	14062
863.108	14123
863.24	14351
863.372	13940
863.504	13940
863.636	14024
863.768	14065
863.9	14012
864.032	13986
864.164	13989
864.296	14077
864.428	14073
864.559	14164
864.691	14092
864.823	14027
864.954	14119
865.086	14020
865.217	13947
865.349	13852
865.48	14069
865.612	13978
865.743	14050
865.875	13982
866.006	13913
866.137	13989
866.269	13936
866.4	14031
866.531	13944
866.662	13921
866.793	13898
866.924	13936
867.055	13982
867.186	14054
867.317	13963
867.448	13932
867.579	13864
867.71	13883
867.841	13928
867.972	14016
868.103	14008
868.233	14001
868.364	14012
868.495	13970
868.625	14142
868.756	14324
868.886	14183
869.017	14290
869.147	14248
869.278	14370
869.408	14221
869.539	14183
869.669	14324
869.799	14195
869.929	14355
870.06	14343
870.19	14583
870.32	14469
870.45	14583
870.58	14636
870.71	14689
870.84	14807
870.97	14629
871.1	14610
871.23	14853
871.36	14815
871.489	14655
871.619	14792
871.749	14899
871.879	14819
872.008	14967
872.138	14823
872.267	14800
872.397	14701
872.526	14613
872.656	14648
872.785	14724
872.915	14876
873.044	14918
873.173	14864
873.303	14933
873.432	14876
873.561	14979
873.69	14830
873.819	14921
873.948	15001
874.077	14944
874.206	14914
874.335	14937
874.464	15081
874.593	15176
874.722	15123
874.851	15275
874.979	15188
875.108	15252
875.237	15214
875.365	15157
875.494	15203
875.623	15348
875.751	15150
875.88	15154
876.008	15226
876.136	15378
876.265	15637
876.393	15728
876.521	15705
876.65	15728
876.778	15682
876.906	15595
877.034	15530
877.162	15622
877.29	15553
877.418	15603
877.546	15530
877.674	15614
877.802	15595
877.93	15641
878.058	15606
878.185	15530
878.313	15587
878.441	15644
878.568	15450
878.696	15458
878.824	15682
878.951	15599
879.079	15793
879.206	15915
879.333	15789
879.461	15641
879.588	15682
879.715	15819
879.842	15869
879.97	15679
880.097	15412
880.224	15507
880.351	15526
880.478	15610
880.605	15416
880.732	15401
880.859	15728
880.986	15507
881.112	15367
881.239	15355
881.366	15336
881.493	15192
881.619	15161
881.746	15077
881.872	15154
881.999	15154
882.125	15180
882.252	15214
882.378	15211
882.505	15237
882.631	15001
882.757	14925
882.883	15009
883.01	14963
883.136	14895
883.262	14849
883.388	14895
883.514	14990
883.64	14956
883.766	14994
883.892	14807
884.018	14819
884.143	14845
884.269	15009
884.395	14663
884.52	14659
884.646	14667
884.772	14522
884.897	14579
885.023	14583
885.148	14880
885.274	14895
885.399	14777
885.524	14640
885.65	14636
885.775	14640
885.9	14583
886.025	14788
886.15	14708
886.275	14613
886.4	14560
886.525	14682
886.65	14590
886.775	14533
886.9	14807
887.025	14834
887.149	14648
887.274	14457
887.399	14431
887.523	14343
887.648	14461
887.773	14377
887.897	14575
888.021	14473
888.146	14381
888.27	14640
888.395	14651
888.519	14488
888.643	14526
888.767	14522
888.891	14442
889.015	14317
889.139	14434
889.263	14412
889.387	14389
889.511	14511
889.635	14480
889.759	14294
889.883	14301
890.006	14366
890.13	14511
890.254	14282
890.377	14305
890.501	14138
890.624	14206
890.748	14199
890.871	14035
890.995	13967
891.118	13947
891.241	14069
891.364	14020
891.488	14088
891.611	14035
891.734	14020
891.857	14043
891.98	14092
892.103	14138
892.226	14088
892.349	14001
892.471	13921
892.594	13963
892.717	14054
892.839	14054
892.962	13997
893.085	14081
893.207	13963
893.33	13822
893.452	14024
893.575	14065
893.697	13947
893.819	14229
893.941	14256
894.064	14237
894.186	13997
894.308	14039
894.43	14084
894.552	14282
894.674	14161
894.796	14069
894.918	14149
895.04	14043
895.161	14199
895.283	14210
895.405	14130
895.526	14191
895.648	14065
895.769	14172
895.891	14252
896.012	14199
896.134	14286
896.255	14202
896.376	14183
896.498	14134
896.619	14237
896.74	14210
896.861	14339
896.982	14499
897.103	14644
897.224	14571
897.345	14476
897.466	14476
897.587	14526
897.708	14629
897.828	14575
897.949	14560
898.07	14396
898.19	14412
898.311	14651
898.431	14446
898.552	14537
898.672	14640
898.792	14613
898.913	14594
899.033	14556
899.153	14488
899.273	14412
899.393	14393
899.513	14415
899.633	14374
899.753	14480
899.873	14355
899.993	14560
900.113	14454
900.232	14343
900.352	14488
900.472	14278
900.591	14237
900.711	14286
900.83	14233
900.95	14298
901.069	14408
901.189	14225
901.308	14012
901.427	13982
901.546	13928
901.665	13963
901.784	14077
901.904	13856
902.023	13738
902.141	13620
902.26	13559
902.379	13670
902.498	13491
902.617	13514
902.735	13613
902.854	13548
902.973	13362
903.091	13304
903.21	13316
903.328	13282
903.446	13088
903.565	13107
903.683	13061
903.801	13053
903.919	13171
904.038	13095
904.156	12916
904.274	12920
904.392	12913
904.51	12954
904.627	12977
904.745	13000
904.863	12932
904.981	12764
905.098	12642
905.216	12623
905.334	12498
905.451	12646
905.569	12639
905.686	12681
905.803	12639
905.921	12445
906.038	12540
906.155	12426
906.272	12258
906.389	12441
906.506	12167
906.623	12251
906.74	12194
906.857	12079
906.974	12110
907.091	12376
907.208	12296
907.324	12247
907.441	12057
907.557	11897
907.674	11847
907.79	11912
907.907	11897
908.023	11999
908.139	11980
908.256	11992
908.372	11920
908.488	11832
908.604	11748
908.72	11748
908.836	11722
908.952	11596
909.068	11756
909.184	11710
909.3	11802
909.415	11733
909.531	11726
909.647	11505
909.762	11528
909.878	11486
909.993	11558
910.108	11425
910.224	11406
910.339	11414
910.454	11402
910.57	11360
910.685	11307
910.8	11604
910.915	11433
911.03	11383
911.145	11239
911.259	11235
911.374	11136
911.489	11102
911.604	11052
911.718	10972
911.833	11010
911.947	10831
912.062	10786
912.176	10923
912.291	10953
912.405	10938
912.519	11151
912.633	11136
912.748	11037
912.862	10934
912.976	10782
913.09	10675
913.204	10782
913.318	10812
913.431	10862
913.545	10892
913.659	10915
913.772	10801
913.886	10683
914	10679
914.113	10721
914.226	10873
914.34	10744
914.453	10565
914.566	10653
914.68	10733
914.793	10679
914.906	10413
915.019	10421
915.132	10322
915.245	10432
915.358	10519
915.47	10485
915.583	10443
915.696	10481
915.809	10637
915.921	10535
916.034	10470
916.146	10440
916.259	10360
916.371	10497
916.483	10459
916.595	10386
916.708	10405
916.82	10413
916.932	10386
917.044	10390
917.156	10402
917.268	10166
917.38	10177
917.491	10211
917.603	10280
917.715	10363
917.826	10325
917.938	10352
918.049	10169
918.161	10276
918.272	10375
918.384	10402
918.495	10284
918.606	10207
918.717	10051
918.828	10120
918.939	10116
919.05	10059
919.161	10131
919.272	9956
919.383	10055
919.494	10246
919.604	10371
919.715	10166
919.826	10128
919.936	10147
920.047	10284
920.157	10071
920.267	10409
920.378	10249
920.488	10154
920.598	10329
920.708	10481
920.818	10284
920.928	10356
921.038	10504
921.148	10527
921.258	10162
921.368	10200
921.477	9922
921.587	9991
921.697	9861
921.806	10063
921.916	9922
922.025	9774
922.134	9686
922.244	9705
922.353	9751
922.462	9652
922.571	9515
922.68	9435
922.789	9435
922.898	9526
923.007	9401
923.116	9462
923.224	9447
923.333	9412
923.442	9370
923.55	9264
923.659	9363
923.767	9389
923.876	9279
923.984	9454
924.092	9180
924.201	9245
924.309	9253
924.417	9321
924.525	9283
924.633	9298
924.741	10230
924.849	9093
924.956	9184
925.064	9097
925.172	9017
925.279	9017
925.387	9104
925.494	9104
925.602	9230
925.709	9188
925.816	9097
925.924	9108
926.031	9165
926.138	9127
926.245	9154
926.352	9066
926.459	9188
926.566	9230
926.673	9055
926.779	8941
926.886	8948
926.993	8864
927.099	8758
927.206	8678
927.312	8735
927.419	8887
927.525	8811
927.631	8781
927.737	8693
927.843	8674
927.95	8636
928.056	8701
928.162	8674
928.267	8720
928.373	9389
928.479	8777
928.585	8606
928.69	8659
928.796	8701
928.901	8659
929.007	8495
929.112	8655
929.218	8583
929.323	8621
929.428	8541
929.533	8655
929.638	8499
929.743	8530
929.848	8575
929.953	8396
930.058	8442
930.163	8275
930.267	8339
930.372	8366
930.477	8282
930.581	8511
930.685	8374
930.79	8206
930.894	8233
930.998	8259
931.103	8301
931.207	7989
931.311	8043
931.415	7928
931.519	7757
931.623	7784
