Data from test_V78500241_3123.txt Node
Date: Fri Mar 25 14:55:27 CST 2022
User: usil
Spectrometer: V785-0024
Trigger mode: 0
Integration Time (sec): 4.000000E-1
Scans to average: 1
Nonlinearity correction enabled: false
Boxcar width: 0
Storing dark spectrum: false
XAxis mode: Wavelengths
Number of Pixels in Spectrum: 1024
>>>>>Begin Spectral Data<<<<<
801.071	21972
801.214	21838
801.356	21717
801.499	21576
801.641	21393
801.783	21477
801.926	21439
802.068	21332
802.211	21237
802.353	21222
802.496	20994
802.638	20914
802.78	20792
802.923	20724
803.065	20697
803.208	20636
803.35	20724
803.492	20921
803.635	20838
803.777	20746
803.919	20967
804.061	21108
804.204	20804
804.346	20655
804.488	20663
804.63	20670
804.773	20674
804.915	20644
805.057	20826
805.199	20678
805.341	20758
805.483	20663
805.626	20678
805.768	20575
805.91	20670
806.052	20765
806.194	20575
806.336	20796
806.478	20655
806.62	20667
806.762	20746
806.904	20925
807.046	21009
807.188	21123
807.33	21009
807.472	20975
807.614	20921
807.756	20815
807.898	20800
808.04	20670
808.182	20739
808.324	20724
808.465	20823
808.607	20944
808.749	21005
808.891	21108
809.033	21237
809.174	21131
809.316	21051
809.458	20979
809.6	20967
809.741	21093
809.883	21036
810.025	21161
810.166	21138
810.308	21108
810.45	21142
810.591	21047
810.733	20876
810.875	20910
811.016	20750
811.158	20651
811.299	20872
811.441	20910
811.582	20921
811.724	20807
811.865	20735
812.007	20800
812.148	20735
812.29	20739
812.431	20933
812.573	21017
812.714	21192
812.855	21283
812.997	21424
813.138	21523
813.279	21530
813.421	21405
813.562	21313
813.703	21081
813.845	21001
813.986	20678
814.127	20545
814.268	20427
814.41	20389
814.551	20332
814.692	20457
814.833	20252
814.974	20324
815.115	20347
815.256	20240
815.397	20134
815.539	20202
815.68	20088
815.821	20008
815.962	20145
816.103	20046
816.244	19890
816.385	19841
816.526	19712
816.666	19590
816.807	19453
816.948	19575
817.089	19597
817.23	19601
817.371	19464
817.512	19438
817.653	19487
817.793	19472
817.934	19480
818.075	19487
818.216	19472
818.356	19415
818.497	19339
818.638	19012
818.778	19251
818.919	19137
819.06	19114
819.2	19324
819.341	19396
819.481	19282
819.622	19407
819.762	19658
819.903	19506
820.043	19472
820.184	19365
820.324	19400
820.465	19339
820.605	19483
820.746	19384
820.886	19430
821.026	19369
821.167	19400
821.307	19434
821.447	19392
821.588	19236
821.728	19088
821.868	19031
822.008	18890
822.149	18863
822.289	18817
822.429	18623
822.569	18585
822.709	18540
822.849	18330
822.99	18353
823.13	18251
823.27	18342
823.41	18171
823.55	18102
823.69	18216
823.83	18140
823.97	18140
824.11	18019
824.25	17813
824.389	17901
824.529	18026
824.669	17916
824.809	17999
824.949	17973
825.089	17992
825.228	17904
825.368	17707
825.508	17684
825.648	17615
825.787	17634
825.927	17775
826.067	17577
826.206	17551
826.346	17722
826.485	17665
826.625	17611
826.765	17748
826.904	17733
827.044	17429
827.183	17493
827.323	17406
827.462	17467
827.601	17581
827.741	17406
827.88	17292
828.02	17227
828.159	17330
828.298	17246
828.437	17364
828.577	17303
828.716	17490
828.855	17197
828.994	17155
829.134	17102
829.273	17109
829.412	16999
829.551	17083
829.69	17060
829.829	17136
829.968	17121
830.107	17090
830.246	17052
830.385	17067
830.524	17105
830.663	17033
830.802	16889
830.941	16710
831.08	16679
831.219	16850
831.357	16736
831.496	16972
831.635	16656
831.774	16607
831.913	16626
832.051	16645
832.19	16546
832.329	16561
832.467	16413
832.606	16413
832.744	16382
832.883	16405
833.022	16371
833.16	16303
833.299	16413
833.437	16432
833.576	16497
833.714	16489
833.852	16508
833.991	16504
834.129	16443
834.267	16527
834.406	16500
834.544	16409
834.682	16447
834.821	16466
834.959	16691
835.097	16481
835.235	16523
835.373	16481
835.511	16558
835.65	16360
835.788	16382
835.926	16329
836.064	16287
836.202	16280
836.34	16322
836.478	16474
836.615	16318
836.753	16497
836.891	16398
837.029	16291
837.167	16363
837.305	16303
837.443	16337
837.58	16093
837.718	16249
837.856	16325
837.993	16238
838.131	16276
838.269	16162
838.406	16238
838.544	15964
838.681	15953
838.819	16017
838.956	15831
839.094	15709
839.231	15926
839.369	15907
839.506	16253
839.643	16131
839.781	15778
839.918	15675
840.055	15816
840.193	15797
840.33	15797
840.467	15816
840.604	15850
840.742	16082
840.879	15679
841.016	15739
841.153	15713
841.29	15903
841.427	15736
841.564	15850
841.701	15770
841.838	15713
841.975	15629
842.112	15694
842.249	15720
842.385	15542
842.522	15736
842.659	15557
842.796	15599
842.933	15679
843.069	15485
843.206	15545
843.343	15633
843.479	15523
843.616	15572
843.752	15325
843.889	15466
844.025	15500
844.162	15287
844.298	15416
844.435	15367
844.571	15317
844.708	15397
844.844	15545
844.98	15454
845.117	15511
845.253	15450
845.389	15230
845.525	15279
845.661	15283
845.798	15062
845.934	15218
846.07	15131
846.206	15154
846.342	15279
846.478	15173
846.614	15062
846.75	14864
846.886	14910
847.022	15039
847.158	14861
847.294	14982
847.429	14971
847.565	14914
847.701	15207
847.837	14670
847.972	14663
848.108	14796
848.244	14743
848.379	14450
848.515	14575
848.65	14427
848.786	14522
848.921	14488
849.057	14590
849.192	14632
849.328	14484
849.463	14594
849.598	14587
849.734	14454
849.869	14450
850.004	14275
850.14	14396
850.275	14225
850.41	14298
850.545	14180
850.68	14336
850.815	14252
850.95	14286
851.085	14480
851.22	14389
851.355	14366
851.49	14313
851.625	14271
851.76	14229
851.895	14233
852.03	14199
852.165	14240
852.299	14400
852.434	14305
852.569	14328
852.703	14309
852.838	14358
852.973	14419
853.107	14450
853.242	14320
853.376	14176
853.511	13986
853.645	14161
853.78	14347
853.914	14252
854.048	14111
854.183	14149
854.317	14225
854.451	14290
854.585	14157
854.72	14145
854.854	14332
854.988	14115
855.122	14111
855.256	13921
855.39	14202
855.524	14149
855.658	14252
855.792	14149
855.926	14191
856.06	14240
856.194	14187
856.327	14202
856.461	14195
856.595	14073
856.729	14168
856.862	14332
856.996	14221
857.13	14362
857.263	14248
857.397	14233
857.53	14206
857.664	14263
857.797	14221
857.931	14271
858.064	14263
858.197	14275
858.331	14275
858.464	14092
858.597	14027
858.731	14187
858.864	14130
858.997	14157
859.13	14221
859.263	14263
859.396	14259
859.529	14130
859.662	14096
859.795	14103
859.928	14240
860.061	14294
860.194	14374
860.327	14309
860.46	14115
860.592	14229
860.725	14301
860.858	14218
860.99	14100
861.123	14073
861.256	14035
861.388	14142
861.521	14838
861.653	14012
861.786	14058
861.918	13959
862.05	14123
862.183	14259
862.315	14092
862.447	14157
862.58	14183
862.712	13928
862.844	13894
862.976	14027
863.108	13982
863.24	14183
863.372	13837
863.504	13951
863.636	14005
863.768	13997
863.9	13978
864.032	13887
864.164	13967
864.296	14020
864.428	14077
864.559	14039
864.691	14050
864.823	14035
864.954	13921
865.086	13993
865.217	13989
865.349	13902
865.48	13951
865.612	13974
865.743	14168
865.875	13932
866.006	13879
866.137	13883
866.269	13906
866.4	13860
866.531	13898
866.662	13955
866.793	13921
866.924	13906
867.055	13947
867.186	13947
867.317	13852
867.448	13822
867.579	13909
867.71	13856
867.841	13868
867.972	13921
868.103	14027
868.233	13928
868.364	13902
868.495	14027
868.625	14130
868.756	14347
868.886	14096
869.017	14103
869.147	14324
869.278	14294
869.408	14218
869.539	14191
869.669	14229
869.799	14180
869.929	14309
870.06	14282
870.19	14549
870.32	14526
870.45	14537
870.58	14564
870.71	14667
870.84	14705
870.97	14549
871.1	14571
871.23	14727
871.36	14724
871.489	14613
871.619	14754
871.749	14811
871.879	14868
872.008	14952
872.138	14727
872.267	14724
872.397	14674
872.526	14610
872.656	14727
872.785	14606
872.915	14861
873.044	14925
873.173	14758
873.303	14804
873.432	14876
873.561	14895
873.69	14868
873.819	14807
873.948	14906
874.077	14754
874.206	14842
874.335	14823
874.464	14979
874.593	15127
874.722	15028
874.851	15226
874.979	15146
875.108	15150
875.237	15047
875.365	15058
875.494	15245
875.623	15207
875.751	15081
875.88	15252
876.008	15294
876.136	15382
876.265	15641
876.393	15762
876.521	15603
876.65	15625
876.778	15648
876.906	15534
877.034	15477
877.162	15458
877.29	15504
877.418	15519
877.546	15485
877.674	15568
877.802	15603
877.93	15450
878.058	15515
878.185	15397
878.313	15477
878.441	15637
878.568	15367
878.696	15500
878.824	15564
878.951	15572
879.079	15648
879.206	15880
879.333	15770
879.461	15584
879.588	15759
879.715	15800
879.842	15827
879.97	15580
880.097	15393
880.224	15283
880.351	15428
880.478	15424
880.605	15393
880.732	15439
880.859	15622
880.986	15443
881.112	15443
881.239	15340
881.366	15214
881.493	15165
881.619	15169
881.746	15100
881.872	15081
881.999	15013
882.125	15058
882.252	15169
882.378	15055
882.505	15241
882.631	14990
882.757	14914
882.883	14933
883.01	14910
883.136	14872
883.262	14739
883.388	14720
883.514	14971
883.64	14975
883.766	14887
883.892	14716
884.018	14705
884.143	14819
884.269	14944
884.395	14651
884.52	14518
884.646	14670
884.772	14507
884.897	14431
885.023	14598
885.148	14731
885.274	14807
885.399	14693
885.524	14697
885.65	14602
885.775	14594
885.9	14598
886.025	14686
886.15	14686
886.275	14560
886.4	14518
886.525	14556
886.65	14522
886.775	14594
886.9	14697
887.025	14804
887.149	14705
887.274	14492
887.399	14324
887.523	14415
887.648	14362
887.773	14339
887.897	14465
888.021	14431
888.146	14370
888.27	14537
888.395	14579
888.519	14438
888.643	14511
888.767	14530
888.891	14313
889.015	14324
889.139	14271
889.263	14298
889.387	14389
889.511	14469
889.635	14438
889.759	14263
889.883	14278
890.006	14298
890.13	14404
890.254	14199
890.377	14130
890.501	14149
890.624	14065
890.748	14164
890.871	14084
890.995	13928
891.118	13890
891.241	14024
891.364	13925
891.488	14107
891.611	14012
891.734	13963
891.857	14069
891.98	14100
892.103	14157
892.226	14164
892.349	14039
892.471	13909
892.594	13970
892.717	14043
892.839	13921
892.962	13974
893.085	14088
893.207	13967
893.33	13868
893.452	13871
893.575	14138
893.697	13894
893.819	14149
893.941	14107
894.064	14065
894.186	13959
894.308	14020
894.43	14069
894.552	14191
894.674	14149
894.796	13925
894.918	14126
895.04	14126
895.161	14145
895.283	14077
895.405	14039
895.526	14221
895.648	14050
895.769	14145
895.891	14176
896.012	14214
896.134	14153
896.255	14180
896.376	14130
896.498	14191
896.619	14278
896.74	14206
896.861	14183
896.982	14476
897.103	14648
897.224	14454
897.345	14438
897.466	14324
897.587	14427
897.708	14537
897.828	14507
897.949	14431
898.07	14332
898.19	14450
898.311	14522
898.431	14507
898.552	14590
898.672	14590
898.792	14613
898.913	14530
899.033	14434
899.153	14393
899.273	14294
899.393	14248
899.513	14492
899.633	14358
899.753	14317
899.873	14339
899.993	14408
900.113	14328
900.232	14461
900.352	14450
900.472	14229
900.591	14176
900.711	14252
900.83	14199
900.95	14336
901.069	14355
901.189	14187
901.308	13940
901.427	13868
901.546	13875
901.665	13993
901.784	13970
901.904	13841
902.023	13681
902.141	13510
902.26	13552
902.379	13647
902.498	13537
902.617	13476
902.735	13430
902.854	13464
902.973	13514
903.091	13304
903.21	13228
903.328	13175
903.446	13190
903.565	13080
903.683	13126
903.801	12920
903.919	13038
904.038	13000
904.156	12939
904.274	12973
904.392	12833
904.51	12791
904.627	12901
904.745	12935
904.863	12916
904.981	12677
905.098	12673
905.216	12646
905.334	12642
905.451	12532
905.569	12540
905.686	12597
905.803	12582
905.921	12471
906.038	12429
906.155	12327
906.272	12350
906.389	12365
906.506	12163
906.623	12159
906.74	12140
906.857	12034
906.974	12095
907.091	12224
907.208	12262
907.324	12235
907.441	12060
907.557	11897
907.674	11984
907.79	11779
907.907	11916
908.023	11980
908.139	11897
908.256	11847
908.372	11824
908.488	11786
908.604	11646
908.72	11619
908.836	11684
908.952	11741
909.068	11672
909.184	11802
909.3	11672
909.415	11699
909.531	11672
909.647	11463
909.762	11463
909.878	11425
909.993	11535
910.108	11433
910.224	11330
910.339	11429
910.454	11368
910.57	11280
910.685	11204
910.8	11577
910.915	11562
911.03	11391
911.145	11193
911.259	11094
911.374	11132
911.489	11056
911.604	11109
911.718	10934
911.833	10854
911.947	10828
912.062	10755
912.176	10923
912.291	10953
912.405	10995
912.519	11102
912.633	11178
912.748	10908
912.862	10877
912.976	10828
913.09	10691
913.204	10759
913.318	10778
913.431	10877
913.545	10881
913.659	10980
913.772	10805
913.886	10710
914	10714
914.113	10729
914.226	10755
914.34	10736
914.453	10656
914.566	10744
914.68	10622
914.793	10615
914.906	10504
915.019	10443
915.132	10284
915.245	10329
915.358	10447
915.47	10421
915.583	10375
915.696	10443
915.809	10565
915.921	10653
916.034	10390
916.146	10386
916.259	10249
916.371	10493
916.483	10443
916.595	10382
916.708	10337
916.82	10363
916.932	10337
917.044	10329
917.156	10367
917.268	10177
917.38	10181
917.491	10352
917.603	10207
917.715	10371
917.826	10413
917.938	10268
918.049	10120
918.161	10234
918.272	10462
918.384	10443
918.495	10280
918.606	10097
918.717	9994
918.828	10131
918.939	10162
919.05	10093
919.161	10093
919.272	9922
919.383	10017
919.494	10135
919.604	10284
919.715	10090
919.826	9975
919.936	10090
920.047	10230
920.157	10150
920.267	10405
920.378	10162
920.488	10200
920.598	10409
920.708	10538
920.818	10318
920.928	10341
921.038	10493
921.148	10508
921.258	10249
921.368	10109
921.477	10044
921.587	10025
921.697	9934
921.806	10010
921.916	9899
922.025	9679
922.134	9759
922.244	9713
922.353	9774
922.462	9660
922.571	9553
922.68	9469
922.789	9424
922.898	9431
923.007	9329
923.116	9397
923.224	9408
923.333	9435
923.442	9294
923.55	9195
923.659	9317
923.767	9325
923.876	9268
923.984	9393
924.092	9203
924.201	9298
924.309	9245
924.417	9264
924.525	9218
924.633	9199
924.741	10120
924.849	9089
924.956	9283
925.064	9047
925.172	9017
925.279	9070
925.387	9100
925.494	9157
925.602	9237
925.709	9138
925.816	8979
925.924	9062
926.031	9203
926.138	9070
926.245	9093
926.352	8994
926.459	9127
926.566	9097
926.673	9024
926.779	8864
926.886	8963
926.993	8834
927.099	8834
927.206	8731
927.312	8712
927.419	8796
927.525	8781
927.631	8842
927.737	8746
927.843	8659
927.95	8522
928.056	8674
928.162	8724
928.267	8689
928.373	9154
928.479	8804
928.585	8514
928.69	8659
928.796	8674
928.901	8503
929.007	8431
929.112	8598
929.218	8568
929.323	8541
929.428	8492
929.533	8663
929.638	8438
929.743	8461
929.848	8507
929.953	8514
930.058	8400
930.163	8271
930.267	8343
930.372	8427
930.477	8252
930.581	8450
930.685	8298
930.79	8214
930.894	8259
930.998	8233
931.103	8366
931.207	7963
931.311	8001
931.415	7837
931.519	7712
931.623	7696
