Data from test_V78500241_436.txt Node
Date: Fri Mar 25 14:36:45 CST 2022
User: usil
Spectrometer: V785-0024
Trigger mode: 0
Integration Time (sec): 4.000000E-1
Scans to average: 1
Nonlinearity correction enabled: false
Boxcar width: 0
Storing dark spectrum: false
XAxis mode: Wavelengths
Number of Pixels in Spectrum: 1024
>>>>>Begin Spectral Data<<<<<
801.071	26598
801.214	26476
801.356	26358
801.499	26176
801.641	25982
801.783	25875
801.926	26058
802.068	25913
802.211	25852
802.353	25909
802.496	25799
802.638	25662
802.78	25567
802.923	25548
803.065	25422
803.208	25453
803.35	25495
803.492	25616
803.635	25727
803.777	25476
803.919	25632
804.061	25906
804.204	25605
804.346	25441
804.488	25464
804.63	25365
804.773	25327
804.915	25567
805.057	25624
805.199	25578
805.341	25483
805.483	25514
805.626	25548
805.768	25537
805.91	25521
806.052	25624
806.194	25529
806.336	25780
806.478	25632
806.62	25544
806.762	25780
806.904	25966
807.046	26008
807.188	25928
807.33	25974
807.472	25894
807.614	25818
807.756	26005
807.898	25677
808.04	25620
808.182	25639
808.324	25693
808.465	25632
808.607	25906
808.749	26054
808.891	26134
809.033	26355
809.174	25997
809.316	26130
809.458	25921
809.6	25993
809.741	26020
809.883	25951
810.025	26199
810.166	26294
810.308	26286
810.45	26149
810.591	26065
810.733	26024
810.875	25856
811.016	25818
811.158	25750
811.299	25909
811.441	25944
811.582	26035
811.724	25841
811.865	25845
812.007	25841
812.148	25898
812.29	25883
812.431	26073
812.573	26069
812.714	26278
812.855	26298
812.997	26324
813.138	26686
813.279	26469
813.421	26533
813.562	26286
813.703	26119
813.845	25963
813.986	25620
814.127	25483
814.268	25567
814.41	25441
814.551	25381
814.692	25499
814.833	25388
814.974	25266
815.115	25369
815.256	25209
815.397	25297
815.539	25297
815.68	25107
815.821	25069
815.962	25198
816.103	25080
816.244	25012
816.385	24886
816.526	24719
816.666	24715
816.807	24658
816.948	24631
817.089	24604
817.23	24532
817.371	24620
817.512	24498
817.653	24544
817.793	24502
817.934	24582
818.075	24570
818.216	24551
818.356	24410
818.497	24350
818.638	24140
818.778	24315
818.919	24254
819.06	24330
819.2	24266
819.341	24532
819.481	24414
819.622	24654
819.762	24719
819.903	24783
820.043	24658
820.184	24574
820.324	24589
820.465	24646
820.605	24528
820.746	24536
820.886	24353
821.026	24479
821.167	24486
821.307	24620
821.447	24433
821.588	24277
821.728	24205
821.868	24110
822.008	23897
822.149	23821
822.289	23821
822.429	23531
822.569	23528
822.709	23478
822.849	23299
822.99	23421
823.13	23315
823.27	23330
823.41	23147
823.55	23041
823.69	23185
823.83	23109
823.97	23048
824.11	23071
824.25	22797
824.389	22889
824.529	22949
824.669	22862
824.809	22938
824.949	22892
825.089	22965
825.228	22942
825.368	22744
825.508	22824
825.648	22679
825.787	22733
825.927	22622
826.067	22698
826.206	22634
826.346	22664
826.485	22820
826.625	22702
826.765	22729
826.904	22752
827.044	22485
827.183	22504
827.323	22325
827.462	22459
827.601	22360
827.741	22265
827.88	22253
828.02	22348
828.159	22402
828.298	22329
828.437	22306
828.577	22417
828.716	22398
828.855	22352
828.994	22105
829.134	22082
829.273	22074
829.412	22082
829.551	22017
829.69	22120
829.829	21987
829.968	22150
830.107	22059
830.246	22059
830.385	21998
830.524	21888
830.663	21778
830.802	21759
830.941	21492
831.08	21633
831.219	21682
831.357	21789
831.496	21922
831.635	21629
831.774	21492
831.913	21408
832.051	21488
832.19	21488
832.329	21367
832.467	21283
832.606	21218
832.744	21317
832.883	21287
833.022	21192
833.16	21245
833.299	21260
833.437	21272
833.576	21340
833.714	21176
833.852	21359
833.991	21302
834.129	21393
834.267	21317
834.406	21283
834.544	21256
834.682	21260
834.821	21294
834.959	21549
835.097	21211
835.235	21291
835.373	21252
835.511	21279
835.65	21150
835.788	21180
835.926	20971
836.064	20880
836.202	20902
836.34	21036
836.478	21249
836.615	21028
836.753	21093
836.891	21302
837.029	21199
837.167	21028
837.305	21055
837.443	20937
837.58	21005
837.718	21058
837.856	20963
837.993	20956
838.131	21039
838.269	20914
838.406	20872
838.544	20785
838.681	20617
838.819	20598
838.956	20514
839.094	20446
839.231	20511
839.369	20644
839.506	20849
839.643	20678
839.781	20431
839.918	20358
840.055	20469
840.193	20377
840.33	20355
840.467	20465
840.604	20419
840.742	20575
840.879	20107
841.016	20183
841.153	20358
841.29	20377
841.427	20301
841.564	20275
841.701	20404
841.838	20396
841.975	20240
842.112	20305
842.249	20286
842.385	20031
842.522	20100
842.659	20111
842.796	19967
842.933	20043
843.069	19955
843.206	20065
843.343	20050
843.479	20142
843.616	20088
843.752	19833
843.889	19845
844.025	20016
844.162	19852
844.298	19978
844.435	19856
844.571	19731
844.708	19890
844.844	20027
844.98	19989
845.117	19913
845.253	19894
845.389	19670
845.525	19811
845.661	19750
845.798	19605
845.934	19563
846.07	19651
846.206	19674
846.342	19788
846.478	19559
846.614	19419
846.75	19289
846.886	19354
847.022	19411
847.158	19358
847.294	19255
847.429	19331
847.565	19282
847.701	19556
847.837	19114
847.972	19042
848.108	19095
848.244	19099
848.379	18924
848.515	18848
848.65	18894
848.786	18829
848.921	18875
849.057	18928
849.192	18935
849.328	18966
849.463	18909
849.598	18970
849.734	18684
849.869	18734
850.004	18623
850.14	18719
850.275	18711
850.41	18456
850.545	18620
850.68	18578
850.815	18734
850.95	18506
851.085	18779
851.22	18745
851.355	18612
851.49	18452
851.625	18456
851.76	18513
851.895	18452
852.03	18486
852.165	18555
852.299	18593
852.434	18661
852.569	18627
852.703	18479
852.838	18585
852.973	18658
853.107	18669
853.242	18570
853.376	18521
853.511	18239
853.645	18437
853.78	18559
853.914	18384
854.048	18502
854.183	18334
854.317	18498
854.451	18494
854.585	18407
854.72	18429
854.854	18460
854.988	18369
855.122	18513
855.256	18197
855.39	18395
855.524	18490
855.658	18441
855.792	18380
855.926	18502
856.06	18448
856.194	18532
856.327	18422
856.461	18311
856.595	18407
856.729	18292
856.862	18555
856.996	18399
857.13	18464
857.263	18407
857.397	18414
857.53	18323
857.664	18479
857.797	18369
857.931	18452
858.064	18384
858.197	18483
858.331	18357
858.464	18300
858.597	18205
858.731	18300
858.864	18361
858.997	18365
859.13	18399
859.263	18467
859.396	18506
859.529	18475
859.662	18258
859.795	18224
859.928	18296
860.061	18566
860.194	18418
860.327	18300
860.46	18407
860.592	18513
860.725	18464
860.858	18426
860.99	18327
861.123	18300
861.256	18334
861.388	18289
861.521	19031
861.653	18140
861.786	18194
861.918	18346
862.05	18342
862.183	18429
862.315	18391
862.447	18380
862.58	18376
862.712	18125
862.844	18144
862.976	18285
863.108	18167
863.24	18407
863.372	17996
863.504	18076
863.636	18022
863.768	18140
863.9	18060
864.032	17977
864.164	18019
864.296	18171
864.428	18174
864.559	18140
864.691	18159
864.823	18015
864.954	18083
865.086	18019
865.217	17950
865.349	17969
865.48	18038
865.612	18060
865.743	18133
865.875	18003
866.006	17950
866.137	18038
866.269	18015
866.4	18102
866.531	18011
866.662	17961
866.793	17904
866.924	17916
867.055	17996
867.186	17863
867.317	17965
867.448	17889
867.579	17908
867.71	17878
867.841	17901
867.972	17946
868.103	17977
868.233	17863
868.364	17836
868.495	17973
868.625	18171
868.756	18292
868.886	18110
869.017	18235
869.147	18232
869.278	18216
869.408	18133
869.539	18110
869.669	18315
869.799	18220
869.929	18399
870.06	18270
870.19	18627
870.32	18604
870.45	18464
870.58	18555
870.71	18646
870.84	18700
870.97	18509
871.1	18555
871.23	18760
871.36	18741
871.489	18646
871.619	18604
871.749	18772
871.879	18817
872.008	18882
872.138	18817
872.267	18745
872.397	18620
872.526	18631
872.656	18578
872.785	18604
872.915	18772
873.044	18856
873.173	18776
873.303	18791
873.432	18798
873.561	18913
873.69	18833
873.819	18779
873.948	18810
874.077	18749
874.206	18696
874.335	18932
874.464	18966
874.593	19046
874.722	18977
874.851	19137
874.979	19046
875.108	19141
875.237	19034
875.365	18920
875.494	19076
875.623	19179
875.751	19084
875.88	19209
876.008	19312
876.136	19354
876.265	19518
876.393	19609
876.521	19559
876.65	19499
876.778	19514
876.906	19514
877.034	19483
877.162	19457
877.29	19331
877.418	19487
877.546	19411
877.674	19457
877.802	19491
877.93	19514
878.058	19449
878.185	19331
878.313	19506
878.441	19540
878.568	19346
878.696	19514
878.824	19472
878.951	19605
879.079	19635
879.206	19750
879.333	19681
879.461	19430
879.588	19655
879.715	19651
879.842	19849
879.97	19533
880.097	19339
880.224	19362
880.351	19304
880.478	19324
880.605	19312
880.732	19316
880.859	19491
880.986	19335
881.112	19419
881.239	19148
881.366	19061
881.493	19110
881.619	18894
881.746	18943
881.872	19057
881.999	19031
882.125	18776
882.252	18996
882.378	18913
882.505	18970
882.631	18837
882.757	18707
882.883	18814
883.01	18707
883.136	18726
883.262	18570
883.388	18486
883.514	18730
883.64	18650
883.766	18703
883.892	18445
884.018	18532
884.143	18627
884.269	18795
884.395	18456
884.52	18407
884.646	18357
884.772	18300
884.897	18273
885.023	18414
885.148	18475
885.274	18479
885.399	18445
885.524	18342
885.65	18414
885.775	18486
885.9	18350
886.025	18445
886.15	18429
886.275	18273
886.4	18235
886.525	18323
886.65	18304
886.775	18251
886.9	18426
887.025	18494
887.149	18361
887.274	18190
887.399	18148
887.523	18030
887.648	18038
887.773	18038
887.897	18216
888.021	18133
888.146	18057
888.27	18140
888.395	18228
888.519	18133
888.643	18083
888.767	18152
888.891	17999
889.015	17961
889.139	18030
889.263	17977
889.387	18079
889.511	18167
889.635	17961
889.759	17958
889.883	17942
890.006	17885
890.13	17992
890.254	17916
890.377	17882
890.501	17676
890.624	17718
890.748	17878
890.871	17649
890.995	17516
891.118	17512
891.241	17661
891.364	17566
891.488	17710
891.611	17528
891.734	17566
891.857	17634
891.98	17589
892.103	17707
892.226	17608
892.349	17562
892.471	17455
892.594	17524
892.717	17558
892.839	17497
892.962	17455
893.085	17570
893.207	17452
893.33	17406
893.452	17486
893.575	17444
893.697	17528
893.819	17638
893.941	17729
894.064	17554
894.186	17474
894.308	17421
894.43	17611
894.552	17687
894.674	17657
894.796	17349
894.918	17482
895.04	17528
895.161	17547
895.283	17627
895.405	17524
895.526	17562
895.648	17570
895.769	17562
895.891	17558
896.012	17611
896.134	17589
896.255	17573
896.376	17623
896.498	17627
896.619	17680
896.74	17657
896.861	17699
896.982	17958
897.103	18019
897.224	17897
897.345	17817
897.466	17760
897.587	17764
897.708	17965
897.828	17843
897.949	17737
898.07	17741
898.19	17885
898.311	17870
898.431	17859
898.552	17821
898.672	17882
898.792	17904
898.913	17878
899.033	17805
899.153	17638
899.273	17524
899.393	17570
899.513	17665
899.633	17600
899.753	17509
899.873	17505
899.993	17691
900.113	17657
900.232	17543
900.352	17493
900.472	17509
900.591	17417
900.711	17493
900.83	17467
900.95	17554
901.069	17589
901.189	17505
901.308	17086
901.427	16984
901.546	17018
901.665	17029
901.784	17136
901.904	16896
902.023	16908
902.141	16702
902.26	16599
902.379	16698
902.498	16615
902.617	16413
902.735	16630
902.854	16554
902.973	16546
903.091	16344
903.21	16219
903.328	16295
903.446	16200
903.565	16162
903.683	16036
903.801	16036
903.919	16120
904.038	15994
904.156	15934
904.274	15994
904.392	15823
904.51	15846
904.627	15949
904.745	15941
904.863	15983
904.981	15671
905.098	15553
905.216	15511
905.334	15591
905.451	15572
905.569	15538
905.686	15660
905.803	15534
905.921	15393
906.038	15408
906.155	15344
906.272	15218
906.389	15298
906.506	14998
906.623	15131
906.74	15104
906.857	14937
906.974	15028
907.091	15116
907.208	15154
907.324	15146
907.441	14941
907.557	14845
907.674	14727
907.79	14693
907.907	14849
908.023	14845
908.139	14765
908.256	14686
908.372	14758
908.488	14697
908.604	14621
908.72	14465
908.836	14526
908.952	14396
909.068	14552
909.184	14689
909.3	14556
909.415	14480
909.531	14434
909.647	14286
909.762	14252
909.878	14153
909.993	14256
910.108	14214
910.224	14225
910.339	14210
910.454	14107
910.57	14069
910.685	13917
910.8	14286
910.915	14248
911.03	14050
911.145	13955
911.259	13864
911.374	13909
911.489	13856
911.604	13723
911.718	13636
911.833	13742
911.947	13480
912.062	13464
912.176	13685
912.291	13700
912.405	13639
912.519	13734
912.633	13742
912.748	13712
912.862	13746
912.976	13415
913.09	13381
913.204	13331
913.318	13445
913.431	13575
913.545	13578
913.659	13559
913.772	13392
913.886	13274
914	13316
914.113	13411
914.226	13365
914.34	13316
914.453	13149
914.566	13384
914.68	13187
914.793	13198
914.906	13008
915.019	12981
915.132	12973
915.245	12977
915.358	13019
915.47	12935
915.583	12973
915.696	12970
915.809	13076
915.921	13137
916.034	12970
916.146	12928
916.259	12821
916.371	12981
916.483	12943
916.595	12776
916.708	12856
916.82	12738
916.932	12859
917.044	12825
917.156	12840
917.268	12677
917.38	12650
917.491	12597
917.603	12711
917.715	12779
917.826	12684
917.938	12635
918.049	12631
918.161	12646
918.272	12783
918.384	12821
918.495	12627
918.606	12460
918.717	12372
918.828	12467
918.939	12544
919.05	12445
919.161	12456
919.272	12270
919.383	12323
919.494	12509
919.604	12677
919.715	12410
919.826	12433
919.936	12429
920.047	12551
920.157	12498
920.267	12589
920.378	12410
920.488	12311
920.598	12585
920.708	12741
920.818	12673
920.928	12589
921.038	12852
921.148	12620
921.258	12418
921.368	12350
921.477	12224
921.587	12209
921.697	12167
921.806	12300
921.916	12232
922.025	11923
922.134	11908
922.244	11794
922.353	11923
922.462	11752
922.571	11699
922.68	11554
922.789	11528
922.898	11539
923.007	11471
923.116	11611
923.224	11532
923.333	11524
923.442	11433
923.55	11334
923.659	11429
923.767	11463
923.876	11376
923.984	11368
924.092	11273
924.201	11364
924.309	11269
924.417	11345
924.525	11212
924.633	11261
924.741	12136
924.849	11102
924.956	11231
925.064	11121
925.172	10987
925.279	11067
925.387	11094
925.494	11140
925.602	11197
925.709	11258
925.816	10987
925.924	11071
926.031	11166
926.138	11086
926.245	11136
926.352	11033
926.459	11147
926.566	11223
926.673	11102
926.779	10885
926.886	10873
926.993	10778
927.099	10755
927.206	10691
927.312	10702
927.419	10801
927.525	10805
927.631	10767
927.737	10653
927.843	10694
927.95	10527
928.056	10599
928.162	10618
928.267	10603
928.373	11277
928.479	10729
928.585	10417
928.69	10596
928.796	10679
928.901	10481
929.007	10451
929.112	10447
929.218	10447
929.323	10390
929.428	10322
929.533	10512
929.638	10348
929.743	10344
929.848	10478
929.953	10363
930.058	10249
930.163	10169
930.267	10158
930.372	10246
930.477	10067
930.581	10265
930.685	10162
930.79	10044
930.894	10021
930.998	10013
931.103	10112
931.207	9846
931.311	9694
931.415	9622
931.519	9447
931.623	9412
