Data from test_V78500241_2874.txt Node
Date: Fri Mar 25 14:53:43 CST 2022
User: usil
Spectrometer: V785-0024
Trigger mode: 0
Integration Time (sec): 4.000000E-1
Scans to average: 1
Nonlinearity correction enabled: false
Boxcar width: 0
Storing dark spectrum: false
XAxis mode: Wavelengths
Number of Pixels in Spectrum: 1024
>>>>>Begin Spectral Data<<<<<
801.071	22158
801.214	21884
801.356	21679
801.499	21614
801.641	21511
801.783	21431
801.926	21439
802.068	21428
802.211	21302
802.353	21218
802.496	21055
802.638	20941
802.78	20967
802.923	20739
803.065	20724
803.208	20564
803.35	20853
803.492	20883
803.635	20925
803.777	20731
803.919	20838
804.061	21123
804.204	20857
804.346	20663
804.488	20686
804.63	20872
804.773	20629
804.915	20590
805.057	20800
805.199	20655
805.341	20830
805.483	20796
805.626	20712
805.768	20648
805.91	20590
806.052	20716
806.194	20659
806.336	20826
806.478	20674
806.62	20575
806.762	20720
806.904	20819
807.046	20971
807.188	21047
807.33	20994
807.472	21058
807.614	20868
807.756	20861
807.898	20800
808.04	20815
808.182	20765
808.324	20807
808.465	20853
808.607	20960
808.749	21013
808.891	21154
809.033	21233
809.174	21066
809.316	21062
809.458	21074
809.6	21085
809.741	21100
809.883	21127
810.025	21169
810.166	21188
810.308	21218
810.45	21192
810.591	21028
810.733	20842
810.875	20785
811.016	20788
811.158	20667
811.299	20872
811.441	20933
811.582	21017
811.724	20800
811.865	20594
812.007	20826
812.148	20754
812.29	20819
812.431	20956
812.573	21062
812.714	21199
812.855	21306
812.997	21408
813.138	21564
813.279	21401
813.421	21325
813.562	21074
813.703	21116
813.845	20998
813.986	20640
814.127	20552
814.268	20393
814.41	20454
814.551	20347
814.692	20476
814.833	20336
814.974	20221
815.115	20423
815.256	20199
815.397	20168
815.539	20237
815.68	20031
815.821	20024
815.962	20126
816.103	20084
816.244	19959
816.385	19822
816.526	19753
816.666	19719
816.807	19502
816.948	19700
817.089	19544
817.23	19460
817.371	19441
817.512	19495
817.653	19358
817.793	19411
817.934	19396
818.075	19403
818.216	19567
818.356	19407
818.497	19301
818.638	19027
818.778	19164
818.919	19091
819.06	19175
819.2	19365
819.341	19377
819.481	19270
819.622	19483
819.762	19685
819.903	19624
820.043	19499
820.184	19426
820.324	19464
820.465	19510
820.605	19449
820.746	19464
820.886	19213
821.026	19476
821.167	19438
821.307	19499
821.447	19316
821.588	19225
821.728	19263
821.868	18996
822.008	18924
822.149	18875
822.289	18871
822.429	18616
822.569	18471
822.709	18555
822.849	18330
822.99	18319
823.13	18235
823.27	18323
823.41	18136
823.55	18117
823.69	18136
823.83	18270
823.97	18068
824.11	17874
824.25	17874
824.389	17973
824.529	18003
824.669	17939
824.809	17980
824.949	17965
825.089	17946
825.228	17973
825.368	17748
825.508	17783
825.648	17718
825.787	17733
825.927	17836
826.067	17608
826.206	17649
826.346	17718
826.485	17703
826.625	17680
826.765	17863
826.904	17691
827.044	17493
827.183	17478
827.323	17417
827.462	17524
827.601	17505
827.741	17452
827.88	17376
828.02	17246
828.159	17493
828.298	17402
828.437	17444
828.577	17433
828.716	17528
828.855	17425
828.994	17151
829.134	17288
829.273	17235
829.412	17117
829.551	17117
829.69	17178
829.829	17162
829.968	17235
830.107	17200
830.246	17159
830.385	17223
830.524	17048
830.663	16991
830.802	16847
830.941	16824
831.08	16812
831.219	16946
831.357	16904
831.496	16953
831.635	16782
831.774	16801
831.913	16790
832.051	16599
832.19	16561
832.329	16558
832.467	16550
832.606	16398
832.744	16432
832.883	16405
833.022	16428
833.16	16485
833.299	16531
833.437	16500
833.576	16523
833.714	16618
833.852	16546
833.991	16489
834.129	16599
834.267	16630
834.406	16561
834.544	16474
834.682	16497
834.821	16577
834.959	16717
835.097	16523
835.235	16489
835.373	16561
835.511	16649
835.65	16421
835.788	16436
835.926	16352
836.064	16268
836.202	16333
836.34	16466
836.478	16558
836.615	16356
836.753	16466
836.891	16550
837.029	16504
837.167	16398
837.305	16375
837.443	16341
837.58	16226
837.718	16314
837.856	16360
837.993	16211
838.131	16318
838.269	16211
838.406	16185
838.544	16154
838.681	16128
838.819	16010
838.956	15884
839.094	15880
839.231	15911
839.369	15926
839.506	16219
839.643	16093
839.781	15937
839.918	15770
840.055	15865
840.193	15827
840.33	15842
840.467	15907
840.604	15934
840.742	16097
840.879	15743
841.016	15770
841.153	15713
841.29	15895
841.427	15899
841.564	15823
841.701	15835
841.838	15759
841.975	15732
842.112	15759
842.249	15637
842.385	15679
842.522	15854
842.659	15690
842.796	15572
842.933	15713
843.069	15618
843.206	15584
843.343	15743
843.479	15660
843.616	15682
843.752	15458
843.889	15458
844.025	15622
844.162	15332
844.298	15439
844.435	15370
844.571	15542
844.708	15477
844.844	15485
844.98	15561
845.117	15393
845.253	15412
845.389	15176
845.525	15241
845.661	15416
845.798	15207
845.934	15329
846.07	15211
846.206	15256
846.342	15313
846.478	15252
846.614	15161
846.75	15028
846.886	14982
847.022	15020
847.158	15009
847.294	15013
847.429	15024
847.565	14830
847.701	15203
847.837	14743
847.972	14640
848.108	14762
848.244	14868
848.379	14632
848.515	14640
848.65	14549
848.786	14590
848.921	14625
849.057	14712
849.192	14754
849.328	14537
849.463	14629
849.598	14598
849.734	14450
849.869	14431
850.004	14396
850.14	14431
850.275	14362
850.41	14237
850.545	14252
850.68	14225
850.815	14374
850.95	14362
851.085	14579
851.22	14442
851.355	14298
851.49	14396
851.625	14381
851.76	14381
851.895	14161
852.03	14248
852.165	14339
852.299	14423
852.434	14457
852.569	14290
852.703	14298
852.838	14370
852.973	14469
853.107	14465
853.242	14259
853.376	14259
853.511	14145
853.645	14218
853.78	14377
853.914	14244
854.048	14210
854.183	14214
854.317	14282
854.451	14385
854.585	14149
854.72	14115
854.854	14328
854.988	14324
855.122	14191
855.256	14039
855.39	14176
855.524	14404
855.658	14259
855.792	14301
855.926	14225
856.06	14294
856.194	14423
856.327	14149
856.461	14218
856.595	14214
856.729	14248
856.862	14336
856.996	14298
857.13	14267
857.263	14313
857.397	14381
857.53	14225
857.664	14259
857.797	14263
857.931	14320
858.064	14180
858.197	14374
858.331	14180
858.464	14218
858.597	14202
858.731	14210
858.864	14294
858.997	14191
859.13	14176
859.263	14278
859.396	14332
859.529	14195
859.662	14149
859.795	14180
859.928	14252
860.061	14404
860.194	14358
860.327	14206
860.46	14157
860.592	14499
860.725	14298
860.858	14298
860.99	14248
861.123	14126
861.256	14138
861.388	14294
861.521	14788
861.653	14073
861.786	14031
861.918	14126
862.05	14138
862.183	14229
862.315	14126
862.447	14244
862.58	14206
862.712	13982
862.844	13883
862.976	14107
863.108	14096
863.24	14419
863.372	13890
863.504	14008
863.636	13947
863.768	14031
863.9	13928
864.032	13936
864.164	14069
864.296	14027
864.428	14031
864.559	14157
864.691	14092
864.823	14096
864.954	14164
865.086	14046
865.217	14005
865.349	13951
865.48	13951
865.612	13993
865.743	14134
865.875	13967
866.006	13951
866.137	14024
866.269	13989
866.4	13974
866.531	13860
866.662	13909
866.793	14012
866.924	13883
867.055	13997
867.186	13978
867.317	13868
867.448	13906
867.579	13921
867.71	13852
867.841	13894
867.972	13898
868.103	14062
868.233	14069
868.364	14035
868.495	14008
868.625	14142
868.756	14298
868.886	14115
869.017	14259
869.147	14351
869.278	14358
869.408	14252
869.539	14206
869.669	14324
869.799	14290
869.929	14381
870.06	14282
870.19	14537
870.32	14423
870.45	14571
870.58	14526
870.71	14769
870.84	14720
870.97	14579
871.1	14575
871.23	14830
871.36	14887
871.489	14746
871.619	14845
871.749	14735
871.879	14891
872.008	14990
872.138	14872
872.267	14834
872.397	14689
872.526	14769
872.656	14625
872.785	14682
872.915	14868
873.044	14956
873.173	14880
873.303	14876
873.432	14872
873.561	15028
873.69	14891
873.819	14853
873.948	14990
874.077	14845
874.206	14804
874.335	14918
874.464	14994
874.593	15218
874.722	15123
874.851	15260
874.979	15214
875.108	15226
875.237	15108
875.365	15058
875.494	15123
875.623	15260
875.751	15131
875.88	15207
876.008	15367
876.136	15389
876.265	15656
876.393	15762
876.521	15701
876.65	15755
876.778	15591
876.906	15515
877.034	15705
877.162	15580
877.29	15469
877.418	15519
877.546	15652
877.674	15599
877.802	15667
877.93	15584
878.058	15663
878.185	15641
878.313	15595
878.441	15595
878.568	15488
878.696	15595
878.824	15641
878.951	15663
879.079	15842
879.206	16021
879.333	15728
879.461	15599
879.588	15842
879.715	15789
879.842	15903
879.97	15622
880.097	15492
880.224	15424
880.351	15458
880.478	15443
880.605	15393
880.732	15473
880.859	15671
880.986	15576
881.112	15507
881.239	15389
881.366	15184
881.493	15161
881.619	15131
881.746	15093
881.872	15119
881.999	15233
882.125	15180
882.252	15135
882.378	15146
882.505	15294
882.631	15066
882.757	14944
882.883	14971
883.01	14952
883.136	14853
883.262	14845
883.388	14724
883.514	14967
883.64	14899
883.766	14891
883.892	14864
884.018	14777
884.143	14880
884.269	14990
884.395	14743
884.52	14708
884.646	14667
884.772	14651
884.897	14507
885.023	14674
885.148	14735
885.274	14819
885.399	14765
885.524	14670
885.65	14636
885.775	14648
885.9	14689
886.025	14750
886.15	14667
886.275	14507
886.4	14575
886.525	14564
886.65	14530
886.775	14606
886.9	14777
887.025	14933
887.149	14644
887.274	14415
887.399	14503
887.523	14404
887.648	14332
887.773	14301
887.897	14568
888.021	14450
888.146	14568
888.27	14583
888.395	14613
888.519	14476
888.643	14507
888.767	14465
888.891	14412
889.015	14381
889.139	14221
889.263	14381
889.387	14362
889.511	14518
889.635	14450
889.759	14305
889.883	14351
890.006	14415
890.13	14385
890.254	14263
890.377	14244
890.501	14195
890.624	14039
890.748	14153
890.871	14058
890.995	14016
891.118	13959
891.241	14077
891.364	14096
891.488	14256
891.611	14115
891.734	13993
891.857	14062
891.98	14183
892.103	14138
892.226	14084
892.349	14073
892.471	13776
892.594	14050
892.717	14039
892.839	14005
892.962	13967
893.085	14187
893.207	13944
893.33	13875
893.452	13982
893.575	14054
893.697	14024
893.819	14145
893.941	14248
894.064	14225
894.186	14024
894.308	14012
894.43	14172
894.552	14267
894.674	14164
894.796	13951
894.918	14077
895.04	14016
895.161	14149
895.283	14195
895.405	14138
895.526	14054
895.648	14073
895.769	14195
895.891	14271
896.012	14259
896.134	14214
896.255	14252
896.376	14164
896.498	14183
896.619	14328
896.74	14309
896.861	14252
896.982	14488
897.103	14648
897.224	14602
897.345	14526
897.466	14419
897.587	14419
897.708	14632
897.828	14499
897.949	14370
898.07	14400
898.19	14480
898.311	14587
898.431	14492
898.552	14488
898.672	14796
898.792	14682
898.913	14606
899.033	14503
899.153	14499
899.273	14336
899.393	14385
899.513	14484
899.633	14415
899.753	14450
899.873	14419
899.993	14465
900.113	14400
900.232	14473
900.352	14385
900.472	14324
900.591	14225
900.711	14282
900.83	14305
900.95	14427
901.069	14267
901.189	14248
901.308	13963
901.427	13932
901.546	14031
901.665	14058
901.784	14001
901.904	13883
902.023	13769
902.141	13609
902.26	13476
902.379	13620
902.498	13506
902.617	13464
902.735	13510
902.854	13548
902.973	13506
903.091	13217
903.21	13221
903.328	13263
903.446	13141
903.565	13110
903.683	13122
903.801	13126
903.919	13065
904.038	13099
904.156	12939
904.274	13069
904.392	12962
904.51	12833
904.627	12886
904.745	12928
904.863	13004
904.981	12684
905.098	12688
905.216	12601
905.334	12650
905.451	12635
905.569	12563
905.686	12650
905.803	12608
905.921	12407
906.038	12517
906.155	12467
906.272	12285
906.389	12369
906.506	12277
906.623	12178
906.74	12209
906.857	12091
906.974	12102
907.091	12273
907.208	12391
907.324	12235
907.441	12076
907.557	11908
907.674	11920
907.79	11878
907.907	11916
908.023	11984
908.139	11920
908.256	11992
908.372	11847
908.488	11802
908.604	11699
908.72	11596
908.836	11707
908.952	11611
909.068	11661
909.184	11832
909.3	11642
909.415	11733
909.531	11733
909.647	11516
909.762	11417
909.878	11463
909.993	11516
910.108	11562
910.224	11402
910.339	11417
910.454	11356
910.57	11402
910.685	11223
910.8	11528
910.915	11573
911.03	11482
911.145	11216
911.259	11208
911.374	11193
911.489	11128
911.604	10987
911.718	10911
911.833	10995
911.947	10858
912.062	10710
912.176	10877
912.291	10911
912.405	11006
912.519	11098
912.633	11147
912.748	11060
912.862	10961
912.976	10752
913.09	10649
913.204	10816
913.318	10869
913.431	10881
913.545	10953
913.659	10908
913.772	10892
913.886	10668
914	10611
914.113	10797
914.226	10889
914.34	10721
914.453	10611
914.566	10801
914.68	10672
914.793	10653
914.906	10462
915.019	10424
915.132	10318
915.245	10390
915.358	10382
915.47	10428
915.583	10527
915.696	10447
915.809	10611
915.921	10573
916.034	10348
916.146	10390
916.259	10265
916.371	10508
916.483	10436
916.595	10379
916.708	10386
916.82	10341
916.932	10333
917.044	10337
917.156	10329
917.268	10219
917.38	10348
917.491	10303
917.603	10234
917.715	10375
917.826	10409
917.938	10257
918.049	10150
918.161	10227
918.272	10455
918.384	10402
918.495	10310
918.606	10158
918.717	10071
918.828	10192
918.939	10192
919.05	10109
919.161	10139
919.272	9968
919.383	10021
919.494	10223
919.604	10352
919.715	10116
919.826	10090
919.936	10185
920.047	10169
920.157	10215
920.267	10348
920.378	10238
920.488	10230
920.598	10310
920.708	10451
920.818	10348
920.928	10284
921.038	10569
921.148	10489
921.258	10268
921.368	10074
921.477	10063
921.587	10025
921.697	9888
921.806	10051
921.916	9926
922.025	9713
922.134	9724
922.244	9671
922.353	9819
922.462	9641
922.571	9557
922.68	9481
922.789	9443
922.898	9488
923.007	9363
923.116	9488
923.224	9397
923.333	9466
923.442	9245
923.55	9283
923.659	9310
923.767	9420
923.876	9317
923.984	9367
924.092	9233
924.201	9348
924.309	9249
924.417	9272
924.525	9233
924.633	9275
924.741	10154
924.849	9127
924.956	9199
925.064	9066
925.172	9005
925.279	9058
925.387	9097
925.494	9039
925.602	9237
925.709	9173
925.816	9051
925.924	9127
926.031	9097
926.138	9135
926.245	9165
926.352	9119
926.459	9104
926.566	9135
926.673	9024
926.779	8963
926.886	8914
926.993	8868
927.099	8777
927.206	8788
927.312	8724
927.419	8845
927.525	8788
927.631	8830
927.737	8667
927.843	8636
927.95	8526
928.056	8587
928.162	8678
928.267	8826
928.373	9382
928.479	8815
928.585	8590
928.69	8701
928.796	8746
928.901	8522
929.007	8442
929.112	8644
929.218	8503
929.323	8625
929.428	8461
929.533	8606
929.638	8427
929.743	8507
929.848	8583
929.953	8473
930.058	8358
930.163	8244
930.267	8301
930.372	8442
930.477	8271
930.581	8549
930.685	8423
930.79	8229
930.894	8240
930.998	8176
931.103	8324
931.207	8050
931.311	7883
931.415	7917
931.519	7811
931.623	7772
