Data from test_V78500241_925.txt Node
Date: Fri Mar 25 14:40:09 CST 2022
User: usil
Spectrometer: V785-0024
Trigger mode: 0
Integration Time (sec): 4.000000E-1
Scans to average: 1
Nonlinearity correction enabled: false
Boxcar width: 0
Storing dark spectrum: false
XAxis mode: Wavelengths
Number of Pixels in Spectrum: 1024
>>>>>Begin Spectral Data<<<<<
801.071	24692
801.214	24593
801.356	24114
801.499	23980
801.641	24060
801.783	24034
801.926	23889
802.068	23927
802.211	23889
802.353	23752
802.496	23615
802.638	23474
802.78	23474
802.923	23364
803.065	23444
803.208	23246
803.35	23254
803.492	23455
803.635	23440
803.777	23421
803.919	23410
804.061	23691
804.204	23334
804.346	23299
804.488	23349
804.63	23307
804.773	23216
804.915	23402
805.057	23444
805.199	23299
805.341	23421
805.483	23596
805.626	23436
805.768	23227
805.91	23345
806.052	23505
806.194	23303
806.336	23646
806.478	23414
806.62	23566
806.762	23551
806.904	23745
807.046	24110
807.188	24045
807.33	24228
807.472	24281
807.614	24285
807.756	24388
807.898	24578
808.04	24570
808.182	24875
808.324	25232
808.465	25776
808.607	26278
808.749	26754
808.891	27157
809.033	27291
809.174	26792
809.316	26290
809.458	25799
809.6	25422
809.741	25152
809.883	24779
810.025	24817
810.166	24627
810.308	24467
810.45	24460
810.591	24350
810.733	23958
810.875	23859
811.016	23695
811.158	23672
811.299	23863
811.441	23946
811.582	23809
811.724	23665
811.865	23672
812.007	23608
812.148	23566
812.29	23672
812.431	23851
812.573	23863
812.714	23942
812.855	24098
812.997	24186
813.138	24194
813.279	24167
813.421	24201
813.562	24049
813.703	23870
813.845	23836
813.986	23410
814.127	23395
814.268	23288
814.41	23204
814.551	23052
814.692	23109
814.833	22999
814.974	23033
815.115	23048
815.256	22919
815.397	22889
815.539	22968
815.68	22892
815.821	22736
815.962	22885
816.103	22782
816.244	22622
816.385	22626
816.526	22584
816.666	22382
816.807	22265
816.948	22272
817.089	22303
817.23	22310
817.371	22215
817.512	22238
817.653	22230
817.793	22166
817.934	22215
818.075	22192
818.216	22181
818.356	22147
818.497	22150
818.638	21797
818.778	21922
818.919	21979
819.06	21922
819.2	21937
819.341	22120
819.481	22067
819.622	22234
819.762	22314
819.903	22417
820.043	22329
820.184	22158
820.324	22093
820.465	22230
820.605	22147
820.746	22082
820.886	21926
821.026	22097
821.167	22082
821.307	22086
821.447	22124
821.588	21865
821.728	21823
821.868	21637
822.008	21416
822.149	21504
822.289	21454
822.429	21214
822.569	21188
822.709	21074
822.849	21009
822.99	21005
823.13	21009
823.27	20948
823.41	20804
823.55	20712
823.69	20861
823.83	20697
823.97	20773
824.11	20507
824.25	20579
824.389	20575
824.529	20587
824.669	20552
824.809	20689
824.949	20621
825.089	20609
825.228	20511
825.368	20313
825.508	20298
825.648	20400
825.787	20434
825.927	20343
826.067	20343
826.206	20305
826.346	20172
826.485	20267
826.625	20324
826.765	20434
826.904	20313
827.044	20058
827.183	20092
827.323	19955
827.462	19993
827.601	19890
827.741	19978
827.88	19993
828.02	19811
828.159	20031
828.298	19909
828.437	19993
828.577	19978
828.716	20008
828.855	19887
828.994	19791
829.134	19772
829.273	19658
829.412	19639
829.551	19632
829.69	19750
829.829	19616
829.968	19803
830.107	19643
830.246	19635
830.385	19685
830.524	19552
830.663	19460
830.802	19434
830.941	19228
831.08	19259
831.219	19426
831.357	19324
831.496	19464
831.635	19293
831.774	19240
831.913	19266
832.051	18970
832.19	19103
832.329	19122
832.467	18962
832.606	18981
832.744	18924
832.883	19103
833.022	18935
833.16	19000
833.299	19008
833.437	19072
833.576	19198
833.714	19137
833.852	19148
833.991	19103
834.129	19209
834.267	19308
834.406	19114
834.544	19107
834.682	19213
834.821	19099
834.959	19209
835.097	19034
835.235	19023
835.373	18993
835.511	18981
835.65	18973
835.788	18810
835.926	18696
836.064	18673
836.202	18730
836.34	18886
836.478	18897
836.615	18730
836.753	18897
836.891	18840
837.029	18985
837.167	18878
837.305	18783
837.443	18639
837.58	18673
837.718	18795
837.856	18585
837.993	18601
838.131	18650
838.269	18566
838.406	18642
838.544	18597
838.681	18357
838.819	18338
838.956	18152
839.094	18213
839.231	18243
839.369	18247
839.506	18642
839.643	18330
839.781	18254
839.918	18022
840.055	18129
840.193	18163
840.33	18053
840.467	18125
840.604	18224
840.742	18403
840.879	18045
841.016	18041
841.153	18034
841.29	18171
841.427	18148
841.564	18117
841.701	18167
841.838	18026
841.975	18038
842.112	18022
842.249	17866
842.385	17794
842.522	18163
842.659	17958
842.796	17783
842.933	17912
843.069	17863
843.206	17874
843.343	17809
843.479	17798
843.616	17828
843.752	17703
843.889	17764
844.025	17779
844.162	17672
844.298	17851
844.435	17722
844.571	17687
844.708	17817
844.844	17946
844.98	17988
845.117	18167
845.253	18034
845.389	18163
845.525	18753
845.661	19476
845.798	20275
845.934	21173
846.07	21401
846.206	21428
846.342	20826
846.478	19753
846.614	18825
846.75	18060
846.886	17790
847.022	17668
847.158	17421
847.294	17376
847.429	17311
847.565	17197
847.701	17592
847.837	16984
847.972	16976
848.108	17121
848.244	16904
848.379	16835
848.515	16729
848.65	16805
848.786	16729
848.921	16850
849.057	16820
849.192	16778
849.328	16786
849.463	16672
849.598	16698
849.734	16736
849.869	16664
850.004	16588
850.14	16538
850.275	16447
850.41	16436
850.545	16523
850.68	16436
850.815	16512
850.95	16405
851.085	16691
851.22	16618
851.355	16474
851.49	16478
851.625	16447
851.76	16390
851.895	16348
852.03	16417
852.165	16478
852.299	16592
852.434	16588
852.569	16535
852.703	16451
852.838	16527
852.973	16687
853.107	16675
853.242	16535
853.376	16394
853.511	16287
853.645	16436
853.78	16405
853.914	16478
854.048	16497
854.183	16291
854.317	16493
854.451	16588
854.585	16382
854.72	16333
854.854	16466
854.988	16352
855.122	16443
855.256	16295
855.39	16382
855.524	16405
855.658	16322
855.792	16394
855.926	16413
856.06	16531
856.194	16474
856.327	16322
856.461	16287
856.595	16246
856.729	16379
856.862	16500
856.996	16356
857.13	16325
857.263	16493
857.397	16474
857.53	16394
857.664	16417
857.797	16508
857.931	16481
858.064	16295
858.197	16356
858.331	16341
858.464	16344
858.597	16223
858.731	16295
858.864	16242
858.997	16318
859.13	16363
859.263	16402
859.396	16341
859.529	16230
859.662	16295
859.795	16215
859.928	16249
860.061	16421
860.194	16497
860.327	16314
860.46	16322
860.592	16413
860.725	16409
860.858	16379
860.99	16238
861.123	16173
861.256	16272
861.388	16409
861.521	16828
861.653	16128
861.786	16067
861.918	16158
862.05	16242
862.183	16223
862.315	16238
862.447	16409
862.58	16169
862.712	16154
862.844	16002
862.976	16109
863.108	16112
863.24	16535
863.372	15979
863.504	16036
863.636	16036
863.768	16025
863.9	16135
864.032	15941
864.164	15994
864.296	16097
864.428	16128
864.559	16128
864.691	16162
864.823	16093
864.954	16067
865.086	16105
865.217	15960
865.349	16010
865.48	16010
865.612	16025
865.743	16124
865.875	16093
866.006	15918
866.137	15975
866.269	16006
866.4	15899
866.531	16086
866.662	15937
866.793	15979
866.924	15918
867.055	16021
867.186	16010
867.317	16021
867.448	15899
867.579	15892
867.71	15808
867.841	15861
867.972	16044
868.103	15975
868.233	15918
868.364	16074
868.495	16044
868.625	16177
868.756	16242
868.886	16169
869.017	16150
869.147	16204
869.278	16325
869.408	16253
869.539	16158
869.669	16306
869.799	16299
869.929	16322
870.06	16459
870.19	16508
870.32	16523
870.45	16500
870.58	16580
870.71	16774
870.84	16626
870.97	16558
871.1	16637
871.23	16668
871.36	16892
871.489	16797
871.619	16854
871.749	16763
871.879	16881
872.008	16904
872.138	16809
872.267	16816
872.397	16717
872.526	16607
872.656	16630
872.785	16584
872.915	16908
873.044	16957
873.173	16889
873.303	16835
873.432	16938
873.561	16980
873.69	16847
873.819	17018
873.948	17006
874.077	16835
874.206	16839
874.335	16942
874.464	17117
874.593	17197
874.722	17086
874.851	17334
874.979	17326
875.108	17261
875.237	17151
875.365	17162
875.494	17242
875.623	17231
875.751	17235
875.88	17349
876.008	17410
876.136	17429
876.265	17710
876.393	17733
876.521	17672
876.65	17764
876.778	17695
876.906	17760
877.034	17585
877.162	17828
877.29	17699
877.418	17783
877.546	17882
877.674	17752
877.802	17752
877.93	17786
878.058	17764
878.185	17661
878.313	17882
878.441	17980
878.568	17908
878.696	17965
878.824	18125
878.951	18494
879.079	18700
879.206	19076
879.333	19202
879.461	19460
879.588	19685
879.715	19734
879.842	19632
879.97	19194
880.097	18646
880.224	18479
880.351	18213
880.478	18216
880.605	17996
880.732	18083
880.859	18353
880.986	17893
881.112	18015
881.239	17840
881.366	17604
881.493	17661
881.619	17630
881.746	17528
881.872	17577
881.999	17703
882.125	17532
882.252	17657
882.378	17726
882.505	17756
882.631	17516
882.757	17448
882.883	17436
883.01	17448
883.136	17353
883.262	17307
883.388	17220
883.514	17379
883.64	17524
883.766	17429
883.892	17204
884.018	17299
884.143	17398
884.269	17512
884.395	17162
884.52	17056
884.646	17105
884.772	17003
884.897	17006
885.023	17090
885.148	17143
885.274	17277
885.399	17105
885.524	17090
885.65	17098
885.775	17132
885.9	17090
886.025	17109
886.15	17033
886.275	16995
886.4	16896
886.525	16961
886.65	16919
886.775	16854
886.9	16934
887.025	17067
887.149	16900
887.274	16748
887.399	16672
887.523	16592
887.648	16493
887.773	16546
887.897	16713
888.021	16603
888.146	16531
888.27	16675
888.395	16812
888.519	16611
888.643	16618
888.767	16618
888.891	16432
889.015	16402
889.139	16382
889.263	16405
889.387	16481
889.511	16592
889.635	16474
889.759	16318
889.883	16375
890.006	16367
890.13	16504
890.254	16257
890.377	16226
890.501	16112
890.624	16105
890.748	16226
890.871	16048
890.995	15926
891.118	15949
891.241	15972
891.364	15972
891.488	16063
891.611	15918
891.734	16025
891.857	16036
891.98	15903
892.103	16074
892.226	15949
892.349	15918
892.471	15804
892.594	15987
892.717	15869
892.839	15972
892.962	15937
893.085	16025
893.207	15899
893.33	15850
893.452	15926
893.575	15922
893.697	15876
893.819	16017
893.941	16074
894.064	15975
894.186	15743
894.308	15781
894.43	15994
894.552	16109
894.674	15968
894.796	15808
894.918	15983
895.04	15793
895.161	16006
895.283	15903
895.405	15918
895.526	15899
895.648	16013
895.769	15934
895.891	16013
896.012	16036
896.134	15994
896.255	16010
896.376	15880
896.498	15960
896.619	16055
896.74	15937
896.861	16032
896.982	16318
897.103	16535
897.224	16272
897.345	16226
897.466	16139
897.587	16169
897.708	16352
897.828	16284
897.949	16246
898.07	16116
898.19	16139
898.311	16371
898.431	16287
898.552	16257
898.672	16424
898.792	16508
898.913	16371
899.033	16215
899.153	16211
899.273	16124
899.393	16059
899.513	16185
899.633	16219
899.753	16196
899.873	16150
899.993	16242
900.113	16166
900.232	16196
900.352	16162
900.472	16051
900.591	15983
900.711	16071
900.83	15949
900.95	16143
901.069	16158
901.189	15880
901.308	15759
901.427	15599
901.546	15667
901.665	15595
901.784	15618
901.904	15511
902.023	15473
902.141	15222
902.26	15207
902.379	15256
902.498	15188
902.617	15180
902.735	15302
902.854	15207
902.973	15051
903.091	14815
903.21	14826
903.328	14819
903.446	14750
903.565	14720
903.683	14716
903.801	14640
903.919	14686
904.038	14651
904.156	14537
904.274	14530
904.392	14476
904.51	14454
904.627	14396
904.745	14431
904.863	14427
904.981	14138
905.098	14088
905.216	14115
905.334	14176
905.451	14187
905.569	14084
905.686	13982
905.803	14073
905.921	13989
906.038	13974
906.155	13944
906.272	13879
906.389	13841
906.506	13689
906.623	13712
906.74	13658
906.857	13616
906.974	13590
907.091	13636
907.208	13655
907.324	13746
907.441	13563
907.557	13400
907.674	13411
907.79	13301
907.907	13445
908.023	13362
908.139	13392
908.256	13312
908.372	13381
908.488	13240
908.604	13149
908.72	13133
908.836	13050
908.952	12977
909.068	13076
909.184	13225
909.3	13152
909.415	13225
909.531	13149
909.647	12916
909.762	12798
909.878	12852
909.993	12901
910.108	12825
910.224	12730
910.339	12882
910.454	12722
910.57	12646
910.685	12662
910.8	12928
910.915	12772
911.03	12684
911.145	12570
911.259	12490
911.374	12608
911.489	12551
911.604	12372
911.718	12296
911.833	12224
911.947	12163
912.062	12121
912.176	12262
912.291	12285
912.405	12201
912.519	12445
912.633	12479
912.748	12277
912.862	12289
912.976	12038
913.09	12072
913.204	12068
913.318	12072
913.431	12235
913.545	12228
913.659	12197
913.772	12201
913.886	11954
914	11942
914.113	12053
914.226	12140
914.34	12121
914.453	11908
914.566	12083
914.68	11950
914.793	11893
914.906	11726
915.019	11653
915.132	11615
915.245	11714
915.358	11729
915.47	11733
915.583	11718
915.696	11775
915.809	11817
915.921	11798
916.034	11699
916.146	11699
916.259	11638
916.371	11714
916.483	11703
916.595	11589
916.708	11581
916.82	11623
916.932	11554
917.044	11608
917.156	11566
917.268	11516
917.38	11532
917.491	11501
917.603	11478
917.715	11577
917.826	11665
917.938	11433
918.049	11383
918.161	11433
918.272	11562
918.384	11551
918.495	11474
918.606	11360
918.717	11254
918.828	11402
918.939	11372
919.05	11299
919.161	11315
919.272	11162
919.383	11227
919.494	11425
919.604	11543
919.715	11353
919.826	11269
919.936	11277
920.047	11395
920.157	11360
920.267	11554
920.378	11429
920.488	11296
920.598	11566
920.708	11741
920.818	11532
920.928	11528
921.038	11646
921.148	11649
921.258	11334
921.368	11288
921.477	11235
921.587	11204
921.697	11052
921.806	11155
921.916	11014
922.025	10938
922.134	10885
922.244	10820
922.353	10908
922.462	10873
922.571	10710
922.68	10622
922.789	10508
922.898	10519
923.007	10481
923.116	10592
923.224	10622
923.333	10546
923.442	10462
923.55	10451
923.659	10493
923.767	10443
923.876	10394
923.984	10402
924.092	10344
924.201	10367
924.309	10405
924.417	10360
924.525	10390
924.633	10318
924.741	11079
924.849	10147
924.956	10348
925.064	10196
925.172	10044
925.279	10112
925.387	10196
925.494	10120
925.602	10272
925.709	10185
925.816	10071
925.924	10109
926.031	10238
926.138	10192
926.245	10120
926.352	9994
926.459	10246
926.566	10249
926.673	10109
926.779	9994
926.886	9968
926.993	9789
927.099	9793
927.206	9736
927.312	9766
927.419	9831
927.525	9838
927.631	9793
927.737	9835
927.843	9675
927.95	9614
928.056	9603
928.162	9679
928.267	9762
928.373	10348
928.479	9755
928.585	9511
928.69	9614
928.796	9743
928.901	9572
929.007	9458
929.112	9580
929.218	9515
929.323	9595
929.428	9496
929.533	9644
929.638	9450
929.743	9412
929.848	9538
929.953	9454
930.058	9416
930.163	9237
930.267	9188
930.372	9397
930.477	9173
930.581	9405
930.685	9283
930.79	9157
930.894	9214
930.998	9112
931.103	9245
931.207	8956
931.311	8880
931.415	8788
931.519	8632
931.623	8651
