Data from test_V78500241_2572.txt Node
Date: Fri Mar 25 14:51:37 CST 2022
User: usil
Spectrometer: V785-0024
Trigger mode: 0
Integration Time (sec): 4.000000E-1
Scans to average: 1
Nonlinearity correction enabled: false
Boxcar width: 0
Storing dark spectrum: false
XAxis mode: Wavelengths
Number of Pixels in Spectrum: 1024
>>>>>Begin Spectral Data<<<<<
801.071	22105
801.214	21937
801.356	21682
801.499	21625
801.641	21424
801.783	21424
801.926	21397
802.068	21416
802.211	21272
802.353	21245
802.496	20967
802.638	20887
802.78	20952
802.923	20705
803.065	20686
803.208	20693
803.35	20693
803.492	20887
803.635	20861
803.777	20716
803.919	20765
804.061	21119
804.204	20826
804.346	20644
804.488	20636
804.63	20754
804.773	20594
804.915	20743
805.057	20804
805.199	20659
805.341	20777
805.483	20773
805.626	20739
805.768	20632
805.91	20765
806.052	20735
806.194	20678
806.336	20872
806.478	20697
806.62	20613
806.762	20716
806.904	20834
807.046	21051
807.188	21055
807.33	20971
807.472	20998
807.614	20861
807.756	20906
807.898	20830
808.04	20682
808.182	20727
808.324	20686
808.465	20769
808.607	20929
808.749	21138
808.891	21017
809.033	21252
809.174	21028
809.316	21032
809.458	21020
809.6	20921
809.741	20952
809.883	21195
810.025	21233
810.166	21127
810.308	21096
810.45	21173
810.591	21013
810.733	20956
810.875	20811
811.016	20594
811.158	20724
811.299	20834
811.441	20902
811.582	20956
811.724	20823
811.865	20644
812.007	20678
812.148	20746
812.29	20705
812.431	20906
812.573	21070
812.714	21188
812.855	21317
812.997	21450
813.138	21488
813.279	21462
813.421	21317
813.562	21249
813.703	21096
813.845	21032
813.986	20670
814.127	20469
814.268	20469
814.41	20328
814.551	20377
814.692	20377
814.833	20290
814.974	20332
815.115	20347
815.256	20126
815.397	20081
815.539	20263
815.68	19978
815.821	19959
815.962	20134
816.103	20069
816.244	19944
816.385	19742
816.526	19723
816.666	19681
816.807	19510
816.948	19480
817.089	19586
817.23	19540
817.371	19552
817.512	19483
817.653	19400
817.793	19392
817.934	19468
818.075	19449
818.216	19510
818.356	19388
818.497	19331
818.638	19209
818.778	19198
818.919	19133
819.06	19107
819.2	19259
819.341	19365
819.481	19270
819.622	19495
819.762	19719
819.903	19670
820.043	19613
820.184	19460
820.324	19487
820.465	19480
820.605	19468
820.746	19388
820.886	19308
821.026	19400
821.167	19282
821.307	19480
821.447	19411
821.588	19297
821.728	19091
821.868	19015
822.008	18935
822.149	18943
822.289	18844
822.429	18631
822.569	18559
822.709	18623
822.849	18426
822.99	18323
823.13	18262
823.27	18353
823.41	18235
823.55	18144
823.69	18190
823.83	18194
823.97	18155
824.11	17984
824.25	17878
824.389	17904
824.529	17931
824.669	17916
824.809	17992
824.949	18083
825.089	17973
825.228	17999
825.368	17729
825.508	17756
825.648	17649
825.787	17710
825.927	17741
826.067	17661
826.206	17733
826.346	17741
826.485	17726
826.625	17710
826.765	17851
826.904	17665
827.044	17509
827.183	17512
827.323	17414
827.462	17368
827.601	17516
827.741	17395
827.88	17341
828.02	17337
828.159	17421
828.298	17414
828.437	17512
828.577	17410
828.716	17455
828.855	17509
828.994	17239
829.134	17189
829.273	17200
829.412	17162
829.551	17140
829.69	17143
829.829	17197
829.968	17216
830.107	17227
830.246	17166
830.385	17162
830.524	17060
830.663	16877
830.802	16896
830.941	16778
831.08	16786
831.219	16824
831.357	16847
831.496	16889
831.635	16687
831.774	16717
831.913	16603
832.051	16519
832.19	16554
832.329	16569
832.467	16493
832.606	16386
832.744	16424
832.883	16417
833.022	16478
833.16	16478
833.299	16512
833.437	16462
833.576	16489
833.714	16474
833.852	16405
833.991	16603
834.129	16531
834.267	16691
834.406	16497
834.544	16546
834.682	16626
834.821	16531
834.959	16725
835.097	16493
835.235	16653
835.373	16565
835.511	16538
835.65	16428
835.788	16443
835.926	16295
836.064	16322
836.202	16329
836.34	16371
836.478	16561
836.615	16398
836.753	16440
836.891	16394
837.029	16432
837.167	16371
837.305	16325
837.443	16405
837.58	16265
837.718	16344
837.856	16371
837.993	16238
838.131	16497
838.269	16105
838.406	16215
838.544	16173
838.681	16078
838.819	15991
838.956	15766
839.094	15842
839.231	15926
839.369	16116
839.506	16287
839.643	16071
839.781	15937
839.918	15956
840.055	15930
840.193	15842
840.33	15751
840.467	15816
840.604	15873
840.742	16074
840.879	15747
841.016	15759
841.153	15823
841.29	15945
841.427	15876
841.564	15979
841.701	15907
841.838	15895
841.975	15713
842.112	15789
842.249	15694
842.385	15663
842.522	15827
842.659	15633
842.796	15648
842.933	15698
843.069	15686
843.206	15572
843.343	15679
843.479	15656
843.616	15641
843.752	15386
843.889	15447
844.025	15641
844.162	15500
844.298	15534
844.435	15454
844.571	15310
844.708	15469
844.844	15545
844.98	15686
845.117	15458
845.253	15389
845.389	15260
845.525	15378
845.661	15355
845.798	15150
845.934	15268
846.07	15165
846.206	15252
846.342	15355
846.478	15287
846.614	15119
846.75	15009
846.886	14948
847.022	15024
847.158	14952
847.294	14998
847.429	15081
847.565	14956
847.701	15222
847.837	14826
847.972	14659
848.108	14838
848.244	14792
848.379	14659
848.515	14651
848.65	14598
848.786	14632
848.921	14689
849.057	14705
849.192	14750
849.328	14621
849.463	14602
849.598	14552
849.734	14606
849.869	14507
850.004	14351
850.14	14484
850.275	14400
850.41	14374
850.545	14377
850.68	14309
850.815	14301
850.95	14370
851.085	14518
851.22	14533
851.355	14339
851.49	14396
851.625	14324
851.76	14370
851.895	14290
852.03	14225
852.165	14317
852.299	14343
852.434	14465
852.569	14393
852.703	14389
852.838	14438
852.973	14457
853.107	14499
853.242	14259
853.376	14271
853.511	14084
853.645	14183
853.78	14339
853.914	14256
854.048	14225
854.183	14149
854.317	14221
854.451	14389
854.585	14263
854.72	14214
854.854	14309
854.988	14153
855.122	14187
855.256	14134
855.39	14244
855.524	14351
855.658	14282
855.792	14309
855.926	14309
856.06	14294
856.194	14431
856.327	14168
856.461	14271
856.595	14180
856.729	14191
856.862	14438
856.996	14263
857.13	14317
857.263	14336
857.397	14412
857.53	14225
857.664	14336
857.797	14317
857.931	14324
858.064	14389
858.197	14385
858.331	14225
858.464	14161
858.597	14126
858.731	14244
858.864	14271
858.997	14229
859.13	14385
859.263	14309
859.396	14313
859.529	14191
859.662	14191
859.795	14278
859.928	14252
860.061	14351
860.194	14533
860.327	14366
860.46	14172
860.592	14355
860.725	14423
860.858	14389
860.99	14157
861.123	14183
861.256	14206
861.388	14275
861.521	14998
861.653	14073
861.786	14138
861.918	14134
862.05	14164
862.183	14210
862.315	14191
862.447	14317
862.58	14210
862.712	14081
862.844	13967
862.976	14111
863.108	14111
863.24	14431
863.372	13947
863.504	14016
863.636	13982
863.768	14123
863.9	14043
864.032	13902
864.164	14035
864.296	14031
864.428	14100
864.559	14195
864.691	14157
864.823	14077
864.954	14123
865.086	14058
865.217	14088
865.349	13951
865.48	13947
865.612	13978
865.743	14191
865.875	14008
866.006	13909
866.137	13978
866.269	13978
866.4	13970
866.531	13944
866.662	13997
866.793	14054
866.924	13978
867.055	14027
867.186	13978
867.317	13951
867.448	13913
867.579	13932
867.71	13868
867.841	13963
867.972	13959
868.103	13925
868.233	14092
868.364	14043
868.495	14096
868.625	14214
868.756	14370
868.886	14164
869.017	14320
869.147	14347
869.278	14385
869.408	14259
869.539	14191
869.669	14374
869.799	14202
869.929	14385
870.06	14389
870.19	14610
870.32	14564
870.45	14587
870.58	14651
870.71	14807
870.84	14746
870.97	14651
871.1	14670
871.23	14826
871.36	14842
871.489	14727
871.619	14861
871.749	14849
871.879	14895
872.008	14952
872.138	14933
872.267	14845
872.397	14651
872.526	14659
872.656	14678
872.785	14746
872.915	14872
873.044	14956
873.173	14895
873.303	14979
873.432	14925
873.561	14929
873.69	14986
873.819	14956
873.948	14986
874.077	14944
874.206	14887
874.335	14891
874.464	15097
874.593	15226
874.722	15100
874.851	15298
874.979	15378
875.108	15207
875.237	15123
875.365	15081
875.494	15237
875.623	15237
875.751	15119
875.88	15268
876.008	15431
876.136	15401
876.265	15652
876.393	15751
876.521	15804
876.65	15739
876.778	15625
876.906	15679
877.034	15500
877.162	15542
877.29	15595
877.418	15568
877.546	15682
877.674	15686
877.802	15618
877.93	15591
878.058	15614
878.185	15584
878.313	15633
878.441	15637
878.568	15511
878.696	15542
878.824	15694
878.951	15762
879.079	15865
879.206	15987
879.333	15747
879.461	15667
879.588	15804
879.715	15903
879.842	15998
879.97	15656
880.097	15526
880.224	15511
880.351	15458
880.478	15545
880.605	15401
880.732	15469
880.859	15785
880.986	15526
881.112	15515
881.239	15351
881.366	15279
881.493	15184
881.619	15135
881.746	15150
881.872	15169
881.999	15123
882.125	15161
882.252	15077
882.378	15203
882.505	15222
882.631	15074
882.757	14941
882.883	15020
883.01	14971
883.136	15017
883.262	14781
883.388	14773
883.514	15020
883.64	14986
883.766	15017
883.892	14693
884.018	14811
884.143	14891
884.269	15066
884.395	14769
884.52	14632
884.646	14727
884.772	14590
884.897	14655
885.023	14720
885.148	14765
885.274	14796
885.399	14804
885.524	14743
885.65	14682
885.775	14754
885.9	14606
886.025	14796
886.15	14693
886.275	14708
886.4	14594
886.525	14629
886.65	14549
886.775	14564
886.9	14842
887.025	14910
887.149	14708
887.274	14492
887.399	14457
887.523	14457
887.648	14415
887.773	14457
887.897	14594
888.021	14640
888.146	14427
888.27	14545
888.395	14590
888.519	14606
888.643	14606
888.767	14564
888.891	14385
889.015	14347
889.139	14385
889.263	14347
889.387	14514
889.511	14602
889.635	14465
889.759	14366
889.883	14339
890.006	14438
890.13	14492
890.254	14206
890.377	14370
890.501	14229
890.624	14145
890.748	14206
890.871	14123
890.995	13982
891.118	14020
891.241	14073
891.364	14027
891.488	14157
891.611	14081
891.734	14088
891.857	14218
891.98	14126
892.103	14126
892.226	14130
892.349	14092
892.471	13921
892.594	14039
892.717	14081
892.839	14115
892.962	14180
893.085	14092
893.207	14130
893.33	13875
893.452	13959
893.575	14069
893.697	13959
893.819	14187
893.941	14294
894.064	14240
894.186	14123
894.308	14126
894.43	14180
894.552	14271
894.674	14138
894.796	13970
894.918	14138
895.04	14103
895.161	14069
895.283	14225
895.405	14153
895.526	14191
895.648	14221
895.769	14187
895.891	14248
896.012	14267
896.134	14355
896.255	14275
896.376	14210
896.498	14252
896.619	14237
896.74	14267
896.861	14282
896.982	14613
897.103	14724
897.224	14492
897.345	14465
897.466	14438
897.587	14530
897.708	14632
897.828	14511
897.949	14549
898.07	14389
898.19	14549
898.311	14625
898.431	14568
898.552	14629
898.672	14644
898.792	14621
898.913	14629
899.033	14507
899.153	14404
899.273	14434
899.393	14355
899.513	14412
899.633	14511
899.753	14377
899.873	14385
899.993	14469
900.113	14480
900.232	14552
900.352	14442
900.472	14332
900.591	14149
900.711	14294
900.83	14259
900.95	14431
901.069	14438
901.189	14256
901.308	14092
901.427	13963
901.546	13947
901.665	14065
901.784	14062
901.904	13845
902.023	13833
902.141	13639
902.26	13548
902.379	13639
902.498	13559
902.617	13575
902.735	13563
902.854	13521
902.973	13430
903.091	13244
903.21	13278
903.328	13217
903.446	13278
903.565	13080
903.683	13149
903.801	12970
903.919	13091
904.038	13008
904.156	12943
904.274	13031
904.392	12909
904.51	12932
904.627	12905
904.745	13053
904.863	13015
904.981	12669
905.098	12658
905.216	12585
905.334	12681
905.451	12574
905.569	12658
905.686	12722
905.803	12612
905.921	12460
906.038	12578
906.155	12486
906.272	12448
906.389	12376
906.506	12232
906.623	12262
906.74	12205
906.857	12083
906.974	12201
907.091	12251
907.208	12273
907.324	12239
907.441	12136
907.557	12019
907.674	11965
907.79	11885
907.907	11973
908.023	12041
908.139	12045
908.256	11935
908.372	11866
908.488	11889
908.604	11680
908.72	11722
908.836	11786
908.952	11718
909.068	11748
909.184	11809
909.3	11688
909.415	11775
909.531	11760
909.647	11528
909.762	11497
909.878	11516
909.993	11554
910.108	11509
910.224	11471
910.339	11467
910.454	11429
910.57	11349
910.685	11277
910.8	11611
910.915	11558
911.03	11345
911.145	11254
911.259	11193
911.374	11197
911.489	11083
911.604	11128
911.718	10949
911.833	10934
911.947	10862
912.062	10759
912.176	10984
912.291	10927
912.405	10980
912.519	11170
912.633	11109
912.748	10961
912.862	11006
912.976	10858
913.09	10717
913.204	10782
913.318	10801
913.431	10987
913.545	10843
913.659	10949
913.772	10866
913.886	10698
914	10660
914.113	10847
914.226	10816
914.34	10820
914.453	10607
914.566	10710
914.68	10683
914.793	10645
914.906	10455
915.019	10447
915.132	10280
915.245	10417
915.358	10508
915.47	10447
915.583	10481
915.696	10462
915.809	10622
915.921	10561
916.034	10394
916.146	10447
916.259	10386
916.371	10573
916.483	10512
916.595	10417
916.708	10390
916.82	10386
916.932	10356
917.044	10382
917.156	10329
917.268	10276
917.38	10287
917.491	10310
917.603	10325
917.715	10375
917.826	10455
917.938	10314
918.049	10166
918.161	10367
918.272	10379
918.384	10428
918.495	10265
918.606	10169
918.717	10128
918.828	10276
918.939	10177
919.05	10067
919.161	10093
919.272	9956
919.383	10051
919.494	10242
919.604	10360
919.715	10242
919.826	10078
919.936	10177
920.047	10287
920.157	10207
920.267	10375
920.378	10204
920.488	10200
920.598	10398
920.708	10451
920.818	10409
920.928	10344
921.038	10580
921.148	10535
921.258	10303
921.368	10051
921.477	10131
921.587	10029
921.697	9975
921.806	10097
921.916	9911
922.025	9720
922.134	9759
922.244	9713
922.353	9736
922.462	9698
922.571	9507
922.68	9515
922.789	9466
922.898	9477
923.007	9401
923.116	9477
923.224	9473
923.333	9412
923.442	9405
923.55	9317
923.659	9374
923.767	9450
923.876	9287
923.984	9367
924.092	9222
924.201	9344
924.309	9367
924.417	9405
924.525	9211
924.633	9275
924.741	10051
924.849	9127
924.956	9260
925.064	9074
925.172	8990
925.279	9062
925.387	9104
925.494	9097
925.602	9199
925.709	9176
925.816	9036
925.924	9112
926.031	9165
926.138	9165
926.245	9100
926.352	9074
926.459	9180
926.566	9135
926.673	9005
926.779	8944
926.886	8941
926.993	8849
927.099	8834
927.206	8667
927.312	8796
927.419	8838
927.525	8842
927.631	8853
927.737	8750
927.843	8606
927.95	8594
928.056	8731
928.162	8693
928.267	8766
928.373	9302
928.479	8724
928.585	8636
928.69	8655
928.796	8762
928.901	8617
929.007	8427
929.112	8537
929.218	8518
929.323	8537
929.428	8579
929.533	8663
929.638	8488
929.743	8526
929.848	8564
929.953	8522
930.058	8484
930.163	8248
930.267	8320
930.372	8442
930.477	8294
930.581	8606
930.685	8370
930.79	8214
930.894	8279
930.998	8130
931.103	8374
931.207	8073
931.311	8043
931.415	7894
931.519	7731
931.623	7795
