Data from test_V78500241_3542.txt Node
Date: Fri Mar 25 14:58:22 CST 2022
User: usil
Spectrometer: V785-0024
Trigger mode: 0
Integration Time (sec): 4.000000E-1
Scans to average: 1
Nonlinearity correction enabled: false
Boxcar width: 0
Storing dark spectrum: false
XAxis mode: Wavelengths
Number of Pixels in Spectrum: 1024
>>>>>Begin Spectral Data<<<<<
801.071	21968
801.214	21869
801.356	21530
801.499	21568
801.641	21382
801.783	21245
801.926	21298
802.068	21157
802.211	21173
802.353	20956
802.496	20842
802.638	20765
802.78	20701
802.923	20571
803.065	20495
803.208	20689
803.35	20644
803.492	20648
803.635	20689
803.777	20689
803.919	20606
804.061	20933
804.204	20708
804.346	20503
804.488	20495
804.63	20613
804.773	20446
804.915	20511
805.057	20663
805.199	20438
805.341	20480
805.483	20625
805.626	20530
805.768	20393
805.91	20454
806.052	20583
806.194	20465
806.336	20693
806.478	20450
806.62	20377
806.762	20552
806.904	20655
807.046	20929
807.188	20811
807.33	20815
807.472	20842
807.614	20853
807.756	20739
807.898	20492
808.04	20648
808.182	20503
808.324	20533
808.465	20594
808.607	20743
808.749	20758
808.891	20902
809.033	21108
809.174	20834
809.316	20762
809.458	20750
809.6	20731
809.741	20937
809.883	20876
810.025	21100
810.166	21039
810.308	21028
810.45	20971
810.591	20796
810.733	20811
810.875	20575
811.016	20457
811.158	20575
811.299	20568
811.441	20701
811.582	20788
811.724	20648
811.865	20655
812.007	20476
812.148	20598
812.29	20686
812.431	20693
812.573	20906
812.714	20979
812.855	21043
812.997	21180
813.138	21306
813.279	21180
813.421	21150
813.562	21036
813.703	20952
813.845	20746
813.986	20442
814.127	20199
814.268	20225
814.41	20309
814.551	20164
814.692	20290
814.833	20084
814.974	20149
815.115	20077
815.256	19989
815.397	20107
815.539	20039
815.68	19921
815.821	19788
815.962	19974
816.103	19902
816.244	19670
816.385	19544
816.526	19693
816.666	19445
816.807	19327
816.948	19381
817.089	19407
817.23	19384
817.371	19266
817.512	19350
817.653	19324
817.793	19221
817.934	19293
818.075	19331
818.216	19373
818.356	19221
818.497	19088
818.638	18962
818.778	18924
818.919	19084
819.06	18966
819.2	19095
819.341	19160
819.481	19194
819.622	19312
819.762	19628
819.903	19377
820.043	19354
820.184	19312
820.324	19331
820.465	19346
820.605	19297
820.746	19293
820.886	19114
821.026	19278
821.167	19259
821.307	19285
821.447	19228
821.588	19122
821.728	18996
821.868	18924
822.008	18745
822.149	18749
822.289	18582
822.429	18429
822.569	18388
822.709	18338
822.849	18133
822.99	18251
823.13	18239
823.27	18144
823.41	18053
823.55	17988
823.69	18041
823.83	18034
823.97	17939
824.11	17798
824.25	17699
824.389	17745
824.529	17786
824.669	17752
824.809	17866
824.949	17863
825.089	17836
825.228	17756
825.368	17562
825.508	17520
825.648	17619
825.787	17623
825.927	17543
826.067	17509
826.206	17406
826.346	17596
826.485	17596
826.625	17482
826.765	17672
826.904	17520
827.044	17277
827.183	17208
827.323	17181
827.462	17376
827.601	17284
827.741	17231
827.88	17220
828.02	17098
828.159	17159
828.298	17315
828.437	17284
828.577	17227
828.716	17433
828.855	17155
828.994	17006
829.134	17045
829.273	17048
829.412	17014
829.551	16961
829.69	17041
829.829	16987
829.968	17151
830.107	17090
830.246	17056
830.385	17060
830.524	16938
830.663	16885
830.802	16767
830.941	16702
831.08	16584
831.219	16710
831.357	16653
831.496	16889
831.635	16596
831.774	16691
831.913	16535
832.051	16386
832.19	16485
832.329	16497
832.467	16337
832.606	16344
832.744	16459
832.883	16303
833.022	16356
833.16	16367
833.299	16398
833.437	16500
833.576	16512
833.714	16466
833.852	16424
833.991	16519
834.129	16523
834.267	16493
834.406	16478
834.544	16417
834.682	16485
834.821	16493
834.959	16622
835.097	16413
835.235	16508
835.373	16390
835.511	16542
835.65	16333
835.788	16337
835.926	16230
836.064	16071
836.202	16162
836.34	16337
836.478	16413
836.615	16352
836.753	16287
836.891	16375
837.029	16371
837.167	16344
837.305	16185
837.443	16234
837.58	16265
837.718	16268
837.856	16246
837.993	16230
838.131	16147
838.269	16226
838.406	16116
838.544	16048
838.681	15934
838.819	15918
838.956	15789
839.094	15747
839.231	15808
839.369	15922
839.506	16219
839.643	16025
839.781	15804
839.918	15751
840.055	15842
840.193	15831
840.33	15652
840.467	15800
840.604	15785
840.742	16017
840.879	15698
841.016	15656
841.153	15652
841.29	15785
841.427	15789
841.564	15876
841.701	15819
841.838	15675
841.975	15724
842.112	15667
842.249	15553
842.385	15405
842.522	15698
842.659	15637
842.796	15576
842.933	15637
843.069	15538
843.206	15538
843.343	15679
843.479	15458
843.616	15614
843.752	15382
843.889	15363
844.025	15401
844.162	15386
844.298	15507
844.435	15332
844.571	15348
844.708	15458
844.844	15504
844.98	15450
845.117	15466
845.253	15401
845.389	15233
845.525	15325
845.661	15241
845.798	15104
845.934	15275
846.07	15146
846.206	15287
846.342	15302
846.478	15123
846.614	14929
846.75	14796
846.886	15001
847.022	15013
847.158	14925
847.294	14944
847.429	14982
847.565	14990
847.701	15131
847.837	14746
847.972	14663
848.108	14735
848.244	14743
848.379	14530
848.515	14434
848.65	14396
848.786	14552
848.921	14530
849.057	14518
849.192	14651
849.328	14549
849.463	14552
849.598	14427
849.734	14465
849.869	14377
850.004	14324
850.14	14278
850.275	14298
850.41	14286
850.545	14225
850.68	14221
850.815	14343
850.95	14180
851.085	14568
851.22	14396
851.355	14389
851.49	14298
851.625	14256
851.76	14233
851.895	14214
852.03	14069
852.165	14229
852.299	14305
852.434	14400
852.569	14324
852.703	14366
852.838	14343
852.973	14457
853.107	14366
853.242	14317
853.376	14153
853.511	14088
853.645	14084
853.78	14214
853.914	14183
854.048	14191
854.183	14149
854.317	14199
854.451	14309
854.585	14134
854.72	14046
854.854	14161
854.988	14065
855.122	14237
855.256	14077
855.39	14130
855.524	14210
855.658	14252
855.792	14115
855.926	14149
856.06	14237
856.194	14252
856.327	14225
856.461	14195
856.595	14130
856.729	14172
856.862	14286
856.996	14126
857.13	14244
857.263	14271
857.397	14317
857.53	14202
857.664	14084
857.797	14263
857.931	14351
858.064	14164
858.197	14206
858.331	14107
858.464	14100
858.597	14084
858.731	14157
858.864	14134
858.997	14084
859.13	14214
859.263	14161
859.396	14183
859.529	14176
859.662	14107
859.795	14214
859.928	14153
860.061	14305
860.194	14450
860.327	14138
860.46	14077
860.592	14225
860.725	14229
860.858	14206
860.99	14176
861.123	14164
861.256	14084
861.388	14107
861.521	15005
861.653	13955
861.786	13959
861.918	14031
862.05	14058
862.183	14111
862.315	14157
862.447	14111
862.58	14103
862.712	14005
862.844	13871
862.976	14050
863.108	14024
863.24	14278
863.372	13841
863.504	13826
863.636	13936
863.768	13909
863.9	14001
864.032	13772
864.164	13940
864.296	13890
864.428	14092
864.559	14001
864.691	14012
864.823	14065
864.954	13940
865.086	13932
865.217	14027
865.349	13860
865.48	13902
865.612	13986
865.743	14050
865.875	13959
866.006	13913
866.137	13970
866.269	13997
866.4	13879
866.531	13803
866.662	13841
866.793	13883
866.924	13940
867.055	13913
867.186	13928
867.317	13841
867.448	13772
867.579	13849
867.71	13879
867.841	13845
867.972	13947
868.103	13928
868.233	13951
868.364	14012
868.495	13951
868.625	14229
868.756	14305
868.886	14012
869.017	14168
869.147	14343
869.278	14225
869.408	14233
869.539	14142
869.669	14275
869.799	14191
869.929	14309
870.06	14248
870.19	14579
870.32	14514
870.45	14545
870.58	14625
870.71	14724
870.84	14750
870.97	14549
871.1	14495
871.23	14705
871.36	14689
871.489	14754
871.619	14785
871.749	14754
871.879	14788
872.008	14872
872.138	14739
872.267	14826
872.397	14625
872.526	14526
872.656	14526
872.785	14697
872.915	14819
873.044	14918
873.173	14792
873.303	14853
873.432	14937
873.561	14948
873.69	14853
873.819	14826
873.948	14921
874.077	14815
874.206	14819
874.335	14998
874.464	14929
874.593	15005
874.722	15020
874.851	15214
874.979	15142
875.108	15192
875.237	15043
875.365	15070
875.494	15081
875.623	15283
875.751	15161
875.88	15211
876.008	15294
876.136	15310
876.265	15534
876.393	15656
876.521	15736
876.65	15595
876.778	15603
876.906	15439
877.034	15435
877.162	15622
877.29	15488
877.418	15526
877.546	15595
877.674	15545
877.802	15603
877.93	15644
878.058	15492
878.185	15500
878.313	15545
878.441	15485
878.568	15367
878.696	15450
878.824	15743
878.951	15587
879.079	15755
879.206	15854
879.333	15743
879.461	15576
879.588	15656
879.715	15686
879.842	15838
879.97	15656
880.097	15443
880.224	15450
880.351	15485
880.478	15496
880.605	15393
880.732	15526
880.859	15557
880.986	15405
881.112	15405
881.239	15329
881.366	15127
881.493	15176
881.619	15055
881.746	15093
881.872	15005
881.999	15017
882.125	15051
882.252	15081
882.378	15104
882.505	15207
882.631	15043
882.757	14891
882.883	14895
883.01	14902
883.136	14811
883.262	14811
883.388	14731
883.514	14845
883.64	14963
883.766	14880
883.892	14670
884.018	14743
884.143	14982
884.269	15020
884.395	14568
884.52	14514
884.646	14545
884.772	14488
884.897	14560
885.023	14549
885.148	14674
885.274	14758
885.399	14686
885.524	14636
885.65	14587
885.775	14644
885.9	14594
886.025	14701
886.15	14705
886.275	14495
886.4	14469
886.525	14556
886.65	14438
886.775	14545
886.9	14788
887.025	14819
887.149	14598
887.274	14465
887.399	14267
887.523	14454
887.648	14400
887.773	14309
887.897	14461
888.021	14511
888.146	14393
888.27	14556
888.395	14438
888.519	14408
888.643	14446
888.767	14495
888.891	14431
889.015	14225
889.139	14355
889.263	14385
889.387	14431
889.511	14541
889.635	14404
889.759	14225
889.883	14237
890.006	14412
890.13	14328
890.254	14199
890.377	14244
890.501	14111
890.624	14119
890.748	14081
890.871	14077
890.995	13868
891.118	13871
891.241	13940
891.364	14027
891.488	14058
891.611	13967
891.734	14046
891.857	14062
891.98	13970
892.103	14050
892.226	13993
892.349	13951
892.471	13791
892.594	13982
892.717	14012
892.839	13947
892.962	13974
893.085	14123
893.207	13978
893.33	13822
893.452	13997
893.575	13967
893.697	13947
893.819	14221
893.941	14237
894.064	14187
894.186	13963
894.308	13913
894.43	14111
894.552	14221
894.674	14164
894.796	13947
894.918	13986
895.04	13951
895.161	14119
895.283	14073
895.405	14035
895.526	14084
895.648	14206
895.769	14077
895.891	14126
896.012	14233
896.134	14233
896.255	14176
896.376	14195
896.498	14183
896.619	14229
896.74	14134
896.861	14195
896.982	14492
897.103	14682
897.224	14457
897.345	14396
897.466	14313
897.587	14351
897.708	14579
897.828	14484
897.949	14374
898.07	14282
898.19	14457
898.311	14602
898.431	14404
898.552	14457
898.672	14552
898.792	14610
898.913	14552
899.033	14442
899.153	14339
899.273	14278
899.393	14339
899.513	14328
899.633	14393
899.753	14393
899.873	14317
899.993	14427
900.113	14294
900.232	14339
900.352	14271
900.472	14233
900.591	14199
900.711	14214
900.83	14210
900.95	14320
901.069	14271
901.189	14187
901.308	13917
901.427	13879
901.546	13852
901.665	13906
901.784	13921
901.904	13731
902.023	13689
902.141	13533
902.26	13480
902.379	13571
902.498	13480
902.617	13419
902.735	13396
902.854	13495
902.973	13407
903.091	13209
903.21	13187
903.328	13221
903.446	13133
903.565	13050
903.683	13084
903.801	12947
903.919	13061
904.038	13050
904.156	12852
904.274	12951
904.392	12871
904.51	12863
904.627	12882
904.745	12981
904.863	12970
904.981	12688
905.098	12502
905.216	12566
905.334	12536
905.451	12639
905.569	12544
905.686	12570
905.803	12574
905.921	12346
906.038	12521
906.155	12475
906.272	12197
906.389	12251
906.506	12121
906.623	12224
906.74	12133
906.857	11999
906.974	12087
907.091	12194
907.208	12213
907.324	12266
907.441	12007
907.557	11920
907.674	11927
907.79	11870
907.907	11954
908.023	11961
908.139	11908
908.256	11878
908.372	11748
908.488	11821
908.604	11714
908.72	11611
908.836	11680
908.952	11585
909.068	11646
909.184	11798
909.3	11653
909.415	11748
909.531	11649
909.647	11436
909.762	11467
909.878	11471
909.993	11429
910.108	11398
910.224	11455
910.339	11406
910.454	11391
910.57	11265
910.685	11299
910.8	11433
910.915	11402
911.03	11383
911.145	11170
911.259	11098
911.374	11174
911.489	11071
911.604	10980
911.718	10839
911.833	10881
911.947	10767
912.062	10767
912.176	10942
912.291	10908
912.405	10881
912.519	11056
912.633	11128
912.748	10923
912.862	10873
912.976	10889
913.09	10672
913.204	10729
913.318	10824
913.431	10873
913.545	10911
913.659	10953
913.772	10725
913.886	10687
914	10733
914.113	10809
914.226	10786
914.34	10816
914.453	10626
914.566	10721
914.68	10615
914.793	10603
914.906	10413
915.019	10344
915.132	10257
915.245	10398
915.358	10421
915.47	10443
915.583	10451
915.696	10474
915.809	10512
915.921	10531
916.034	10379
916.146	10329
916.259	10265
916.371	10409
916.483	10382
916.595	10333
916.708	10299
916.82	10398
916.932	10287
917.044	10356
917.156	10333
917.268	10185
917.38	10276
917.491	10257
917.603	10253
917.715	10360
917.826	10375
917.938	10230
918.049	10067
918.161	10173
918.272	10318
918.384	10386
918.495	10246
918.606	10017
918.717	10051
918.828	10109
918.939	10067
919.05	10025
919.161	10013
919.272	9854
919.383	9964
919.494	10147
919.604	10348
919.715	10139
919.826	10074
919.936	10055
920.047	10181
920.157	10185
920.267	10318
920.378	10143
920.488	10090
920.598	10421
920.708	10478
920.818	10325
920.928	10325
921.038	10470
921.148	10440
921.258	10181
921.368	10097
921.477	9960
921.587	9937
921.697	9816
921.806	10025
921.916	9930
922.025	9740
922.134	9603
922.244	9656
922.353	9755
922.462	9564
922.571	9511
922.68	9363
922.789	9405
922.898	9447
923.007	9351
923.116	9462
923.224	9393
923.333	9321
923.442	9256
923.55	9268
923.659	9283
923.767	9310
923.876	9199
923.984	9241
924.092	9135
924.201	9306
924.309	9306
924.417	9256
924.525	9226
924.633	9241
924.741	9934
924.849	9009
924.956	9135
925.064	9017
925.172	8948
925.279	9001
925.387	9039
925.494	9055
925.602	9253
925.709	9104
925.816	8960
925.924	9036
926.031	9195
926.138	8998
926.245	9142
926.352	8990
926.459	9097
926.566	9138
926.673	9070
926.779	8826
926.886	8880
926.993	8792
927.099	8754
927.206	8777
927.312	8731
927.419	8811
927.525	8720
927.631	8792
927.737	8689
927.843	8659
927.95	8564
928.056	8621
928.162	8708
928.267	8807
928.373	9275
928.479	8785
928.585	8518
928.69	8667
928.796	8701
928.901	8522
929.007	8469
929.112	8602
929.218	8568
929.323	8476
929.428	8476
929.533	8583
929.638	8419
929.743	8446
929.848	8446
929.953	8438
930.058	8389
930.163	8202
930.267	8271
930.372	8381
930.477	8172
930.581	8480
930.685	8298
930.79	8187
930.894	8218
930.998	8138
931.103	8328
931.207	7944
931.311	7932
931.415	7841
931.519	7693
931.623	7738
