Data from test_V78500241_1094.txt Node
Date: Fri Mar 25 14:41:20 CST 2022
User: usil
Spectrometer: V785-0024
Trigger mode: 0
Integration Time (sec): 4.000000E-1
Scans to average: 1
Nonlinearity correction enabled: false
Boxcar width: 0
Storing dark spectrum: false
XAxis mode: Wavelengths
Number of Pixels in Spectrum: 1024
>>>>>Begin Spectral Data<<<<<
801.071	22721
801.214	22527
801.356	22253
801.499	22352
801.641	22105
801.783	21991
801.926	22021
802.068	22002
802.211	21800
802.353	21892
802.496	21447
802.638	21523
802.78	21408
802.923	21568
803.065	21454
803.208	21344
803.35	21408
803.492	21488
803.635	21450
803.777	21492
803.919	21405
804.061	21808
804.204	21420
804.346	21359
804.488	21294
804.63	21298
804.773	21245
804.915	21279
805.057	21435
805.199	21169
805.341	21367
805.483	21302
805.626	21389
805.768	21214
805.91	21279
806.052	21298
806.194	21157
806.336	21534
806.478	21374
806.62	21401
806.762	21492
806.904	21633
807.046	21717
807.188	21709
807.33	21789
807.472	21800
807.614	21743
807.756	21686
807.898	21591
808.04	21618
808.182	21660
808.324	21614
808.465	21819
808.607	22032
808.749	22192
808.891	22162
809.033	22436
809.174	22158
809.316	22074
809.458	22055
809.6	21876
809.741	22002
809.883	22032
810.025	21941
810.166	22249
810.308	21930
810.45	22036
810.591	21785
810.733	21751
810.875	21644
811.016	21534
811.158	21523
811.299	21622
811.441	21766
811.582	21690
811.724	21603
811.865	21443
812.007	21603
812.148	21408
812.29	21679
812.431	21690
812.573	21819
812.714	21876
812.855	22154
812.997	22070
813.138	22329
813.279	22261
813.421	22090
813.562	22017
813.703	21831
813.845	21762
813.986	21492
814.127	21367
814.268	21268
814.41	21188
814.551	21081
814.692	21043
814.833	21096
814.974	21089
815.115	21005
815.256	20986
815.397	20990
815.539	21058
815.68	20811
815.821	20773
815.962	20899
816.103	20815
816.244	20743
816.385	20621
816.526	20693
816.666	20465
816.807	20229
816.948	20419
817.089	20495
817.23	20305
817.371	20282
817.512	20233
817.653	20252
817.793	20275
817.934	20119
818.075	20240
818.216	20286
818.356	20161
818.497	20092
818.638	20016
818.778	20001
818.919	19978
819.06	20012
819.2	20084
819.341	20161
819.481	20096
819.622	20183
819.762	20537
819.903	20400
820.043	20370
820.184	20298
820.324	20305
820.465	20294
820.605	20351
820.746	20305
820.886	20149
821.026	20199
821.167	20161
821.307	20355
821.447	20168
821.588	20058
821.728	19963
821.868	19860
822.008	19769
822.149	19590
822.289	19738
822.429	19324
822.569	19441
822.709	19343
822.849	19213
822.99	19141
823.13	19133
823.27	19118
823.41	18981
823.55	18970
823.69	18886
823.83	18924
823.97	18810
824.11	18867
824.25	18646
824.389	18825
824.529	18779
824.669	18798
824.809	18878
824.949	18817
825.089	18844
825.228	18783
825.368	18559
825.508	18509
825.648	18494
825.787	18604
825.927	18608
826.067	18498
826.206	18544
826.346	18475
826.485	18376
826.625	18479
826.765	18642
826.904	18578
827.044	18220
827.183	18273
827.323	18235
827.462	18213
827.601	18239
827.741	18121
827.88	18235
828.02	18174
828.159	18167
828.298	18209
828.437	18190
828.577	18171
828.716	18353
828.855	18155
828.994	17889
829.134	18038
829.273	17977
829.412	17870
829.551	17855
829.69	17931
829.829	17973
829.968	18102
830.107	17904
830.246	18015
830.385	17885
830.524	17893
830.663	17642
830.802	17615
830.941	17554
831.08	17463
831.219	17615
831.357	17604
831.496	17866
831.635	17627
831.774	17490
831.913	17337
832.051	17448
832.19	17467
832.329	17440
832.467	17326
832.606	17197
832.744	17303
832.883	17231
833.022	17288
833.16	17166
833.299	17303
833.437	17204
833.576	17372
833.714	17265
833.852	17284
833.991	17337
834.129	17440
834.267	17288
834.406	17353
834.544	17345
834.682	17307
834.821	17345
834.959	17505
835.097	17204
835.235	17372
835.373	17261
835.511	17337
835.65	17185
835.788	17277
835.926	16976
836.064	16881
836.202	16980
836.34	17220
836.478	17242
836.615	17155
836.753	17250
836.891	17288
837.029	17174
837.167	17250
837.305	17159
837.443	17094
837.58	17025
837.718	17102
837.856	17094
837.993	16999
838.131	17102
838.269	16991
838.406	16949
838.544	16923
838.681	16691
838.819	16752
838.956	16519
839.094	16611
839.231	16637
839.369	16729
839.506	16957
839.643	16919
839.781	16645
839.918	16588
840.055	16641
840.193	16660
840.33	16664
840.467	16618
840.604	16599
840.742	16908
840.879	16504
841.016	16508
841.153	16504
841.29	16675
841.427	16580
841.564	16664
841.701	16622
841.838	16516
841.975	16481
842.112	16599
842.249	16379
842.385	16451
842.522	16523
842.659	16478
842.796	16402
842.933	16390
843.069	16268
843.206	16413
843.343	16500
843.479	16382
843.616	16382
843.752	16173
843.889	16135
844.025	16280
844.162	16048
844.298	16287
844.435	16249
844.571	16124
844.708	16253
844.844	16348
844.98	16360
845.117	16303
845.253	16116
845.389	16162
845.525	16192
845.661	16207
845.798	16386
845.934	16455
846.07	16421
846.206	16436
846.342	16573
846.478	16337
846.614	16006
846.75	15854
846.886	15800
847.022	15755
847.158	15857
847.294	15857
847.429	15785
847.565	15736
847.701	15937
847.837	15538
847.972	15325
848.108	15701
848.244	15485
848.379	15397
848.515	15336
848.65	15279
848.786	15310
848.921	15291
849.057	15348
849.192	15443
849.328	15401
849.463	15268
849.598	15218
849.734	15195
849.869	15173
850.004	15218
850.14	15066
850.275	15074
850.41	15005
850.545	15097
850.68	15161
850.815	15074
850.95	14986
851.085	15199
851.22	15100
851.355	15081
851.49	14975
851.625	15074
851.76	15081
851.895	14895
852.03	14952
852.165	15024
852.299	15188
852.434	15226
852.569	15150
852.703	15127
852.838	15138
852.973	15275
853.107	15150
853.242	15112
853.376	15020
853.511	14849
853.645	14876
853.78	15093
853.914	14925
854.048	14864
854.183	14994
854.317	14960
854.451	15119
854.585	14998
854.72	14849
854.854	14979
854.988	14906
855.122	14929
855.256	14834
855.39	14899
855.524	15013
855.658	15058
855.792	14941
855.926	14998
856.06	15039
856.194	15043
856.327	15005
856.461	14830
856.595	14902
856.729	14842
856.862	15074
856.996	15005
857.13	15104
857.263	15093
857.397	15028
857.53	14998
857.664	15077
857.797	15032
857.931	15116
858.064	15081
858.197	15043
858.331	14933
858.464	14899
858.597	14815
858.731	14880
858.864	14925
858.997	14948
859.13	14872
859.263	14887
859.396	15119
859.529	14887
859.662	14902
859.795	14891
859.928	14887
860.061	15070
860.194	15199
860.327	15028
860.46	14979
860.592	15013
860.725	15119
860.858	14982
860.99	14861
861.123	14880
861.256	14918
861.388	14929
861.521	15469
861.653	14754
861.786	14667
861.918	14834
862.05	14952
862.183	14853
862.315	14895
862.447	15024
862.58	14906
862.712	14705
862.844	14640
862.976	14781
863.108	14743
863.24	15085
863.372	14587
863.504	14625
863.636	14686
863.768	14792
863.9	14773
864.032	14667
864.164	14617
864.296	14651
864.428	14849
864.559	14792
864.691	14849
864.823	14644
864.954	14746
865.086	14845
865.217	14712
865.349	14636
865.48	14686
865.612	14750
865.743	14861
865.875	14705
866.006	14674
866.137	14663
866.269	14678
866.4	14610
866.531	14632
866.662	14560
866.793	14610
866.924	14655
867.055	14689
867.186	14648
867.317	14712
867.448	14606
867.579	14590
867.71	14568
867.841	14571
867.972	14648
868.103	14693
868.233	14602
868.364	14781
868.495	14743
868.625	14880
868.756	14952
868.886	14902
869.017	14944
869.147	14982
869.278	15043
869.408	15005
869.539	14891
869.669	15005
869.799	15112
869.929	15077
870.06	15024
870.19	15321
870.32	15252
870.45	15294
870.58	15329
870.71	15462
870.84	15317
870.97	15329
871.1	15192
871.23	15420
871.36	15538
871.489	15443
871.619	15549
871.749	15504
871.879	15466
872.008	15625
872.138	15500
872.267	15466
872.397	15450
872.526	15272
872.656	15321
872.785	15370
872.915	15542
873.044	15667
873.173	15629
873.303	15637
873.432	15663
873.561	15667
873.69	15447
873.819	15485
873.948	15572
874.077	15614
874.206	15591
874.335	15625
874.464	15690
874.593	15846
874.722	15804
874.851	15941
874.979	15979
875.108	15979
875.237	15781
875.365	15827
875.494	15892
875.623	15941
875.751	15949
875.88	15972
876.008	16048
876.136	16109
876.265	16394
876.393	16470
876.521	16470
876.65	16329
876.778	16329
876.906	16234
877.034	16215
877.162	16284
877.29	16299
877.418	16352
877.546	16314
877.674	16360
877.802	16287
877.93	16352
878.058	16287
878.185	16188
878.313	16382
878.441	16268
878.568	16158
878.696	16230
878.824	16516
878.951	16478
879.079	16618
879.206	16774
879.333	16615
879.461	16618
879.588	16561
879.715	16736
879.842	16850
879.97	16500
880.097	16299
880.224	16188
880.351	16287
880.478	16287
880.605	16154
880.732	16188
880.859	16402
880.986	16253
881.112	16265
881.239	16143
881.366	15934
881.493	15949
881.619	15911
881.746	15918
881.872	15869
881.999	15827
882.125	15793
882.252	15945
882.378	15831
882.505	15949
882.631	15759
882.757	15587
882.883	15736
883.01	15633
883.136	15625
883.262	15458
883.388	15481
883.514	15747
883.64	15713
883.766	15564
883.892	15545
884.018	15496
884.143	15561
884.269	15789
884.395	15435
884.52	15405
884.646	15317
884.772	15344
884.897	15298
885.023	15378
885.148	15504
885.274	15568
885.399	15416
885.524	15348
885.65	15329
885.775	15386
885.9	15306
886.025	15515
886.15	15458
886.275	15256
886.4	15218
886.525	15336
886.65	15329
886.775	15287
886.9	15405
887.025	15557
887.149	15378
887.274	15199
887.399	15165
887.523	15199
887.648	15169
887.773	15055
887.897	15252
888.021	15230
888.146	15058
888.27	15317
888.395	15241
888.519	15252
888.643	15287
888.767	15157
888.891	15097
889.015	15062
889.139	15104
889.263	15032
889.387	15100
889.511	15260
889.635	15104
889.759	14982
889.883	15024
890.006	14979
890.13	15097
890.254	14857
890.377	14914
890.501	14830
890.624	14792
890.748	14918
890.871	14743
890.995	14629
891.118	14667
891.241	14750
891.364	14697
891.488	14769
891.611	14648
891.734	14655
891.857	14758
891.98	14716
892.103	14659
892.226	14735
892.349	14727
892.471	14549
892.594	14602
892.717	14686
892.839	14727
892.962	14724
893.085	14716
893.207	14640
893.33	14533
893.452	14579
893.575	14712
893.697	14598
893.819	14883
893.941	14910
894.064	14796
894.186	14606
894.308	14621
894.43	14826
894.552	14819
894.674	14853
894.796	14655
894.918	14625
895.04	14788
895.161	14762
895.283	14720
895.405	14629
895.526	14762
895.648	14716
895.769	14815
895.891	14864
896.012	14891
896.134	14883
896.255	14792
896.376	14838
896.498	14857
896.619	14800
896.74	14769
896.861	14861
896.982	15157
897.103	15241
897.224	15104
897.345	14975
897.466	15020
897.587	15085
897.708	15161
897.828	15081
897.949	15131
898.07	14842
898.19	15062
898.311	15260
898.431	15074
898.552	15138
898.672	15264
898.792	15321
898.913	15203
899.033	15131
899.153	15020
899.273	14864
899.393	15001
899.513	14921
899.633	15013
899.753	15039
899.873	14994
899.993	15089
900.113	15066
900.232	15017
900.352	14906
900.472	14807
900.591	14868
900.711	14899
900.83	14815
900.95	14986
901.069	14921
901.189	14773
901.308	14594
901.427	14484
901.546	14457
901.665	14522
901.784	14526
901.904	14396
902.023	14374
902.141	14145
902.26	14142
902.379	14115
902.498	14130
902.617	14016
902.735	14100
902.854	14100
902.973	13986
903.091	13807
903.21	13883
903.328	13837
903.446	13666
903.565	13544
903.683	13639
903.801	13563
903.919	13632
904.038	13559
904.156	13415
904.274	13487
904.392	13365
904.51	13430
904.627	13403
904.745	13487
904.863	13441
904.981	13263
905.098	13175
905.216	13122
905.334	13175
905.451	13095
905.569	13179
905.686	13240
905.803	13126
905.921	12939
906.038	13065
906.155	12962
906.272	12928
906.389	12875
906.506	12760
906.623	12711
906.74	12741
906.857	12631
906.974	12696
907.091	12772
907.208	12760
907.324	12760
907.441	12593
907.557	12486
907.674	12521
907.79	12410
907.907	12369
908.023	12490
908.139	12418
908.256	12426
908.372	12403
908.488	12357
908.604	12216
908.72	12251
908.836	12209
908.952	12155
909.068	12182
909.184	12308
909.3	12224
909.415	12319
909.531	12266
909.647	11973
909.762	11958
909.878	11927
909.993	12015
910.108	11988
910.224	11988
910.339	12049
910.454	11836
910.57	11786
910.685	11707
910.8	12076
910.915	11973
911.03	11882
911.145	11699
911.259	11672
911.374	11695
911.489	11676
911.604	11528
911.718	11433
911.833	11448
911.947	11315
912.062	11208
912.176	11387
912.291	11433
912.405	11433
912.519	11554
912.633	11710
912.748	11486
912.862	11406
912.976	11280
913.09	11140
913.204	11212
913.318	11303
913.431	11379
913.545	11467
913.659	11406
913.772	11334
913.886	11181
914	11235
914.113	11265
914.226	11311
914.34	11208
914.453	11079
914.566	11265
914.68	11098
914.793	11086
914.906	10961
915.019	10976
915.132	10854
915.245	10850
915.358	10885
915.47	10930
915.583	10915
915.696	11006
915.809	11090
915.921	11064
916.034	10904
916.146	10866
916.259	10763
916.371	11010
916.483	10892
916.595	10778
916.708	10778
916.82	10835
916.932	10759
917.044	10835
917.156	10771
917.268	10714
917.38	10706
917.491	10729
917.603	10752
917.715	10801
917.826	10809
917.938	10599
918.049	10630
918.161	10672
918.272	10812
918.384	10793
918.495	10679
918.606	10531
918.717	10493
918.828	10565
918.939	10683
919.05	10493
919.161	10512
919.272	10325
919.383	10481
919.494	10611
919.604	10805
919.715	10546
919.826	10481
919.936	10561
920.047	10683
920.157	10561
920.267	10759
920.378	10660
920.488	10603
920.598	10828
920.708	10908
920.818	10824
920.928	10725
921.038	10961
921.148	10892
921.258	10626
921.368	10478
921.477	10455
921.587	10394
921.697	10329
921.806	10363
921.916	10303
922.025	10177
922.134	10150
922.244	10101
922.353	10257
922.462	10048
922.571	10017
922.68	9865
922.789	9888
922.898	9926
923.007	9804
923.116	9892
923.224	9812
923.333	9842
923.442	9679
923.55	9675
923.659	9698
923.767	9728
923.876	9622
923.984	9781
924.092	9629
924.201	9610
924.309	9644
924.417	9743
924.525	9599
924.633	9633
924.741	10554
924.849	9477
924.956	9591
925.064	9477
925.172	9450
925.279	9424
925.387	9519
925.494	9488
925.602	9618
925.709	9557
925.816	9393
925.924	9389
926.031	9428
926.138	9393
926.245	9496
926.352	9408
926.459	9454
926.566	9496
926.673	9332
926.779	9359
926.886	9291
926.993	9138
927.099	9188
927.206	9047
927.312	9077
927.419	9188
927.525	9176
927.631	9245
927.737	9108
927.843	9058
927.95	8876
928.056	9051
928.162	9013
928.267	9085
928.373	9713
928.479	9131
928.585	8895
928.69	9036
928.796	9138
928.901	8963
929.007	8773
929.112	9005
929.218	8960
929.323	8895
929.428	8853
929.533	8994
929.638	8777
929.743	8838
929.848	8967
929.953	8834
930.058	8731
930.163	8632
930.267	8617
930.372	8796
930.477	8606
930.581	8868
930.685	8686
930.79	8560
930.894	8575
930.998	8549
931.103	8712
931.207	8355
931.311	8324
931.415	8252
931.519	8054
931.623	8050
