Data from test_V78500241_312.txt Node
Date: Fri Mar 25 14:35:53 CST 2022
User: usil
Spectrometer: V785-0024
Trigger mode: 0
Integration Time (sec): 4.000000E-1
Scans to average: 1
Nonlinearity correction enabled: false
Boxcar width: 0
Storing dark spectrum: false
XAxis mode: Wavelengths
Number of Pixels in Spectrum: 1024
>>>>>Begin Spectral Data<<<<<
801.071	27104
801.214	27032
801.356	26849
801.499	26598
801.641	26541
801.783	26446
801.926	26457
802.068	26400
802.211	26434
802.353	26355
802.496	26271
802.638	26031
802.78	26199
802.923	25959
803.065	26069
803.208	25959
803.35	26157
803.492	26031
803.635	26275
803.777	26050
803.919	26221
804.061	26450
804.204	26126
804.346	25875
804.488	26008
804.63	26020
804.773	25925
804.915	25993
805.057	26138
805.199	26065
805.341	26149
805.483	26122
805.626	26081
805.768	26046
805.91	26065
806.052	26233
806.194	26020
806.336	26256
806.478	26252
806.62	26020
806.762	26149
806.904	26248
807.046	26575
807.188	26526
807.33	26317
807.472	26533
807.614	26343
807.756	26480
807.898	26294
808.04	26252
808.182	26237
808.324	26351
808.465	26298
808.607	26396
808.749	26526
808.891	26670
809.033	26663
809.174	26845
809.316	26583
809.458	26598
809.6	26575
809.741	26549
809.883	26526
810.025	26743
810.166	26765
810.308	26872
810.45	26727
810.591	26750
810.733	26469
810.875	26461
811.016	26317
811.158	26199
811.299	26488
811.441	26541
811.582	26632
811.724	26396
811.865	26537
812.007	26446
812.148	26518
812.29	26583
812.431	26609
812.573	26568
812.714	26830
812.855	26940
812.997	26944
813.138	27211
813.279	27001
813.421	27005
813.562	26975
813.703	26838
813.845	26594
813.986	26275
814.127	26187
814.268	26039
814.41	26024
814.551	25966
814.692	26031
814.833	25997
814.974	25841
815.115	26027
815.256	25845
815.397	25818
815.539	25906
815.68	25613
815.821	25864
815.962	25719
816.103	25818
816.244	25616
816.385	25457
816.526	25453
816.666	25274
816.807	25141
816.948	25236
817.089	25324
817.23	25072
817.371	25289
817.512	25023
817.653	25027
817.793	24962
817.934	25129
818.075	25187
818.216	25050
818.356	25076
818.497	24943
818.638	24760
818.778	24878
818.919	24844
819.06	24882
819.2	24901
819.341	24966
819.481	25076
819.622	25183
819.762	25365
819.903	25308
820.043	25282
820.184	25057
820.324	24981
820.465	25141
820.605	25141
820.746	24954
820.886	24840
821.026	24977
821.167	24909
821.307	25095
821.447	24913
821.588	24920
821.728	24711
821.868	24494
822.008	24456
822.149	24346
822.289	24251
822.429	24178
822.569	24018
822.709	24076
822.849	23946
822.99	23977
823.13	23882
823.27	23779
823.41	23691
823.55	23581
823.69	23893
823.83	23661
823.97	23646
824.11	23455
824.25	23326
824.389	23551
824.529	23482
824.669	23535
824.809	23630
824.949	23497
825.089	23547
825.228	23433
825.368	23345
825.508	23090
825.648	23406
825.787	23303
825.927	23425
826.067	23147
826.206	23117
826.346	23296
826.485	23315
826.625	23223
826.765	23391
826.904	23322
827.044	22999
827.183	22900
827.323	22995
827.462	22892
827.601	22991
827.741	22915
827.88	22866
828.02	22782
828.159	22854
828.298	22889
828.437	22915
828.577	22801
828.716	23025
828.855	22812
828.994	22752
829.134	22649
829.273	22637
829.412	22607
829.551	22542
829.69	22386
829.829	22668
829.968	22702
830.107	22809
830.246	22599
830.385	22546
830.524	22504
830.663	22413
830.802	22348
830.941	22128
831.08	22310
831.219	22242
831.357	22291
831.496	22398
831.635	22242
831.774	21991
831.913	22090
832.051	21968
832.19	21972
832.329	21926
832.467	21739
832.606	21812
832.744	21857
832.883	21846
833.022	21808
833.16	21724
833.299	21827
833.437	21789
833.576	21903
833.714	21884
833.852	21926
833.991	21903
834.129	21930
834.267	21755
834.406	21838
834.544	21987
834.682	21880
834.821	21903
834.959	21983
835.097	21690
835.235	21816
835.373	21838
835.511	21789
835.65	21671
835.788	21671
835.926	21542
836.064	21424
836.202	21595
836.34	21694
836.478	21785
836.615	21606
836.753	21720
836.891	21892
837.029	21698
837.167	21534
837.305	21595
837.443	21492
837.58	21473
837.718	21538
837.856	21549
837.993	21488
838.131	21511
838.269	21329
838.406	21485
838.544	21397
838.681	21207
838.819	21104
838.956	21066
839.094	20990
839.231	21009
839.369	21157
839.506	21207
839.643	21237
839.781	20979
839.918	20868
840.055	20960
840.193	20857
840.33	20842
840.467	20990
840.604	20948
840.742	21119
840.879	20735
841.016	20754
841.153	20712
841.29	20933
841.427	20864
841.564	20785
841.701	20811
841.838	20792
841.975	20727
842.112	20773
842.249	20533
842.385	20587
842.522	20796
842.659	20507
842.796	20587
842.933	20587
843.069	20533
843.206	20507
843.343	20545
843.479	20651
843.616	20602
843.752	20324
843.889	20393
844.025	20518
844.162	20286
844.298	20385
844.435	20366
844.571	20115
844.708	20431
844.844	20412
844.98	20438
845.117	20415
845.253	20263
845.389	20237
845.525	20233
845.661	20259
845.798	20153
845.934	20195
846.07	20100
846.206	20206
846.342	20206
846.478	20122
846.614	20050
846.75	19776
846.886	19860
847.022	19837
847.158	19860
847.294	19849
847.429	19868
847.565	19784
847.701	20183
847.837	19559
847.972	19590
848.108	19502
848.244	19533
848.379	19449
848.515	19339
848.65	19419
848.786	19263
848.921	19297
849.057	19575
849.192	19415
849.328	19480
849.463	19460
849.598	19373
849.734	19244
849.869	19194
850.004	19168
850.14	19160
850.275	19042
850.41	19072
850.545	19084
850.68	19069
850.815	19095
850.95	19099
851.085	19270
851.22	19228
851.355	19107
851.49	18977
851.625	19114
851.76	18993
851.895	18973
852.03	19004
852.165	19168
852.299	19179
852.434	19194
852.569	19031
852.703	19084
852.838	19110
852.973	19183
853.107	19183
853.242	19084
853.376	18890
853.511	18692
853.645	18848
853.78	18993
853.914	18802
854.048	18837
854.183	18901
854.317	19027
854.451	19031
854.585	18806
854.72	18856
854.854	18920
854.988	18913
855.122	18981
855.256	18620
855.39	18928
855.524	19141
855.658	18867
855.792	18958
855.926	18909
856.06	19133
856.194	18920
856.327	18886
856.461	18795
856.595	18894
856.729	18993
856.862	19027
856.996	18897
857.13	19015
857.263	19053
857.397	19027
857.53	18882
857.664	18954
857.797	18951
857.931	19065
858.064	18913
858.197	19061
858.331	18772
858.464	18700
858.597	18764
858.731	18798
858.864	18890
858.997	18856
859.13	18844
859.263	18985
859.396	18928
859.529	18814
859.662	18779
859.795	18814
859.928	18875
860.061	19034
860.194	19050
860.327	18951
860.46	18894
860.592	18981
860.725	19046
860.858	18951
860.99	18844
861.123	18776
861.256	18810
861.388	18863
861.521	19594
861.653	18757
861.786	18627
861.918	18757
862.05	18779
862.183	18924
862.315	19000
862.447	19019
862.58	18795
862.712	18665
862.844	18661
862.976	18684
863.108	18604
863.24	18985
863.372	18566
863.504	18707
863.636	18566
863.768	18658
863.9	18589
864.032	18502
864.164	18494
864.296	18608
864.428	18715
864.559	18566
864.691	18669
864.823	18601
864.954	18623
865.086	18620
865.217	18540
865.349	18441
865.48	18475
865.612	18566
865.743	18623
865.875	18532
866.006	18490
866.137	18464
866.269	18536
866.4	18570
866.531	18323
866.662	18304
866.793	18452
866.924	18494
867.055	18448
867.186	18471
867.317	18429
867.448	18365
867.579	18467
867.71	18395
867.841	18327
867.972	18448
868.103	18391
868.233	18372
868.364	18490
868.495	18471
868.625	18669
868.756	18745
868.886	18563
869.017	18639
869.147	18844
869.278	18688
869.408	18623
869.539	18616
869.669	18715
869.799	18703
869.929	18757
870.06	18661
870.19	18894
870.32	18916
870.45	18886
870.58	19015
870.71	19209
870.84	19259
870.97	18977
871.1	19019
871.23	19282
871.36	19202
871.489	19053
871.619	19152
871.749	19225
871.879	19202
872.008	19381
872.138	19221
872.267	19270
872.397	19091
872.526	19065
872.656	19168
872.785	19061
872.915	19209
873.044	19339
873.173	19274
873.303	19255
873.432	19335
873.561	19400
873.69	19225
873.819	19266
873.948	19438
874.077	19377
874.206	19247
874.335	19293
874.464	19320
874.593	19578
874.722	19567
874.851	19575
874.979	19708
875.108	19738
875.237	19578
875.365	19472
875.494	19544
875.623	19624
875.751	19559
875.88	19616
876.008	19559
876.136	19757
876.265	20016
876.393	20020
876.521	19997
876.65	20111
876.778	19986
876.906	19898
877.034	19894
877.162	19959
877.29	19921
877.418	19917
877.546	20001
877.674	19932
877.802	19921
877.93	19959
878.058	19936
878.185	19883
878.313	19955
878.441	19894
878.568	19769
878.696	19799
878.824	19967
878.951	20027
879.079	20027
879.206	20263
879.333	20195
879.461	20062
879.588	20092
879.715	20309
879.842	20267
879.97	20001
880.097	19868
880.224	19803
880.351	19845
880.478	19841
880.605	19719
880.732	19799
880.859	20092
880.986	19822
881.112	19818
881.239	19719
881.366	19632
881.493	19472
881.619	19373
881.746	19457
881.872	19419
881.999	19350
882.125	19365
882.252	19548
882.378	19419
882.505	19460
882.631	19411
882.757	19118
882.883	19301
883.01	19118
883.136	19198
883.262	19053
883.388	18954
883.514	19076
883.64	19118
883.766	19122
883.892	18859
884.018	19008
884.143	19247
884.269	19202
884.395	18833
884.52	18935
884.646	18802
884.772	18703
884.897	18772
885.023	18821
885.148	18829
885.274	18947
885.399	18897
885.524	18905
885.65	18848
885.775	18795
885.9	18810
886.025	18837
886.15	18905
886.275	18734
886.4	18726
886.525	18696
886.65	18623
886.775	18776
886.9	18905
887.025	18894
887.149	18863
887.274	18620
887.399	18563
887.523	18574
887.648	18369
887.773	18502
887.897	18589
888.021	18650
888.146	18517
888.27	18707
888.395	18692
888.519	18642
888.643	18700
888.767	18688
888.891	18566
889.015	18456
889.139	18479
889.263	18334
889.387	18547
889.511	18620
889.635	18437
889.759	18490
889.883	18365
890.006	18426
890.13	18388
890.254	18315
890.377	18384
890.501	18140
890.624	18114
890.748	18281
890.871	17965
890.995	18022
891.118	17889
891.241	17996
891.364	17996
891.488	18114
891.611	17996
891.734	17961
891.857	18095
891.98	18019
892.103	18030
892.226	18026
892.349	17942
892.471	17756
892.594	17851
892.717	17954
892.839	17950
892.962	17954
893.085	17992
893.207	17923
893.33	17733
893.452	17901
893.575	17984
893.697	17851
893.819	18121
893.941	18091
894.064	18049
894.186	17870
894.308	17863
894.43	17946
894.552	18205
894.674	18019
894.796	17901
894.918	17958
895.04	17973
895.161	18076
895.283	17973
895.405	17889
895.526	18007
895.648	17950
895.769	17965
895.891	18049
896.012	18007
896.134	17942
896.255	18053
896.376	17961
896.498	18007
896.619	18038
896.74	17996
896.861	18194
896.982	18372
897.103	18414
897.224	18327
897.345	18289
897.466	18125
897.587	18186
897.708	18300
897.828	18178
897.949	18159
898.07	18133
898.19	18091
898.311	18346
898.431	18315
898.552	18144
898.672	18178
898.792	18448
898.913	18197
899.033	18133
899.153	18015
899.273	17828
899.393	18091
899.513	18011
899.633	17942
899.753	17992
899.873	17901
899.993	18110
900.113	17916
900.232	18007
900.352	17836
900.472	17805
900.591	17805
900.711	17817
900.83	17775
900.95	17859
901.069	17870
901.189	17771
901.308	17547
901.427	17387
901.546	17448
901.665	17509
901.784	17501
901.904	17376
902.023	17239
902.141	17098
902.26	16999
902.379	16965
902.498	17003
902.617	16915
902.735	17029
902.854	16957
902.973	16847
903.091	16573
903.21	16694
903.328	16782
903.446	16546
903.565	16516
903.683	16500
903.801	16447
903.919	16478
904.038	16436
904.156	16230
904.274	16329
904.392	16181
904.51	16230
904.627	16276
904.745	16268
904.863	16207
904.981	16128
905.098	15903
905.216	15903
905.334	15968
905.451	15930
905.569	15880
905.686	15945
905.803	15892
905.921	15698
906.038	15747
906.155	15667
906.272	15618
906.389	15701
906.506	15431
906.623	15504
906.74	15420
906.857	15287
906.974	15401
907.091	15557
907.208	15553
907.324	15454
907.441	15378
907.557	15287
907.674	15199
907.79	15218
907.907	15097
908.023	15150
908.139	15169
908.256	15203
908.372	15009
908.488	15062
908.604	14883
908.72	14811
908.836	14868
908.952	14785
909.068	14788
909.184	14925
909.3	14864
909.415	14891
909.531	14823
909.647	14613
909.762	14610
909.878	14545
909.993	14629
910.108	14522
910.224	14503
910.339	14598
910.454	14431
910.57	14431
910.685	14343
910.8	14537
910.915	14541
911.03	14370
911.145	14176
911.259	14199
911.374	14233
911.489	14134
911.604	14046
911.718	13978
911.833	14062
911.947	13818
912.062	13757
912.176	13928
912.291	13868
912.405	13955
912.519	14096
912.633	14100
912.748	14031
912.862	13898
912.976	13780
913.09	13655
913.204	13757
913.318	13715
913.431	13875
913.545	13841
913.659	13879
913.772	13696
913.886	13670
914	13632
914.113	13689
914.226	13674
914.34	13738
914.453	13407
914.566	13746
914.68	13556
914.793	13495
914.906	13255
915.019	13358
915.132	13244
915.245	13304
915.358	13282
915.47	13285
915.583	13324
915.696	13308
915.809	13350
915.921	13403
916.034	13266
916.146	13255
916.259	13141
916.371	13316
916.483	13221
916.595	13122
916.708	13141
916.82	13137
916.932	13095
917.044	13099
917.156	13110
917.268	12939
917.38	13084
917.491	12973
917.603	12913
917.715	13095
917.826	13004
917.938	12882
918.049	12814
918.161	12875
918.272	13034
918.384	13160
918.495	12928
918.606	12852
918.717	12681
918.828	12741
918.939	12814
919.05	12597
919.161	12741
919.272	12601
919.383	12574
919.494	12787
919.604	12935
919.715	12692
919.826	12612
919.936	12658
920.047	12791
920.157	12738
920.267	12954
920.378	12703
920.488	12688
920.598	12848
920.708	13000
920.818	12844
920.928	12897
921.038	13034
921.148	12943
921.258	12757
921.368	12616
921.477	12532
921.587	12429
921.697	12338
921.806	12547
921.916	12498
922.025	12251
922.134	12098
922.244	12163
922.353	12209
922.462	12083
922.571	11965
922.68	11847
922.789	11783
922.898	11897
923.007	11813
923.116	11821
923.224	11748
923.333	11851
923.442	11672
923.55	11657
923.659	11798
923.767	11707
923.876	11680
923.984	11707
924.092	11547
924.201	11649
924.309	11600
924.417	11623
924.525	11581
924.633	11592
924.741	12304
924.849	11379
924.956	11520
925.064	11379
925.172	11292
925.279	11330
925.387	11360
925.494	11436
925.602	11478
925.709	11471
925.816	11246
925.924	11429
926.031	11535
926.138	11280
926.245	11368
926.352	11288
926.459	11318
926.566	11353
926.673	11349
926.779	11208
926.886	11132
926.993	11037
927.099	11079
927.206	10881
927.312	11006
927.419	11090
927.525	11033
927.631	10980
927.737	10889
927.843	10835
927.95	10752
928.056	10816
928.162	10839
928.267	10896
928.373	11486
928.479	10873
928.585	10755
928.69	10736
928.796	10862
928.901	10725
929.007	10561
929.112	10725
929.218	10656
929.323	10599
929.428	10577
929.533	10759
929.638	10603
929.743	10542
929.848	10588
929.953	10508
930.058	10432
930.163	10284
930.267	10440
930.372	10455
930.477	10299
930.581	10531
930.685	10360
930.79	10268
930.894	10310
930.998	10139
931.103	10287
931.207	9956
931.311	9922
931.415	9850
931.519	9686
931.623	9637
