Data from test_V78500241_1668.txt Node
Date: Fri Mar 25 14:45:19 CST 2022
User: usil
Spectrometer: V785-0024
Trigger mode: 0
Integration Time (sec): 4.000000E-1
Scans to average: 1
Nonlinearity correction enabled: false
Boxcar width: 0
Storing dark spectrum: false
XAxis mode: Wavelengths
Number of Pixels in Spectrum: 1024
>>>>>Begin Spectral Data<<<<<
801.071	22276
801.214	22150
801.356	22006
801.499	21835
801.641	21755
801.783	21625
801.926	21667
802.068	21553
802.211	21447
802.353	21386
802.496	21237
802.638	21089
802.78	20963
802.923	21043
803.065	21013
803.208	20899
803.35	20960
803.492	21077
803.635	21055
803.777	20899
803.919	21055
804.061	21230
804.204	21169
804.346	21047
804.488	20902
804.63	20910
804.773	20811
804.915	20937
805.057	20994
805.199	20963
805.341	20956
805.483	20971
805.626	20948
805.768	20834
805.91	20880
806.052	20929
806.194	20796
806.336	21096
806.478	20944
806.62	20918
806.762	21009
806.904	21123
807.046	21195
807.188	21283
807.33	21249
807.472	21294
807.614	21275
807.756	21245
807.898	21135
808.04	20956
808.182	21047
808.324	21070
808.465	20990
808.607	21195
808.749	21405
808.891	21447
809.033	21466
809.174	21424
809.316	21165
809.458	21298
809.6	21192
809.741	21382
809.883	21428
810.025	21481
810.166	21557
810.308	21485
810.45	21416
810.591	21222
810.733	21222
810.875	20998
811.016	20994
811.158	20925
811.299	21199
811.441	21256
811.582	21230
811.724	20994
811.865	21020
812.007	20975
812.148	20994
812.29	21001
812.431	21195
812.573	21351
812.714	21469
812.855	21614
812.997	21705
813.138	21747
813.279	21694
813.421	21530
813.562	21443
813.703	21252
813.845	21188
813.986	20937
814.127	20708
814.268	20678
814.41	20530
814.551	20727
814.692	20621
814.833	20606
814.974	20663
815.115	20602
815.256	20469
815.397	20537
815.539	20537
815.68	20366
815.821	20240
815.962	20358
816.103	20465
816.244	20206
816.385	20043
816.526	20172
816.666	19913
816.807	19731
816.948	19868
817.089	19944
817.23	19887
817.371	19674
817.512	19814
817.653	19765
817.793	19757
817.934	19837
818.075	19731
818.216	19772
818.356	19788
818.497	19597
818.638	19403
818.778	19544
818.919	19506
819.06	19422
819.2	19533
819.341	19685
819.481	19666
819.622	19849
819.762	20039
819.903	19906
820.043	19742
820.184	19890
820.324	19830
820.465	19818
820.605	19837
820.746	19830
820.886	19605
821.026	19734
821.167	19746
821.307	19765
821.447	19620
821.588	19510
821.728	19495
821.868	19266
822.008	19099
822.149	19114
822.289	19160
822.429	18894
822.569	18901
822.709	18863
822.849	18547
822.99	18665
823.13	18616
823.27	18578
823.41	18372
823.55	18388
823.69	18429
823.83	18509
823.97	18376
824.11	18117
824.25	18155
824.389	18205
824.529	18315
824.669	18076
824.809	18357
824.949	18289
825.089	18239
825.228	18247
825.368	18083
825.508	18007
825.648	18136
825.787	17996
825.927	18106
826.067	17999
826.206	17965
826.346	18034
826.485	18011
826.625	18003
826.765	18197
826.904	17954
827.044	17760
827.183	17699
827.323	17665
827.462	17737
827.601	17642
827.741	17623
827.88	17615
828.02	17490
828.159	17714
828.298	17668
828.437	17771
828.577	17623
828.716	17802
828.855	17600
828.994	17543
829.134	17436
829.273	17509
829.412	17372
829.551	17318
829.69	17493
829.829	17463
829.968	17490
830.107	17471
830.246	17478
830.385	17474
830.524	17162
830.663	17246
830.802	17159
830.941	16999
831.08	17079
831.219	16968
831.357	16999
831.496	17311
831.635	17067
831.774	17056
831.913	16915
832.051	16793
832.19	16805
832.329	16786
832.467	16790
832.606	16706
832.744	16755
832.883	16672
833.022	16759
833.16	16675
833.299	16721
833.437	16774
833.576	16744
833.714	16740
833.852	16744
833.991	16801
834.129	16934
834.267	16862
834.406	16740
834.544	16828
834.682	16835
834.821	16908
834.959	16934
835.097	16721
835.235	16900
835.373	16782
835.511	16786
835.65	16656
835.788	16729
835.926	16558
836.064	16489
836.202	16546
836.34	16691
836.478	16759
836.615	16672
836.753	16721
836.891	16771
837.029	16767
837.167	16645
837.305	16535
837.443	16577
837.58	16554
837.718	16653
837.856	16577
837.993	16493
838.131	16512
838.269	16428
838.406	16588
838.544	16421
838.681	16166
838.819	16154
838.956	16067
839.094	16063
839.231	16128
839.369	16150
839.506	16474
839.643	16348
839.781	16013
839.918	16063
840.055	16093
840.193	16090
840.33	16071
840.467	16071
840.604	16150
840.742	16371
840.879	15941
841.016	15991
841.153	15987
841.29	16299
841.427	16071
841.564	16025
841.701	16158
841.838	16078
841.975	16002
842.112	15975
842.249	15922
842.385	15968
842.522	16044
842.659	15846
842.796	15812
842.933	15873
843.069	15751
843.206	15800
843.343	15945
843.479	15869
843.616	15945
843.752	15644
843.889	15724
844.025	15918
844.162	15622
844.298	15800
844.435	15587
844.571	15610
844.708	15686
844.844	15751
844.98	15869
845.117	15892
845.253	15656
845.389	15618
845.525	15576
845.661	15542
845.798	15447
845.934	15656
846.07	15447
846.206	15549
846.342	15606
846.478	15454
846.614	15382
846.75	15207
846.886	15123
847.022	15279
847.158	15146
847.294	15321
847.429	15283
847.565	15203
847.701	15401
847.837	14963
847.972	14948
848.108	15097
848.244	14982
848.379	14857
848.515	14758
848.65	14834
848.786	14815
848.921	14800
849.057	14834
849.192	14902
849.328	14758
849.463	14834
849.598	14781
849.734	14644
849.869	14682
850.004	14693
850.14	14606
850.275	14530
850.41	14602
850.545	14610
850.68	14492
850.815	14575
850.95	14701
851.085	14644
851.22	14606
851.355	14495
851.49	14511
851.625	14480
851.76	14583
851.895	14465
852.03	14450
852.165	14598
852.299	14568
852.434	14663
852.569	14617
852.703	14571
852.838	14560
852.973	14758
853.107	14686
853.242	14537
853.376	14374
853.511	14252
853.645	14370
853.78	14556
853.914	14488
854.048	14431
854.183	14389
854.317	14469
854.451	14678
854.585	14442
854.72	14465
854.854	14492
854.988	14309
855.122	14415
855.256	14259
855.39	14457
855.524	14602
855.658	14465
855.792	14541
855.926	14541
856.06	14533
856.194	14556
856.327	14476
856.461	14332
856.595	14450
856.729	14431
856.862	14621
856.996	14480
857.13	14518
857.263	14533
857.397	14602
857.53	14434
857.664	14518
857.797	14610
857.931	14575
858.064	14434
858.197	14590
858.331	14450
858.464	14431
858.597	14400
858.731	14396
858.864	14355
858.997	14309
859.13	14389
859.263	14526
859.396	14465
859.529	14461
859.662	14358
859.795	14404
859.928	14484
860.061	14541
860.194	14716
860.327	14488
860.46	14377
860.592	14606
860.725	14503
860.858	14579
860.99	14476
861.123	14343
861.256	14412
861.388	14431
861.521	15020
861.653	14271
861.786	14278
861.918	14320
862.05	14374
862.183	14396
862.315	14377
862.447	14480
862.58	14339
862.712	14237
862.844	14199
862.976	14336
863.108	14248
863.24	14693
863.372	14214
863.504	14271
863.636	14233
863.768	14263
863.9	14195
864.032	14168
864.164	14183
864.296	14229
864.428	14339
864.559	14309
864.691	14408
864.823	14298
864.954	14191
865.086	14339
865.217	14183
865.349	14126
865.48	14225
865.612	14240
865.743	14301
865.875	14180
866.006	14202
866.137	14252
866.269	14183
866.4	14252
866.531	14138
866.662	14073
866.793	14126
866.924	14153
867.055	14153
867.186	14195
867.317	14164
867.448	14069
867.579	14111
867.71	14157
867.841	14161
867.972	14168
868.103	14191
868.233	14202
868.364	14237
868.495	14339
868.625	14374
868.756	14488
868.886	14286
869.017	14377
869.147	14575
869.278	14454
869.408	14514
869.539	14484
869.669	14484
869.799	14492
869.929	14571
870.06	14636
870.19	14788
870.32	14800
870.45	14842
870.58	14925
870.71	14921
870.84	14910
870.97	14861
871.1	14849
871.23	14975
871.36	15066
871.489	14967
871.619	15036
871.749	15074
871.879	15070
872.008	15119
872.138	15058
872.267	15081
872.397	14921
872.526	14891
872.656	14914
872.785	14925
872.915	15058
873.044	15123
873.173	15005
873.303	15077
873.432	15119
873.561	15116
873.69	15161
873.819	15157
873.948	15222
874.077	15093
874.206	15085
874.335	15024
874.464	15241
874.593	15302
874.722	15302
874.851	15393
874.979	15447
875.108	15450
875.237	15412
875.365	15310
875.494	15344
875.623	15405
875.751	15363
875.88	15344
876.008	15561
876.136	15667
876.265	15785
876.393	15911
876.521	15960
876.65	15907
876.778	15899
876.906	15755
877.034	15838
877.162	15766
877.29	15660
877.418	15838
877.546	15819
877.674	15762
877.802	15804
877.93	15819
878.058	15835
878.185	15656
878.313	15793
878.441	15808
878.568	15698
878.696	15705
878.824	15816
878.951	16010
879.079	16006
879.206	16158
879.333	16082
879.461	15838
879.588	15972
879.715	16006
879.842	16128
879.97	15975
880.097	15724
880.224	15656
880.351	15709
880.478	15804
880.605	15591
880.732	15603
880.859	15861
880.986	15698
881.112	15793
881.239	15572
881.366	15469
881.493	15458
881.619	15325
881.746	15393
881.872	15325
881.999	15256
882.125	15279
882.252	15344
882.378	15367
882.505	15447
882.631	15325
882.757	15070
882.883	15218
883.01	15233
883.136	15138
883.262	15013
883.388	14902
883.514	15142
883.64	15169
883.766	15119
883.892	14902
884.018	15020
884.143	15119
884.269	15074
884.395	14990
884.52	14765
884.646	14823
884.772	14823
884.897	14743
885.023	14781
885.148	15005
885.274	15013
885.399	14910
885.524	14800
885.65	14861
885.775	14872
885.9	14807
886.025	14986
886.15	14883
886.275	14853
886.4	14758
886.525	14933
886.65	14788
886.775	14807
886.9	15051
887.025	15097
887.149	14921
887.274	14701
887.399	14724
887.523	14678
887.648	14602
887.773	14636
887.897	14701
888.021	14689
888.146	14575
888.27	14796
888.395	14743
888.519	14720
888.643	14686
888.767	14807
888.891	14587
889.015	14499
889.139	14514
889.263	14393
889.387	14575
889.511	14785
889.635	14663
889.759	14492
889.883	14454
890.006	14552
890.13	14598
890.254	14454
890.377	14396
890.501	14385
890.624	14434
890.748	14427
890.871	14237
890.995	14130
891.118	14244
891.241	14221
891.364	14275
891.488	14317
891.611	14180
891.734	14202
891.857	14324
891.98	14259
892.103	14320
892.226	14282
892.349	14176
892.471	14103
892.594	14176
892.717	14202
892.839	14183
892.962	14286
893.085	14267
893.207	14183
893.33	14126
893.452	14111
893.575	14240
893.697	14134
893.819	14408
893.941	14454
894.064	14336
894.186	14126
894.308	14138
894.43	14309
894.552	14480
894.674	14358
894.796	14187
894.918	14214
895.04	14199
895.161	14301
895.283	14366
895.405	14324
895.526	14286
895.648	14267
895.769	14431
895.891	14404
896.012	14484
896.134	14442
896.255	14389
896.376	14374
896.498	14355
896.619	14415
896.74	14408
896.861	14473
896.982	14762
897.103	14941
897.224	14663
897.345	14670
897.466	14636
897.587	14613
897.708	14815
897.828	14727
897.949	14640
898.07	14587
898.19	14598
898.311	14724
898.431	14735
898.552	14724
898.672	14716
898.792	14762
898.913	14762
899.033	14678
899.153	14564
899.273	14476
899.393	14571
899.513	14556
899.633	14594
899.753	14693
899.873	14514
899.993	14724
900.113	14625
900.232	14674
900.352	14610
900.472	14560
900.591	14446
900.711	14503
900.83	14431
900.95	14541
901.069	14579
901.189	14381
901.308	14244
901.427	14157
901.546	14100
901.665	14183
901.784	14100
901.904	14088
902.023	13993
902.141	13822
902.26	13734
902.379	13780
902.498	13715
902.617	13761
902.735	13674
902.854	13715
902.973	13681
903.091	13438
903.21	13457
903.328	13464
903.446	13365
903.565	13270
903.683	13339
903.801	13091
903.919	13198
904.038	13236
904.156	13137
904.274	13187
904.392	13080
904.51	13019
904.627	13053
904.745	13057
904.863	13137
904.981	12920
905.098	12821
905.216	12757
905.334	12798
905.451	12722
905.569	12738
905.686	12825
905.803	12825
905.921	12563
906.038	12631
906.155	12570
906.272	12445
906.389	12521
906.506	12391
906.623	12350
906.74	12350
906.857	12292
906.974	12319
907.091	12422
907.208	12551
907.324	12380
907.441	12346
907.557	12121
907.674	12034
907.79	12045
907.907	12026
908.023	12220
908.139	12167
908.256	12030
908.372	12106
908.488	11965
908.604	11923
908.72	11821
908.836	11863
908.952	11828
909.068	11897
909.184	11954
909.3	11870
909.415	11946
909.531	11901
909.647	11718
909.762	11699
909.878	11638
909.993	11570
910.108	11680
910.224	11573
910.339	11619
910.454	11490
910.57	11455
910.685	11444
910.8	11703
910.915	11543
911.03	11501
911.145	11277
911.259	11356
911.374	11368
911.489	11254
911.604	11231
911.718	11121
911.833	11151
911.947	10946
912.062	10892
912.176	11109
912.291	11056
912.405	10991
912.519	11318
912.633	11311
912.748	11166
912.862	11102
912.976	10942
913.09	10801
913.204	10923
913.318	10980
913.431	11109
913.545	11006
913.659	11029
913.772	10923
913.886	10869
914	10854
914.113	10927
914.226	10984
914.34	10934
914.453	10793
914.566	10850
914.68	10816
914.793	10714
914.906	10675
915.019	10626
915.132	10550
915.245	10561
915.358	10630
915.47	10637
915.583	10687
915.696	10630
915.809	10694
915.921	10755
916.034	10565
916.146	10504
916.259	10497
916.371	10538
916.483	10512
916.595	10538
916.708	10519
916.82	10554
916.932	10474
917.044	10489
917.156	10459
917.268	10436
917.38	10443
917.491	10421
917.603	10356
917.715	10470
917.826	10535
917.938	10398
918.049	10375
918.161	10371
918.272	10554
918.384	10531
918.495	10459
918.606	10280
918.717	10246
918.828	10215
918.939	10306
919.05	10223
919.161	10272
919.272	10074
919.383	10131
919.494	10341
919.604	10584
919.715	10333
919.826	10139
919.936	10268
920.047	10306
920.157	10329
920.267	10546
920.378	10318
920.488	10265
920.598	10497
920.708	10691
920.818	10535
920.928	10375
921.038	10637
921.148	10641
921.258	10352
921.368	10246
921.477	10234
921.587	10120
921.697	10006
921.806	10230
921.916	10101
922.025	9812
922.134	9770
922.244	9865
922.353	9911
922.462	9800
922.571	9641
922.68	9557
922.789	9549
922.898	9561
923.007	9496
923.116	9599
923.224	9477
923.333	9545
923.442	9397
923.55	9405
923.659	9523
923.767	9473
923.876	9424
923.984	9557
924.092	9386
924.201	9431
924.309	9420
924.417	9389
924.525	9386
924.633	9363
924.741	10109
924.849	9176
924.956	9363
925.064	9116
925.172	9100
925.279	9135
925.387	9268
925.494	9214
925.602	9344
925.709	9332
925.816	9097
925.924	9241
926.031	9298
926.138	9214
926.245	9222
926.352	9104
926.459	9245
926.566	9351
926.673	9161
926.779	9108
926.886	9070
926.993	8971
927.099	8948
927.206	8876
927.312	8853
927.419	8918
927.525	8929
927.631	8967
927.737	8815
927.843	8804
927.95	8689
928.056	8830
928.162	8853
928.267	8887
928.373	9408
928.479	8921
928.585	8724
928.69	8792
928.796	8853
928.901	8766
929.007	8667
929.112	8792
929.218	8815
929.323	8708
929.428	8705
929.533	8804
929.638	8594
929.743	8686
929.848	8727
929.953	8575
930.058	8533
930.163	8461
930.267	8423
930.372	8560
930.477	8412
930.581	8617
930.685	8522
930.79	8419
930.894	8457
930.998	8381
931.103	8476
931.207	8111
931.311	8123
931.415	8046
931.519	7849
931.623	7883
