Data from test_V78500241_3217.txt Node
Date: Fri Mar 25 14:56:06 CST 2022
User: usil
Spectrometer: V785-0024
Trigger mode: 0
Integration Time (sec): 4.000000E-1
Scans to average: 1
Nonlinearity correction enabled: false
Boxcar width: 0
Storing dark spectrum: false
XAxis mode: Wavelengths
Number of Pixels in Spectrum: 1024
>>>>>Begin Spectral Data<<<<<
801.071	22128
801.214	21907
801.356	21751
801.499	21504
801.641	21454
801.783	21428
801.926	21466
802.068	21226
802.211	21302
802.353	21192
802.496	20979
802.638	20773
802.78	20823
802.923	20708
803.065	20651
803.208	20705
803.35	20754
803.492	20758
803.635	20712
803.777	20686
803.919	20788
804.061	21024
804.204	20712
804.346	20564
804.488	20602
804.63	20667
804.773	20511
804.915	20640
805.057	20609
805.199	20571
805.341	20648
805.483	20746
805.626	20769
805.768	20583
805.91	20590
806.052	20602
806.194	20644
806.336	20724
806.478	20625
806.62	20587
806.762	20598
806.904	20868
807.046	21096
807.188	20891
807.33	20933
807.472	21020
807.614	20838
807.756	20872
807.898	20823
808.04	20590
808.182	20727
808.324	20701
808.465	20743
808.607	20910
808.749	20948
808.891	20952
809.033	20990
809.174	20967
809.316	20861
809.458	20944
809.6	20773
809.741	20948
809.883	21100
810.025	21108
810.166	21020
810.308	21108
810.45	21100
810.591	21001
810.733	20796
810.875	20720
811.016	20640
811.158	20590
811.299	20864
811.441	20864
811.582	20819
811.724	20667
811.865	20712
812.007	20682
812.148	20697
812.29	20765
812.431	20902
812.573	21039
812.714	21116
812.855	21195
812.997	21348
813.138	21450
813.279	21325
813.421	21279
813.562	21192
813.703	20948
813.845	20834
813.986	20571
814.127	20438
814.268	20256
814.41	20339
814.551	20263
814.692	20370
814.833	20172
814.974	20347
815.115	20290
815.256	20058
815.397	20176
815.539	20142
815.68	20084
815.821	20016
815.962	19982
816.103	20008
816.244	19875
816.385	19788
816.526	19822
816.666	19578
816.807	19445
816.948	19529
817.089	19620
817.23	19388
817.371	19278
817.512	19400
817.653	19422
817.793	19278
817.934	19289
818.075	19400
818.216	19449
818.356	19324
818.497	19160
818.638	18985
818.778	19053
818.919	19080
819.06	19156
819.2	19232
819.341	19327
819.481	19304
819.622	19400
819.762	19666
819.903	19605
820.043	19533
820.184	19327
820.324	19388
820.465	19411
820.605	19403
820.746	19365
820.886	19194
821.026	19369
821.167	19285
821.307	19407
821.447	19434
821.588	19274
821.728	19099
821.868	18833
822.008	18821
822.149	18795
822.289	18810
822.429	18517
822.569	18456
822.709	18521
822.849	18277
822.99	18285
823.13	18251
823.27	18239
823.41	18171
823.55	18072
823.69	18049
823.83	18163
823.97	18091
824.11	17870
824.25	17863
824.389	17977
824.529	17961
824.669	17901
824.809	17984
824.949	17923
825.089	17931
825.228	17923
825.368	17714
825.508	17623
825.648	17779
825.787	17745
825.927	17691
826.067	17703
826.206	17623
826.346	17722
826.485	17718
826.625	17551
826.765	17566
826.904	17623
827.044	17482
827.183	17433
827.323	17433
827.462	17459
827.601	17318
827.741	17341
827.88	17273
828.02	17318
828.159	17273
828.298	17376
828.437	17383
828.577	17318
828.716	17532
828.855	17364
828.994	17079
829.134	17067
829.273	17170
829.412	17022
829.551	17079
829.69	17136
829.829	17197
829.968	17197
830.107	17178
830.246	17140
830.385	17086
830.524	17083
830.663	16949
830.802	16843
830.941	16755
831.08	16710
831.219	16782
831.357	16805
831.496	16908
831.635	16683
831.774	16668
831.913	16580
832.051	16424
832.19	16485
832.329	16523
832.467	16421
832.606	16417
832.744	16356
832.883	16363
833.022	16417
833.16	16500
833.299	16470
833.437	16363
833.576	16489
833.714	16462
833.852	16542
833.991	16405
834.129	16504
834.267	16577
834.406	16481
834.544	16493
834.682	16462
834.821	16470
834.959	16535
835.097	16413
835.235	16508
835.373	16527
835.511	16459
835.65	16322
835.788	16394
835.926	16272
836.064	16200
836.202	16268
836.34	16242
836.478	16394
836.615	16318
836.753	16409
836.891	16462
837.029	16402
837.167	16314
837.305	16386
837.443	16394
837.58	16219
837.718	16322
837.856	16379
837.993	16147
838.131	16200
838.269	16192
838.406	16166
838.544	16204
838.681	16040
838.819	15968
838.956	15835
839.094	15785
839.231	15861
839.369	15873
839.506	16120
839.643	16067
839.781	15793
839.918	15743
840.055	15781
840.193	15865
840.33	15793
840.467	15835
840.604	15880
840.742	16048
840.879	15641
841.016	15770
841.153	15701
841.29	15926
841.427	15838
841.564	15804
841.701	15808
841.838	15755
841.975	15728
842.112	15709
842.249	15648
842.385	15595
842.522	15774
842.659	15530
842.796	15553
842.933	15606
843.069	15462
843.206	15549
843.343	15736
843.479	15698
843.616	15629
843.752	15469
843.889	15439
844.025	15424
844.162	15306
844.298	15519
844.435	15382
844.571	15348
844.708	15454
844.844	15424
844.98	15450
845.117	15530
845.253	15370
845.389	15260
845.525	15241
845.661	15214
845.798	15135
845.934	15218
846.07	15081
846.206	15283
846.342	15298
846.478	15165
846.614	14944
846.75	14910
846.886	14902
847.022	15036
847.158	14918
847.294	14921
847.429	14982
847.565	14902
847.701	15165
847.837	14727
847.972	14640
848.108	14861
848.244	14716
848.379	14610
848.515	14583
848.65	14469
848.786	14568
848.921	14530
849.057	14644
849.192	14678
849.328	14579
849.463	14537
849.598	14450
849.734	14454
849.869	14423
850.004	14381
850.14	14396
850.275	14355
850.41	14267
850.545	14168
850.68	14294
850.815	14343
850.95	14290
851.085	14484
851.22	14457
851.355	14362
851.49	14278
851.625	14271
851.76	14286
851.895	14195
852.03	14240
852.165	14317
852.299	14377
852.434	14286
852.569	14275
852.703	14374
852.838	14343
852.973	14415
853.107	14336
853.242	14282
853.376	14191
853.511	14077
853.645	14020
853.78	14282
853.914	14164
854.048	14100
854.183	14237
854.317	14119
854.451	14343
854.585	14157
854.72	14130
854.854	14309
854.988	14065
855.122	14218
855.256	14115
855.39	14142
855.524	14221
855.658	14187
855.792	14195
855.926	14202
856.06	14263
856.194	14240
856.327	14138
856.461	14134
856.595	14142
856.729	14202
856.862	14286
856.996	14248
857.13	14214
857.263	14377
857.397	14263
857.53	14218
857.664	14218
857.797	14191
857.931	14339
858.064	14206
858.197	14305
858.331	14202
858.464	14176
858.597	14123
858.731	14130
858.864	14176
858.997	14145
859.13	14214
859.263	14206
859.396	14286
859.529	14172
859.662	14126
859.795	14149
859.928	14149
860.061	14480
860.194	14427
860.327	14134
860.46	14187
860.592	14301
860.725	14301
860.858	14282
860.99	14153
861.123	14138
861.256	14016
861.388	14263
861.521	14979
861.653	14008
861.786	14012
861.918	13993
862.05	14176
862.183	14183
862.315	14172
862.447	14149
862.58	14100
862.712	14008
862.844	13913
862.976	14164
863.108	13986
863.24	14438
863.372	13928
863.504	13921
863.636	14024
863.768	14069
863.9	13860
864.032	13852
864.164	13860
864.296	13947
864.428	14164
864.559	14046
864.691	14058
864.823	13997
864.954	14001
865.086	14031
865.217	13970
865.349	13974
865.48	13928
865.612	13944
865.743	14103
865.875	13932
866.006	13997
866.137	13959
866.269	13913
866.4	13940
866.531	13898
866.662	13898
866.793	13963
866.924	13883
867.055	13917
867.186	13936
867.317	13883
867.448	13811
867.579	13894
867.71	13788
867.841	13849
867.972	13902
868.103	13974
868.233	14001
868.364	13982
868.495	13993
868.625	14145
868.756	14240
868.886	14157
869.017	14149
869.147	14237
869.278	14328
869.408	14180
869.539	14187
869.669	14248
869.799	14202
869.929	14290
870.06	14385
870.19	14457
870.32	14476
870.45	14450
870.58	14507
870.71	14727
870.84	14674
870.97	14575
871.1	14537
871.23	14777
871.36	14842
871.489	14697
871.619	14724
871.749	14823
871.879	14921
872.008	14941
872.138	14838
872.267	14720
872.397	14674
872.526	14705
872.656	14621
872.785	14590
872.915	14880
873.044	14910
873.173	14861
873.303	14781
873.432	14948
873.561	14895
873.69	14830
873.819	14689
873.948	14887
874.077	14777
874.206	14861
874.335	14834
874.464	15066
874.593	15062
874.722	15081
874.851	15195
874.979	15211
875.108	15165
875.237	15077
875.365	15112
875.494	15081
875.623	15275
875.751	15081
875.88	15161
876.008	15306
876.136	15389
876.265	15561
876.393	15705
876.521	15663
876.65	15686
876.778	15637
876.906	15504
877.034	15511
877.162	15507
877.29	15469
877.418	15633
877.546	15572
877.674	15568
877.802	15534
877.93	15530
878.058	15618
878.185	15545
878.313	15595
878.441	15481
878.568	15405
878.696	15485
878.824	15462
878.951	15561
879.079	15747
879.206	15838
879.333	15743
879.461	15656
879.588	15637
879.715	15720
879.842	15903
879.97	15663
880.097	15412
880.224	15416
880.351	15462
880.478	15500
880.605	15359
880.732	15473
880.859	15644
880.986	15374
881.112	15477
881.239	15283
881.366	15249
881.493	15100
881.619	15047
881.746	15138
881.872	15017
881.999	15112
882.125	15024
882.252	15097
882.378	15154
882.505	15207
882.631	14933
882.757	14967
882.883	15036
883.01	14918
883.136	14864
883.262	14834
883.388	14804
883.514	14952
883.64	14811
883.766	14849
883.892	14743
884.018	14777
884.143	14933
884.269	14937
884.395	14724
884.52	14621
884.646	14564
884.772	14476
884.897	14575
885.023	14602
885.148	14579
885.274	14796
885.399	14716
885.524	14560
885.65	14651
885.775	14583
885.9	14564
886.025	14750
886.15	14648
886.275	14629
886.4	14522
886.525	14602
886.65	14590
886.775	14461
886.9	14670
887.025	14792
887.149	14587
887.274	14408
887.399	14507
887.523	14400
887.648	14320
887.773	14381
887.897	14423
888.021	14503
888.146	14393
888.27	14522
888.395	14575
888.519	14412
888.643	14579
888.767	14484
888.891	14381
889.015	14214
889.139	14305
889.263	14259
889.387	14362
889.511	14560
889.635	14480
889.759	14229
889.883	14298
890.006	14362
890.13	14355
890.254	14286
890.377	14282
890.501	14138
890.624	14065
890.748	14126
890.871	14035
890.995	13989
891.118	13894
891.241	13959
891.364	14024
891.488	14180
891.611	13936
891.734	14031
891.857	14035
891.98	14027
892.103	14111
892.226	14115
892.349	14039
892.471	13860
892.594	13974
892.717	14062
892.839	14005
892.962	13925
893.085	14077
893.207	13974
893.33	13940
893.452	13921
893.575	14092
893.697	13970
893.819	14214
893.941	14183
894.064	14180
894.186	13940
894.308	13925
894.43	14096
894.552	14164
894.674	14145
894.796	13940
894.918	14073
895.04	14069
895.161	14081
895.283	14126
895.405	13921
895.526	14149
895.648	14202
895.769	14195
895.891	14195
896.012	14263
896.134	14237
896.255	14054
896.376	14103
896.498	14149
896.619	14153
896.74	14180
896.861	14221
896.982	14469
897.103	14613
897.224	14454
897.345	14339
897.466	14206
897.587	14469
897.708	14568
897.828	14537
897.949	14396
898.07	14324
898.19	14415
898.311	14488
898.431	14446
898.552	14514
898.672	14632
898.792	14530
898.913	14648
899.033	14454
899.153	14377
899.273	14377
899.393	14343
899.513	14362
899.633	14465
899.753	14400
899.873	14339
899.993	14412
900.113	14419
900.232	14385
900.352	14298
900.472	14248
900.591	14282
900.711	14225
900.83	14199
900.95	14419
901.069	14221
901.189	14126
901.308	14008
901.427	13871
901.546	13947
901.665	13955
901.784	14012
901.904	13860
902.023	13742
902.141	13525
902.26	13464
902.379	13567
902.498	13514
902.617	13411
902.735	13590
902.854	13575
902.973	13396
903.091	13129
903.21	13152
903.328	13282
903.446	13137
903.565	13088
903.683	13129
903.801	12901
903.919	13004
904.038	12954
904.156	12867
904.274	12962
904.392	12932
904.51	12833
904.627	12905
904.745	12852
904.863	12977
904.981	12684
905.098	12620
905.216	12528
905.334	12517
905.451	12555
905.569	12490
905.686	12646
905.803	12563
905.921	12437
906.038	12464
906.155	12410
906.272	12277
906.389	12311
906.506	12197
906.623	12247
906.74	12216
906.857	12015
906.974	12060
907.091	12228
907.208	12361
907.324	12205
907.441	12232
907.557	11927
907.674	11927
907.79	11775
907.907	11855
908.023	12019
908.139	11916
908.256	11840
908.372	11821
908.488	11779
908.604	11668
908.72	11707
908.836	11615
908.952	11676
909.068	11699
909.184	11779
909.3	11680
909.415	11718
909.531	11657
909.647	11493
909.762	11368
909.878	11379
909.993	11467
910.108	11406
910.224	11398
910.339	11444
910.454	11395
910.57	11223
910.685	11235
910.8	11421
910.915	11425
911.03	11360
911.145	11170
911.259	11151
911.374	11105
911.489	11113
911.604	11079
911.718	10904
911.833	10923
911.947	10721
912.062	10698
912.176	10949
912.291	10831
912.405	10854
912.519	11086
912.633	11086
912.748	10923
912.862	10835
912.976	10725
913.09	10755
913.204	10759
913.318	10767
913.431	10866
913.545	10831
913.659	10934
913.772	10828
913.886	10653
914	10675
914.113	10771
914.226	10915
914.34	10698
914.453	10611
914.566	10721
914.68	10603
914.793	10542
914.906	10371
915.019	10402
915.132	10386
915.245	10390
915.358	10379
915.47	10436
915.583	10402
915.696	10485
915.809	10538
915.921	10508
916.034	10398
916.146	10348
916.259	10417
916.371	10470
916.483	10417
916.595	10390
916.708	10341
916.82	10344
916.932	10284
917.044	10413
917.156	10185
917.268	10200
917.38	10257
917.491	10173
917.603	10295
917.715	10337
917.826	10367
917.938	10128
918.049	10128
918.161	10257
918.272	10367
918.384	10322
918.495	10306
918.606	10177
918.717	10185
918.828	10128
918.939	10128
919.05	10059
919.161	10181
919.272	9876
919.383	10010
919.494	10234
919.604	10341
919.715	10124
919.826	10063
919.936	10139
920.047	10230
920.157	10105
920.267	10337
920.378	10215
920.488	10082
920.598	10348
920.708	10523
920.818	10356
920.928	10382
921.038	10535
921.148	10493
921.258	10230
921.368	10166
921.477	10063
921.587	9953
921.697	9854
921.806	10071
921.916	9937
922.025	9762
922.134	9675
922.244	9644
922.353	9804
922.462	9694
922.571	9576
922.68	9412
922.789	9420
922.898	9367
923.007	9416
923.116	9420
923.224	9424
923.333	9348
923.442	9306
923.55	9176
923.659	9249
923.767	9351
923.876	9298
923.984	9370
924.092	9199
924.201	9287
924.309	9256
924.417	9272
924.525	9195
924.633	9241
924.741	10192
924.849	9070
924.956	9180
925.064	9093
925.172	8960
925.279	9024
925.387	9036
925.494	9036
925.602	9150
925.709	9195
925.816	9020
925.924	9051
926.031	9192
926.138	9108
926.245	9123
926.352	8971
926.459	9138
926.566	9127
926.673	9024
926.779	8868
926.886	8872
926.993	8857
927.099	8815
927.206	8731
927.312	8705
927.419	8807
927.525	8743
927.631	8712
927.737	8682
927.843	8644
927.95	8568
928.056	8632
928.162	8648
928.267	8693
928.373	9218
928.479	8773
928.585	8476
928.69	8552
928.796	8629
928.901	8579
929.007	8476
929.112	8610
929.218	8511
929.323	8518
929.428	8450
929.533	8579
929.638	8396
929.743	8438
929.848	8587
929.953	8415
930.058	8457
930.163	8248
930.267	8259
930.372	8400
930.477	8290
930.581	8514
930.685	8309
930.79	8195
930.894	8286
930.998	8237
931.103	8339
931.207	7963
931.311	8050
931.415	7951
931.519	7662
931.623	7674
