Data from test_V78500241_2346.txt Node
Date: Fri Mar 25 14:50:02 CST 2022
User: usil
Spectrometer: V785-0024
Trigger mode: 0
Integration Time (sec): 4.000000E-1
Scans to average: 1
Nonlinearity correction enabled: false
Boxcar width: 0
Storing dark spectrum: false
XAxis mode: Wavelengths
Number of Pixels in Spectrum: 1024
>>>>>Begin Spectral Data<<<<<
801.071	22131
801.214	22059
801.356	21819
801.499	21644
801.641	21542
801.783	21428
801.926	21424
802.068	21477
802.211	21332
802.353	21184
802.496	21028
802.638	21043
802.78	20944
802.923	20872
803.065	20952
803.208	20807
803.35	20944
803.492	20929
803.635	20891
803.777	20899
803.919	20925
804.061	21066
804.204	20902
804.346	20819
804.488	20678
804.63	20910
804.773	20781
804.915	20838
805.057	20731
805.199	20602
805.341	20800
805.483	20868
805.626	20937
805.768	20720
805.91	20701
806.052	20811
806.194	20758
806.336	20777
806.478	20838
806.62	20613
806.762	20815
806.904	20994
807.046	21104
807.188	21036
807.33	21062
807.472	21131
807.614	20914
807.756	21024
807.898	20880
808.04	20796
808.182	20887
808.324	20868
808.465	20826
808.607	21131
808.749	21142
808.891	21180
809.033	21287
809.174	21195
809.316	21039
809.458	21104
809.6	20960
809.741	21291
809.883	21264
810.025	21313
810.166	21306
810.308	21230
810.45	21192
810.591	21165
810.733	20990
810.875	21020
811.016	20823
811.158	20849
811.299	20975
811.441	21024
811.582	20994
811.724	20785
811.865	20796
812.007	20918
812.148	20842
812.29	20986
812.431	21077
812.573	21245
812.714	21348
812.855	21428
812.997	21538
813.138	21633
813.279	21568
813.421	21370
813.562	21233
813.703	21165
813.845	21032
813.986	20735
814.127	20648
814.268	20568
814.41	20495
814.551	20579
814.692	20408
814.833	20347
814.974	20412
815.115	20271
815.256	20286
815.397	20317
815.539	20434
815.68	20229
815.821	20012
815.962	20111
816.103	20195
816.244	20039
816.385	19841
816.526	19898
816.666	19708
816.807	19658
816.948	19647
817.089	19666
817.23	19655
817.371	19704
817.512	19605
817.653	19521
817.793	19521
817.934	19578
818.075	19624
818.216	19613
818.356	19567
818.497	19369
818.638	19308
818.778	19168
818.919	19327
819.06	19213
819.2	19430
819.341	19460
819.481	19476
819.622	19590
819.762	19750
819.903	19772
820.043	19685
820.184	19510
820.324	19689
820.465	19620
820.605	19616
820.746	19537
820.886	19392
821.026	19556
821.167	19487
821.307	19537
821.447	19552
821.588	19327
821.728	19240
821.868	19107
822.008	19046
822.149	18943
822.289	18905
822.429	18722
822.569	18688
822.709	18776
822.849	18479
822.99	18498
823.13	18429
823.27	18483
823.41	18308
823.55	18133
823.69	18357
823.83	18270
823.97	18296
824.11	17988
824.25	17958
824.389	18022
824.529	18034
824.669	18079
824.809	18197
824.949	18087
825.089	18125
825.228	18038
825.368	17897
825.508	17889
825.648	17954
825.787	17767
825.927	17863
826.067	17703
826.206	17847
826.346	17832
826.485	17984
826.625	17760
826.765	17878
826.904	17729
827.044	17524
827.183	17634
827.323	17467
827.462	17547
827.601	17436
827.741	17410
827.88	17471
828.02	17406
828.159	17478
828.298	17520
828.437	17611
828.577	17455
828.716	17547
828.855	17543
828.994	17296
829.134	17242
829.273	17277
829.412	17162
829.551	17246
829.69	17292
829.829	17261
829.968	17379
830.107	17307
830.246	17265
830.385	17322
830.524	17117
830.663	17048
830.802	16968
830.941	16847
831.08	16839
831.219	16949
831.357	16881
831.496	17094
831.635	16854
831.774	16729
831.913	16702
832.051	16550
832.19	16596
832.329	16771
832.467	16645
832.606	16428
832.744	16565
832.883	16478
833.022	16390
833.16	16558
833.299	16558
833.437	16554
833.576	16519
833.714	16535
833.852	16641
833.991	16577
834.129	16596
834.267	16672
834.406	16634
834.544	16519
834.682	16626
834.821	16489
834.959	16668
835.097	16580
835.235	16653
835.373	16645
835.511	16516
835.65	16500
835.788	16538
835.926	16265
836.064	16344
836.202	16451
836.34	16580
836.478	16577
836.615	16455
836.753	16462
836.891	16641
837.029	16481
837.167	16459
837.305	16413
837.443	16375
837.58	16390
837.718	16333
837.856	16424
837.993	16299
838.131	16409
838.269	16261
838.406	16352
838.544	16196
838.681	16036
838.819	16051
838.956	15915
839.094	15968
839.231	15991
839.369	15991
839.506	16352
839.643	16029
839.781	15998
839.918	15922
840.055	15880
840.193	15842
840.33	15884
840.467	15876
840.604	15930
840.742	16093
840.879	15823
841.016	15766
841.153	15800
841.29	15968
841.427	15979
841.564	16013
841.701	15857
841.838	15895
841.975	15671
842.112	15907
842.249	15656
842.385	15720
842.522	15713
842.659	15838
842.796	15656
842.933	15785
843.069	15739
843.206	15660
843.343	15804
843.479	15629
843.616	15652
843.752	15462
843.889	15462
844.025	15610
844.162	15450
844.298	15572
844.435	15473
844.571	15492
844.708	15542
844.844	15561
844.98	15682
845.117	15595
845.253	15454
845.389	15348
845.525	15450
845.661	15428
845.798	15386
845.934	15367
846.07	15245
846.206	15237
846.342	15412
846.478	15268
846.614	15081
846.75	15081
846.886	15112
847.022	15180
847.158	15123
847.294	15108
847.429	15108
847.565	15097
847.701	15291
847.837	14902
847.972	14758
848.108	14902
848.244	14895
848.379	14705
848.515	14678
848.65	14613
848.786	14743
848.921	14670
849.057	14819
849.192	14849
849.328	14758
849.463	14670
849.598	14640
849.734	14503
849.869	14587
850.004	14355
850.14	14549
850.275	14465
850.41	14343
850.545	14389
850.68	14465
850.815	14442
850.95	14412
851.085	14556
851.22	14549
851.355	14495
851.49	14404
851.625	14377
851.76	14522
851.895	14381
852.03	14324
852.165	14488
852.299	14431
852.434	14461
852.569	14465
852.703	14465
852.838	14511
852.973	14568
853.107	14514
853.242	14389
853.376	14301
853.511	14202
853.645	14225
853.78	14511
853.914	14317
854.048	14199
854.183	14282
854.317	14366
854.451	14423
854.585	14347
854.72	14252
854.854	14362
854.988	14263
855.122	14282
855.256	14161
855.39	14320
855.524	14309
855.658	14313
855.792	14298
855.926	14286
856.06	14366
856.194	14404
856.327	14237
856.461	14180
856.595	14161
856.729	14362
856.862	14377
856.996	14393
857.13	14324
857.263	14412
857.397	14415
857.53	14377
857.664	14343
857.797	14305
857.931	14503
858.064	14461
858.197	14336
858.331	14336
858.464	14244
858.597	14240
858.731	14259
858.864	14248
858.997	14328
859.13	14237
859.263	14377
859.396	14408
859.529	14248
859.662	14263
859.795	14278
859.928	14355
860.061	14389
860.194	14552
860.327	14351
860.46	14324
860.592	14355
860.725	14400
860.858	14438
860.99	14290
861.123	14218
861.256	14263
861.388	14393
861.521	14785
861.653	14149
861.786	14096
861.918	14183
862.05	14218
862.183	14298
862.315	14324
862.447	14313
862.58	14355
862.712	14020
862.844	14035
862.976	14111
863.108	14126
863.24	14393
863.372	14012
863.504	14084
863.636	14008
863.768	14180
863.9	14031
864.032	14119
864.164	14069
864.296	14130
864.428	14062
864.559	14157
864.691	14138
864.823	14206
864.954	14221
865.086	14100
865.217	14077
865.349	14081
865.48	14073
865.612	14043
865.743	14240
865.875	14134
866.006	14081
866.137	14035
866.269	14050
866.4	14081
866.531	14058
866.662	14012
866.793	13997
866.924	14008
867.055	14046
867.186	14096
867.317	13974
867.448	13959
867.579	13993
867.71	13993
867.841	13993
867.972	14103
868.103	14123
868.233	14046
868.364	14054
868.495	14206
868.625	14298
868.756	14362
868.886	14206
869.017	14267
869.147	14381
869.278	14469
869.408	14275
869.539	14248
869.669	14366
869.799	14408
869.929	14412
870.06	14507
870.19	14708
870.32	14587
870.45	14705
870.58	14644
870.71	14895
870.84	14830
870.97	14724
871.1	14689
871.23	14876
871.36	14948
871.489	14811
871.619	14880
871.749	14952
871.879	14941
872.008	14948
872.138	14914
872.267	14967
872.397	14758
872.526	14754
872.656	14644
872.785	14743
872.915	14925
873.044	14986
873.173	14933
873.303	14982
873.432	15024
873.561	15036
873.69	15005
873.819	14925
873.948	15074
874.077	14861
874.206	14914
874.335	14994
874.464	15077
874.593	15291
874.722	15192
874.851	15298
874.979	15298
875.108	15264
875.237	15233
875.365	15214
875.494	15294
875.623	15424
875.751	15249
875.88	15378
876.008	15336
876.136	15496
876.265	15709
876.393	15861
876.521	15720
876.65	15713
876.778	15682
876.906	15671
877.034	15587
877.162	15648
877.29	15492
877.418	15747
877.546	15629
877.674	15618
877.802	15736
877.93	15591
878.058	15720
878.185	15606
878.313	15637
878.441	15686
878.568	15519
878.696	15656
878.824	15766
878.951	15755
879.079	15926
879.206	16002
879.333	15899
879.461	15739
879.588	15759
879.715	15789
879.842	15994
879.97	15747
880.097	15591
880.224	15469
880.351	15561
880.478	15576
880.605	15504
880.732	15477
880.859	15907
880.986	15622
881.112	15530
881.239	15507
881.366	15336
881.493	15310
881.619	15218
881.746	15199
881.872	15142
881.999	15108
882.125	15146
882.252	15260
882.378	15226
882.505	15329
882.631	15081
882.757	14998
882.883	14967
883.01	15100
883.136	14941
883.262	14834
883.388	14921
883.514	14982
883.64	15001
883.766	14982
883.892	14758
884.018	14857
884.143	15093
884.269	15017
884.395	14773
884.52	14655
884.646	14716
884.772	14606
884.897	14613
885.023	14727
885.148	14746
885.274	14872
885.399	14899
885.524	14758
885.65	14823
885.775	14667
885.9	14697
886.025	14887
886.15	14769
886.275	14644
886.4	14636
886.525	14651
886.65	14587
886.775	14655
886.9	14777
887.025	14906
887.149	14731
887.274	14564
887.399	14461
887.523	14522
887.648	14492
887.773	14377
887.897	14575
888.021	14636
888.146	14488
888.27	14670
888.395	14712
888.519	14621
888.643	14514
888.767	14545
888.891	14476
889.015	14374
889.139	14362
889.263	14427
889.387	14541
889.511	14663
889.635	14408
889.759	14324
889.883	14294
890.006	14442
890.13	14522
890.254	14358
890.377	14404
890.501	14317
890.624	14218
890.748	14305
890.871	14100
890.995	14176
891.118	14046
891.241	14157
891.364	14134
891.488	14202
891.611	14069
891.734	14138
891.857	14305
891.98	14100
892.103	14176
892.226	14123
892.349	14058
892.471	13887
892.594	14027
892.717	14027
892.839	13993
892.962	14149
893.085	14161
893.207	14138
893.33	13989
893.452	14046
893.575	14278
893.697	14111
893.819	14259
893.941	14248
894.064	14275
894.186	14077
894.308	14092
894.43	14259
894.552	14355
894.674	14172
894.796	14157
894.918	14195
895.04	14119
895.161	14237
895.283	14161
895.405	14119
895.526	14168
895.648	14153
895.769	14168
895.891	14240
896.012	14427
896.134	14317
896.255	14278
896.376	14240
896.498	14195
896.619	14343
896.74	14377
896.861	14332
896.982	14651
897.103	14701
897.224	14590
897.345	14484
897.466	14488
897.587	14454
897.708	14705
897.828	14610
897.949	14473
898.07	14396
898.19	14442
898.311	14670
898.431	14541
898.552	14640
898.672	14678
898.792	14785
898.913	14716
899.033	14617
899.153	14408
899.273	14431
899.393	14374
899.513	14503
899.633	14518
899.753	14571
899.873	14438
899.993	14469
900.113	14469
900.232	14587
900.352	14507
900.472	14404
900.591	14438
900.711	14336
900.83	14294
900.95	14404
901.069	14431
901.189	14214
901.308	14119
901.427	14020
901.546	14111
901.665	14134
901.784	14115
901.904	13890
902.023	13830
902.141	13647
902.26	13552
902.379	13708
902.498	13594
902.617	13609
902.735	13594
902.854	13639
902.973	13575
903.091	13350
903.21	13266
903.328	13293
903.446	13293
903.565	13152
903.683	13156
903.801	13103
903.919	13202
904.038	13118
904.156	13042
904.274	13095
904.392	13000
904.51	12932
904.627	12973
904.745	13053
904.863	13034
904.981	12806
905.098	12639
905.216	12662
905.334	12585
905.451	12673
905.569	12578
905.686	12673
905.803	12684
905.921	12547
906.038	12509
906.155	12521
906.272	12445
906.389	12361
906.506	12277
906.623	12311
906.74	12228
906.857	12136
906.974	12175
907.091	12323
907.208	12372
907.324	12304
907.441	12194
907.557	11984
907.674	12087
907.79	12022
907.907	11992
908.023	11958
908.139	11958
908.256	11893
908.372	11882
908.488	11832
908.604	11786
908.72	11771
908.836	11691
908.952	11745
909.068	11722
909.184	11866
909.3	11752
909.415	11783
909.531	11866
909.647	11490
909.762	11558
909.878	11592
909.993	11425
910.108	11505
910.224	11505
910.339	11448
910.454	11372
910.57	11391
910.685	11337
910.8	11608
910.915	11573
911.03	11368
911.145	11288
911.259	11174
911.374	11223
911.489	11109
911.604	11048
911.718	10968
911.833	10999
911.947	10801
912.062	10850
912.176	10923
912.291	10930
912.405	10995
912.519	11166
912.633	11121
912.748	11018
912.862	10972
912.976	10885
913.09	10725
913.204	10782
913.318	10866
913.431	10946
913.545	11014
913.659	11006
913.772	10873
913.886	10767
914	10763
914.113	10778
914.226	10839
914.34	10786
914.453	10702
914.566	10866
914.68	10706
914.793	10694
914.906	10538
915.019	10436
915.132	10382
915.245	10489
915.358	10542
915.47	10493
915.583	10535
915.696	10569
915.809	10599
915.921	10675
916.034	10443
916.146	10558
916.259	10417
916.371	10542
916.483	10546
916.595	10390
916.708	10573
916.82	10485
916.932	10443
917.044	10409
917.156	10462
917.268	10325
917.38	10417
917.491	10310
917.603	10333
917.715	10451
917.826	10428
917.938	10246
918.049	10246
918.161	10333
918.272	10531
918.384	10497
918.495	10360
918.606	10211
918.717	10143
918.828	10303
918.939	10299
919.05	10223
919.161	10234
919.272	10086
919.383	10124
919.494	10363
919.604	10497
919.715	10242
919.826	10223
919.936	10219
920.047	10257
920.157	10230
920.267	10390
920.378	10310
920.488	10207
920.598	10474
920.708	10523
920.818	10417
920.928	10398
921.038	10538
921.148	10535
921.258	10303
921.368	10246
921.477	10101
921.587	10036
921.697	10021
921.806	10173
921.916	10010
922.025	9800
922.134	9827
922.244	9808
922.353	9823
922.462	9728
922.571	9644
922.68	9538
922.789	9447
922.898	9557
923.007	9458
923.116	9572
923.224	9500
923.333	9507
923.442	9393
923.55	9344
923.659	9370
923.767	9481
923.876	9332
923.984	9462
924.092	9272
924.201	9412
924.309	9374
924.417	9408
924.525	9272
924.633	9291
924.741	10101
924.849	9188
924.956	9317
925.064	9169
925.172	9100
925.279	9142
925.387	9157
925.494	9154
925.602	9298
925.709	9195
925.816	9157
925.924	9161
926.031	9211
926.138	9135
926.245	9135
926.352	9093
926.459	9195
926.566	9272
926.673	9097
926.779	8948
926.886	8998
926.993	8864
927.099	8830
927.206	8853
927.312	8785
927.419	8895
927.525	8891
927.631	8921
927.737	8830
927.843	8743
927.95	8674
928.056	8712
928.162	8762
928.267	8853
928.373	9458
928.479	8811
928.585	8632
928.69	8781
928.796	8769
928.901	8701
929.007	8545
929.112	8766
929.218	8629
929.323	8621
929.428	8617
929.533	8712
929.638	8556
929.743	8587
929.848	8606
929.953	8552
930.058	8499
930.163	8309
930.267	8427
930.372	8552
930.477	8301
930.581	8640
930.685	8446
930.79	8244
930.894	8370
930.998	8328
931.103	8377
931.207	8115
931.311	8035
931.415	7986
931.519	7776
931.623	7818
