Data from test_V78500241_2881.txt Node
Date: Fri Mar 25 14:53:46 CST 2022
User: usil
Spectrometer: V785-0024
Trigger mode: 0
Integration Time (sec): 4.000000E-1
Scans to average: 1
Nonlinearity correction enabled: false
Boxcar width: 0
Storing dark spectrum: false
XAxis mode: Wavelengths
Number of Pixels in Spectrum: 1024
>>>>>Begin Spectral Data<<<<<
801.071	22086
801.214	21926
801.356	21713
801.499	21652
801.641	21473
801.783	21386
801.926	21348
802.068	21431
802.211	21408
802.353	21211
802.496	21024
802.638	20948
802.78	20887
802.923	20853
803.065	20762
803.208	20689
803.35	20819
803.492	20921
803.635	20834
803.777	20823
803.919	20811
804.061	21077
804.204	20880
804.346	20663
804.488	20651
804.63	20693
804.773	20621
804.915	20758
805.057	20762
805.199	20629
805.341	20750
805.483	20727
805.626	20792
805.768	20556
805.91	20689
806.052	20659
806.194	20640
806.336	20788
806.478	20674
806.62	20625
806.762	20556
806.904	20906
807.046	21123
807.188	21077
807.33	21047
807.472	20963
807.614	20948
807.756	20918
807.898	20735
808.04	20872
808.182	20853
808.324	20796
808.465	20925
808.607	20914
808.749	21039
808.891	21123
809.033	21249
809.174	21176
809.316	21013
809.458	21116
809.6	21077
809.741	21192
809.883	21077
810.025	21237
810.166	21180
810.308	21214
810.45	21150
810.591	21123
810.733	21047
810.875	20891
811.016	20872
811.158	20724
811.299	20796
811.441	20933
811.582	21005
811.724	20910
811.865	20735
812.007	20743
812.148	20792
812.29	20937
812.431	21001
812.573	21070
812.714	21321
812.855	21268
812.997	21298
813.138	21549
813.279	21348
813.421	21329
813.562	21192
813.703	21085
813.845	20952
813.986	20598
814.127	20332
814.268	20423
814.41	20381
814.551	20336
814.692	20419
814.833	20252
814.974	20263
815.115	20393
815.256	20294
815.397	20210
815.539	20122
815.68	20100
815.821	20008
815.962	20115
816.103	20134
816.244	19936
816.385	19719
816.526	19803
816.666	19609
816.807	19502
816.948	19776
817.089	19597
817.23	19540
817.371	19426
817.512	19476
817.653	19483
817.793	19453
817.934	19453
818.075	19521
818.216	19426
818.356	19422
818.497	19346
818.638	19183
818.778	19145
818.919	19202
819.06	19255
819.2	19384
819.341	19354
819.481	19422
819.622	19651
819.762	19548
819.903	19597
820.043	19506
820.184	19460
820.324	19464
820.465	19480
820.605	19407
820.746	19495
820.886	19324
821.026	19453
821.167	19400
821.307	19392
821.447	19449
821.588	19388
821.728	19240
821.868	19088
822.008	18894
822.149	18806
822.289	18863
822.429	18597
822.569	18623
822.709	18540
822.849	18395
822.99	18437
823.13	18395
823.27	18350
823.41	18106
823.55	18182
823.69	18289
823.83	18057
823.97	18110
824.11	17996
824.25	17935
824.389	17950
824.529	18053
824.669	18003
824.809	18155
824.949	18019
825.089	18007
825.228	17920
825.368	17779
825.508	17676
825.648	17695
825.787	17756
825.927	17714
826.067	17611
826.206	17661
826.346	17653
826.485	17764
826.625	17680
826.765	17923
826.904	17722
827.044	17509
827.183	17474
827.323	17463
827.462	17570
827.601	17395
827.741	17337
827.88	17429
828.02	17231
828.159	17353
828.298	17372
828.437	17505
828.577	17429
828.716	17505
828.855	17410
828.994	17200
829.134	17227
829.273	17170
829.412	17117
829.551	17037
829.69	17052
829.829	17170
829.968	17288
830.107	17204
830.246	17197
830.385	17147
830.524	17041
830.663	17010
830.802	16938
830.941	16809
831.08	16889
831.219	16949
831.357	16816
831.496	16968
831.635	16828
831.774	16793
831.913	16786
832.051	16615
832.19	16744
832.329	16706
832.467	16641
832.606	16462
832.744	16535
832.883	16516
833.022	16500
833.16	16523
833.299	16493
833.437	16622
833.576	16550
833.714	16516
833.852	16599
833.991	16554
834.129	16603
834.267	16637
834.406	16550
834.544	16538
834.682	16569
834.821	16504
834.959	16683
835.097	16489
835.235	16656
835.373	16535
835.511	16558
835.65	16360
835.788	16558
835.926	16398
836.064	16249
836.202	16192
836.34	16497
836.478	16459
836.615	16382
836.753	16493
836.891	16561
837.029	16481
837.167	16337
837.305	16455
837.443	16291
837.58	16322
837.718	16341
837.856	16367
837.993	16291
838.131	16291
838.269	16242
838.406	16257
838.544	16181
838.681	15949
838.819	15907
838.956	15812
839.094	15975
839.231	15937
839.369	15991
839.506	16211
839.643	16029
839.781	15861
839.918	15751
840.055	15880
840.193	15884
840.33	15819
840.467	15926
840.604	15850
840.742	16017
840.879	15717
841.016	15789
841.153	15705
841.29	16029
841.427	15838
841.564	15762
841.701	15983
841.838	15747
841.975	15770
842.112	15739
842.249	15747
842.385	15584
842.522	15899
842.659	15637
842.796	15660
842.933	15641
843.069	15595
843.206	15523
843.343	15736
843.479	15557
843.616	15652
843.752	15405
843.889	15389
844.025	15542
844.162	15416
844.298	15572
844.435	15477
844.571	15355
844.708	15507
844.844	15660
844.98	15587
845.117	15469
845.253	15329
845.389	15412
845.525	15313
845.661	15355
845.798	15184
845.934	15237
846.07	15188
846.206	15294
846.342	15298
846.478	15173
846.614	15017
846.75	14883
846.886	14963
847.022	15097
847.158	15077
847.294	15108
847.429	15077
847.565	14944
847.701	15245
847.837	14727
847.972	14727
848.108	14857
848.244	14777
848.379	14686
848.515	14560
848.65	14549
848.786	14537
848.921	14503
849.057	14758
849.192	14754
849.328	14693
849.463	14583
849.598	14522
849.734	14484
849.869	14484
850.004	14404
850.14	14381
850.275	14343
850.41	14343
850.545	14301
850.68	14419
850.815	14366
850.95	14370
851.085	14492
851.22	14385
851.355	14362
851.49	14343
851.625	14377
851.76	14396
851.895	14309
852.03	14195
852.165	14332
852.299	14237
852.434	14431
852.569	14400
852.703	14415
852.838	14450
852.973	14499
853.107	14393
853.242	14259
853.376	14263
853.511	14054
853.645	14138
853.78	14358
853.914	14278
854.048	14275
854.183	14275
854.317	14328
854.451	14332
854.585	14229
854.72	14271
854.854	14332
854.988	14202
855.122	14294
855.256	14096
855.39	14195
855.524	14252
855.658	14298
855.792	14210
855.926	14256
856.06	14286
856.194	14301
856.327	14202
856.461	14218
856.595	14214
856.729	14218
856.862	14385
856.996	14191
857.13	14286
857.263	14362
857.397	14351
857.53	14157
857.664	14309
857.797	14320
857.931	14396
858.064	14267
858.197	14328
858.331	14282
858.464	14161
858.597	14142
858.731	14180
858.864	14195
858.997	14111
859.13	14218
859.263	14252
859.396	14389
859.529	14138
859.662	14248
859.795	14278
859.928	14263
860.061	14438
860.194	14507
860.327	14149
860.46	14237
860.592	14374
860.725	14282
860.858	14385
860.99	14191
861.123	14119
861.256	14172
861.388	14214
861.521	14834
861.653	14183
861.786	14069
861.918	14043
862.05	14259
862.183	14202
862.315	14248
862.447	14221
862.58	14142
862.712	14001
862.844	13902
862.976	14088
863.108	14024
863.24	14442
863.372	13947
863.504	13894
863.636	14043
863.768	13955
863.9	14130
864.032	13963
864.164	13970
864.296	14001
864.428	14187
864.559	14081
864.691	14206
864.823	14035
864.954	14043
865.086	14016
865.217	13970
865.349	13833
865.48	13974
865.612	14043
865.743	14100
865.875	13978
866.006	13993
866.137	13978
866.269	14031
866.4	14024
866.531	14001
866.662	13852
866.793	13993
866.924	13982
867.055	13989
867.186	14035
867.317	13982
867.448	13803
867.579	13871
867.71	13955
867.841	13868
867.972	14012
868.103	13936
868.233	13940
868.364	13944
868.495	14069
868.625	14100
868.756	14313
868.886	14073
869.017	14164
869.147	14320
869.278	14385
869.408	14252
869.539	14218
869.669	14233
869.799	14339
869.929	14339
870.06	14244
870.19	14613
870.32	14575
870.45	14644
870.58	14571
870.71	14708
870.84	14697
870.97	14610
871.1	14640
871.23	14800
871.36	14788
871.489	14743
871.619	14838
871.749	14788
871.879	14899
872.008	14891
872.138	14826
872.267	14914
872.397	14746
872.526	14579
872.656	14655
872.785	14716
872.915	14933
873.044	14906
873.173	14842
873.303	14891
873.432	14994
873.561	14830
873.69	14918
873.819	14876
873.948	15047
874.077	14891
874.206	14781
874.335	14804
874.464	15028
874.593	15157
874.722	15077
874.851	15157
874.979	15116
875.108	15287
875.237	15218
875.365	15085
875.494	15199
875.623	15321
875.751	15256
875.88	15154
876.008	15431
876.136	15435
876.265	15625
876.393	15823
876.521	15705
876.65	15713
876.778	15595
876.906	15545
877.034	15572
877.162	15603
877.29	15542
877.418	15622
877.546	15713
877.674	15542
877.802	15644
877.93	15686
878.058	15553
878.185	15439
878.313	15511
878.441	15595
878.568	15416
878.696	15542
878.824	15686
878.951	15618
879.079	15816
879.206	15903
879.333	15751
879.461	15637
879.588	15732
879.715	15751
879.842	15918
879.97	15682
880.097	15443
880.224	15382
880.351	15401
880.478	15538
880.605	15382
880.732	15447
880.859	15709
880.986	15523
881.112	15488
881.239	15412
881.366	15226
881.493	15256
881.619	15165
881.746	15135
881.872	15169
881.999	15176
882.125	15150
882.252	15180
882.378	15165
882.505	15252
882.631	15142
882.757	14979
882.883	14990
883.01	14937
883.136	14785
883.262	14727
883.388	14758
883.514	14883
883.64	14971
883.766	14861
883.892	14834
884.018	14891
884.143	14982
884.269	15051
884.395	14701
884.52	14636
884.646	14629
884.772	14518
884.897	14552
885.023	14632
885.148	14697
885.274	14792
885.399	14735
885.524	14727
885.65	14651
885.775	14606
885.9	14613
886.025	14735
886.15	14754
886.275	14533
886.4	14606
886.525	14514
886.65	14552
886.775	14590
886.9	14777
887.025	14960
887.149	14701
887.274	14495
887.399	14549
887.523	14446
887.648	14446
887.773	14389
887.897	14518
888.021	14469
888.146	14476
888.27	14560
888.395	14583
888.519	14499
888.643	14556
888.767	14579
888.891	14377
889.015	14370
889.139	14294
889.263	14240
889.387	14339
889.511	14518
889.635	14526
889.759	14362
889.883	14244
890.006	14507
890.13	14446
890.254	14271
890.377	14336
890.501	14225
890.624	14012
890.748	14164
890.871	14058
890.995	13928
891.118	13894
891.241	14084
891.364	13989
891.488	14221
891.611	14012
891.734	14008
891.857	14119
891.98	14069
892.103	14069
892.226	14058
892.349	14092
892.471	13913
892.594	14050
892.717	14100
892.839	14020
892.962	14046
893.085	14058
893.207	13898
893.33	13875
893.452	13928
893.575	14088
893.697	14027
893.819	14259
893.941	14263
894.064	14126
894.186	14138
894.308	13967
894.43	14168
894.552	14195
894.674	14164
894.796	14008
894.918	14119
895.04	14062
895.161	14229
895.283	14107
895.405	14115
895.526	14126
895.648	14153
895.769	14153
895.891	14187
896.012	14256
896.134	14180
896.255	14267
896.376	14206
896.498	14187
896.619	14294
896.74	14229
896.861	14252
896.982	14465
897.103	14727
897.224	14503
897.345	14492
897.466	14480
897.587	14545
897.708	14606
897.828	14571
897.949	14560
898.07	14358
898.19	14446
898.311	14659
898.431	14484
898.552	14594
898.672	14720
898.792	14739
898.913	14583
899.033	14545
899.153	14347
899.273	14339
899.393	14431
899.513	14434
899.633	14465
899.753	14476
899.873	14419
899.993	14457
900.113	14473
900.232	14560
900.352	14362
900.472	14339
900.591	14252
900.711	14286
900.83	14233
900.95	14313
901.069	14415
901.189	14130
901.308	14058
901.427	13963
901.546	13959
901.665	14024
901.784	14012
901.904	13799
902.023	13780
902.141	13556
902.26	13537
902.379	13616
902.498	13578
902.617	13510
902.735	13548
902.854	13597
902.973	13453
903.091	13369
903.21	13232
903.328	13339
903.446	13293
903.565	13168
903.683	13168
903.801	13027
903.919	13069
904.038	13099
904.156	12962
904.274	13019
904.392	12894
904.51	12970
904.627	12905
904.745	13000
904.863	12947
904.981	12665
905.098	12604
905.216	12635
905.334	12658
905.451	12616
905.569	12639
905.686	12726
905.803	12696
905.921	12494
906.038	12578
906.155	12475
906.272	12319
906.389	12311
906.506	12296
906.623	12243
906.74	12213
906.857	12076
906.974	12060
907.091	12384
907.208	12403
907.324	12433
907.441	12209
907.557	12057
907.674	11901
907.79	11916
907.907	11920
908.023	11988
908.139	12041
908.256	11923
908.372	11920
908.488	11870
908.604	11741
908.72	11802
908.836	11684
908.952	11691
909.068	11783
909.184	11840
909.3	11741
909.415	11805
909.531	11684
909.647	11547
909.762	11493
909.878	11417
909.993	11570
910.108	11463
910.224	11448
910.339	11581
910.454	11376
910.57	11376
910.685	11318
910.8	11512
910.915	11524
911.03	11368
911.145	11239
911.259	11208
911.374	11239
911.489	11212
911.604	11094
911.718	10976
911.833	11006
911.947	10873
912.062	10824
912.176	10984
912.291	10953
912.405	10991
912.519	11132
912.633	11086
912.748	11102
912.862	11022
912.976	10812
913.09	10774
913.204	10843
913.318	10911
913.431	10889
913.545	10873
913.659	10965
913.772	10801
913.886	10763
914	10679
914.113	10938
914.226	10835
914.34	10748
914.453	10694
914.566	10812
914.68	10679
914.793	10672
914.906	10447
915.019	10417
915.132	10371
915.245	10432
915.358	10519
915.47	10440
915.583	10417
915.696	10516
915.809	10626
915.921	10702
916.034	10421
916.146	10390
916.259	10440
916.371	10523
916.483	10424
916.595	10325
916.708	10417
916.82	10348
916.932	10379
917.044	10417
917.156	10329
917.268	10265
917.38	10306
917.491	10348
917.603	10341
917.715	10413
917.826	10386
917.938	10318
918.049	10154
918.161	10276
918.272	10500
918.384	10344
918.495	10306
918.606	10166
918.717	10131
918.828	10230
918.939	10181
919.05	10093
919.161	10147
919.272	9983
919.383	10029
919.494	10272
919.604	10409
919.715	10196
919.826	10002
919.936	10169
920.047	10295
920.157	10234
920.267	10405
920.378	10207
920.488	10150
920.598	10424
920.708	10577
920.818	10398
920.928	10398
921.038	10561
921.148	10504
921.258	10287
921.368	10169
921.477	10093
921.587	10044
921.697	9964
921.806	10109
921.916	9968
922.025	9759
922.134	9755
922.244	9751
922.353	9819
922.462	9641
922.571	9622
922.68	9504
922.789	9477
922.898	9435
923.007	9420
923.116	9469
923.224	9416
923.333	9420
923.442	9378
923.55	9351
923.659	9348
923.767	9359
923.876	9332
923.984	9450
924.092	9222
924.201	9355
924.309	9329
924.417	9382
924.525	9291
924.633	9207
924.741	10215
924.849	9184
924.956	9310
925.064	9108
925.172	9051
925.279	8998
925.387	9150
925.494	9138
925.602	9264
925.709	9150
925.816	9013
925.924	9180
926.031	9211
926.138	9127
926.245	9165
926.352	9066
926.459	9195
926.566	9180
926.673	9058
926.779	9036
926.886	8971
926.993	8845
927.099	8891
927.206	8830
927.312	8788
927.419	8899
927.525	8838
927.631	8872
927.737	8781
927.843	8762
927.95	8629
928.056	8701
928.162	8785
928.267	8819
928.373	9447
928.479	8796
928.585	8606
928.69	8746
928.796	8773
928.901	8651
929.007	8476
929.112	8602
929.218	8651
929.323	8560
929.428	8526
929.533	8659
929.638	8518
929.743	8590
929.848	8526
929.953	8511
930.058	8427
930.163	8279
930.267	8317
930.372	8412
930.477	8317
930.581	8533
930.685	8347
930.79	8256
930.894	8267
930.998	8202
931.103	8423
931.207	8111
931.311	8050
931.415	7955
931.519	7765
931.623	7761
