Data from test_V78500241_2211.txt Node
Date: Fri Mar 25 14:49:06 CST 2022
User: usil
Spectrometer: V785-0024
Trigger mode: 0
Integration Time (sec): 4.000000E-1
Scans to average: 1
Nonlinearity correction enabled: false
Boxcar width: 0
Storing dark spectrum: false
XAxis mode: Wavelengths
Number of Pixels in Spectrum: 1024
>>>>>Begin Spectral Data<<<<<
801.071	22086
801.214	21998
801.356	21766
801.499	21785
801.641	21587
801.783	21500
801.926	21583
802.068	21447
802.211	21462
802.353	21260
802.496	21081
802.638	21104
802.78	20891
802.923	20902
803.065	20739
803.208	20811
803.35	20811
803.492	20941
803.635	21001
803.777	20910
803.919	20842
804.061	21245
804.204	20872
804.346	20838
804.488	20872
804.63	20902
804.773	20716
804.915	20872
805.057	20864
805.199	20689
805.341	20910
805.483	20941
805.626	20785
805.768	20781
805.91	20769
806.052	20739
806.194	20689
806.336	20872
806.478	20861
806.62	20670
806.762	20804
806.904	20975
807.046	21142
807.188	21093
807.33	21070
807.472	21180
807.614	21017
807.756	21051
807.898	20910
808.04	20876
808.182	20834
808.324	20891
808.465	20845
808.607	21013
808.749	21203
808.891	21291
809.033	21302
809.174	21161
809.316	21131
809.458	21165
809.6	21116
809.741	21241
809.883	21218
810.025	21306
810.166	21306
810.308	21332
810.45	21310
810.591	21233
810.733	21127
810.875	20960
811.016	20842
811.158	20811
811.299	20941
811.441	21055
811.582	21017
811.724	20918
811.865	20960
812.007	20781
812.148	20944
812.29	21093
812.431	21093
812.573	21237
812.714	21378
812.855	21458
812.997	21549
813.138	21709
813.279	21610
813.421	21420
813.562	21485
813.703	21165
813.845	20982
813.986	20883
814.127	20571
814.268	20476
814.41	20606
814.551	20415
814.692	20613
814.833	20404
814.974	20473
815.115	20533
815.256	20347
815.397	20305
815.539	20336
815.68	20157
815.821	20317
815.962	20202
816.103	20031
816.244	20046
816.385	20054
816.526	19993
816.666	19837
816.807	19639
816.948	19674
817.089	19696
817.23	19757
817.371	19620
817.512	19609
817.653	19533
817.793	19620
817.934	19594
818.075	19632
818.216	19666
818.356	19632
818.497	19426
818.638	19255
818.778	19289
818.919	19400
819.06	19377
819.2	19426
819.341	19453
819.481	19472
819.622	19704
819.762	19776
819.903	19757
820.043	19666
820.184	19655
820.324	19635
820.465	19674
820.605	19639
820.746	19468
820.886	19506
821.026	19639
821.167	19635
821.307	19525
821.447	19571
821.588	19403
821.728	19228
821.868	19038
822.008	19057
822.149	19095
822.289	18928
822.429	18829
822.569	18669
822.709	18722
822.849	18456
822.99	18429
823.13	18448
823.27	18365
823.41	18285
823.55	18251
823.69	18281
823.83	18277
823.97	18140
824.11	18125
824.25	18091
824.389	18053
824.529	18095
824.669	18095
824.809	18083
824.949	18174
825.089	18095
825.228	18053
825.368	17821
825.508	17889
825.648	17904
825.787	17840
825.927	17889
826.067	17836
826.206	17798
826.346	17882
826.485	17885
826.625	17885
826.765	17927
826.904	17855
827.044	17627
827.183	17520
827.323	17539
827.462	17630
827.601	17543
827.741	17573
827.88	17642
828.02	17364
828.159	17509
828.298	17524
828.437	17543
828.577	17520
828.716	17562
828.855	17512
828.994	17284
829.134	17239
829.273	17425
829.412	17178
829.551	17223
829.69	17235
829.829	17364
829.968	17311
830.107	17292
830.246	17273
830.385	17277
830.524	17231
830.663	17037
830.802	17033
830.941	16892
831.08	16869
831.219	16896
831.357	17048
831.496	17140
831.635	16942
831.774	16717
831.913	16683
832.051	16736
832.19	16649
832.329	16763
832.467	16573
832.606	16493
832.744	16535
832.883	16478
833.022	16592
833.16	16630
833.299	16691
833.437	16637
833.576	16683
833.714	16478
833.852	16599
833.991	16622
834.129	16592
834.267	16713
834.406	16546
834.544	16679
834.682	16630
834.821	16588
834.959	16725
835.097	16550
835.235	16702
835.373	16641
835.511	16721
835.65	16527
835.788	16538
835.926	16398
836.064	16337
836.202	16356
836.34	16573
836.478	16611
836.615	16584
836.753	16405
836.891	16546
837.029	16558
837.167	16599
837.305	16413
837.443	16451
837.58	16303
837.718	16436
837.856	16428
837.993	16325
838.131	16295
838.269	16322
838.406	16360
838.544	16303
838.681	16139
838.819	15979
838.956	15911
839.094	15979
839.231	16010
839.369	16090
839.506	16303
839.643	16101
839.781	15949
839.918	15850
840.055	15895
840.193	15842
840.33	15876
840.467	15880
840.604	15991
840.742	16177
840.879	15732
841.016	15827
841.153	15857
841.29	16055
841.427	15903
841.564	15960
841.701	15892
841.838	15899
841.975	15930
842.112	15808
842.249	15774
842.385	15595
842.522	15827
842.659	15789
842.796	15660
842.933	15755
843.069	15564
843.206	15625
843.343	15831
843.479	15663
843.616	15720
843.752	15519
843.889	15473
844.025	15682
844.162	15447
844.298	15641
844.435	15450
844.571	15428
844.708	15504
844.844	15671
844.98	15625
845.117	15633
845.253	15420
845.389	15447
845.525	15447
845.661	15363
845.798	15359
845.934	15408
846.07	15211
846.206	15348
846.342	15386
846.478	15298
846.614	15188
846.75	14994
846.886	15104
847.022	15157
847.158	15055
847.294	15135
847.429	15131
847.565	14986
847.701	15256
847.837	14781
847.972	14773
848.108	14891
848.244	14872
848.379	14777
848.515	14648
848.65	14697
848.786	14750
848.921	14750
849.057	14785
849.192	14758
849.328	14781
849.463	14735
849.598	14560
849.734	14670
849.869	14507
850.004	14415
850.14	14457
850.275	14389
850.41	14393
850.545	14374
850.68	14457
850.815	14522
850.95	14393
851.085	14625
851.22	14526
851.355	14450
851.49	14423
851.625	14351
851.76	14377
851.895	14366
852.03	14328
852.165	14457
852.299	14404
852.434	14514
852.569	14377
852.703	14469
852.838	14552
852.973	14537
853.107	14549
853.242	14396
853.376	14434
853.511	14084
853.645	14301
853.78	14400
853.914	14309
854.048	14271
854.183	14252
854.317	14317
854.451	14389
854.585	14328
854.72	14294
854.854	14358
854.988	14168
855.122	14290
855.256	14168
855.39	14237
855.524	14351
855.658	14347
855.792	14423
855.926	14317
856.06	14347
856.194	14408
856.327	14328
856.461	14214
856.595	14332
856.729	14210
856.862	14415
856.996	14180
857.13	14332
857.263	14419
857.397	14396
857.53	14282
857.664	14465
857.797	14484
857.931	14442
858.064	14286
858.197	14427
858.331	14328
858.464	14218
858.597	14248
858.731	14259
858.864	14256
858.997	14332
859.13	14248
859.263	14267
859.396	14324
859.529	14263
859.662	14278
859.795	14267
859.928	14256
860.061	14492
860.194	14446
860.327	14377
860.46	14221
860.592	14438
860.725	14454
860.858	14423
860.99	14244
861.123	14218
861.256	14252
861.388	14271
861.521	14815
861.653	14218
861.786	14271
861.918	14180
862.05	14176
862.183	14195
862.315	14305
862.447	14324
862.58	14225
862.712	14092
862.844	14024
862.976	14164
863.108	14138
863.24	14377
863.372	14058
863.504	14100
863.636	14016
863.768	14157
863.9	14119
864.032	13982
864.164	14046
864.296	14195
864.428	14119
864.559	14126
864.691	14176
864.823	14130
864.954	14084
865.086	14058
865.217	14096
865.349	13883
865.48	14012
865.612	14138
865.743	14164
865.875	14039
866.006	14069
866.137	14069
866.269	14012
866.4	14043
866.531	13906
866.662	13951
866.793	13986
866.924	14058
867.055	14050
867.186	13997
867.317	13982
867.448	13978
867.579	14054
867.71	13928
867.841	13997
867.972	14073
868.103	14005
868.233	14103
868.364	14103
868.495	14008
868.625	14313
868.756	14282
868.886	14298
869.017	14206
869.147	14419
869.278	14465
869.408	14313
869.539	14248
869.669	14408
869.799	14278
869.929	14434
870.06	14469
870.19	14659
870.32	14629
870.45	14640
870.58	14686
870.71	14830
870.84	14845
870.97	14674
871.1	14686
871.23	14834
871.36	14921
871.489	14857
871.619	14853
871.749	14948
871.879	14883
872.008	14971
872.138	14918
872.267	14925
872.397	14716
872.526	14720
872.656	14636
872.785	14807
872.915	14933
873.044	15089
873.173	14944
873.303	15005
873.432	15112
873.561	14990
873.69	14979
873.819	14944
873.948	14975
874.077	15024
874.206	14906
874.335	15013
874.464	15123
874.593	15203
874.722	15252
874.851	15389
874.979	15287
875.108	15264
875.237	15252
875.365	15252
875.494	15264
875.623	15401
875.751	15298
875.88	15329
876.008	15317
876.136	15500
876.265	15652
876.393	15800
876.521	15816
876.65	15736
876.778	15694
876.906	15603
877.034	15576
877.162	15724
877.29	15610
877.418	15709
877.546	15606
877.674	15641
877.802	15656
877.93	15644
878.058	15625
878.185	15523
878.313	15682
878.441	15766
878.568	15599
878.696	15572
878.824	15614
878.951	15846
879.079	15918
879.206	15991
879.333	15800
879.461	15724
879.588	15785
879.715	15888
879.842	16105
879.97	15850
880.097	15496
880.224	15469
880.351	15526
880.478	15530
880.605	15492
880.732	15462
880.859	15827
880.986	15549
881.112	15504
881.239	15397
881.366	15298
881.493	15180
881.619	15165
881.746	15237
881.872	15214
881.999	15180
882.125	15161
882.252	15279
882.378	15173
882.505	15291
882.631	15207
882.757	15066
882.883	15058
883.01	15131
883.136	14967
883.262	14830
883.388	14861
883.514	15047
883.64	15074
883.766	14956
883.892	14823
884.018	14925
884.143	14998
884.269	15066
884.395	14773
884.52	14667
884.646	14792
884.772	14636
884.897	14606
885.023	14743
885.148	14773
885.274	14891
885.399	14826
885.524	14648
885.65	14701
885.775	14773
885.9	14686
886.025	14842
886.15	14686
886.275	14651
886.4	14526
886.525	14708
886.65	14705
886.775	14651
886.9	14815
887.025	14933
887.149	14697
887.274	14526
887.399	14552
887.523	14366
887.648	14533
887.773	14450
887.897	14636
888.021	14686
888.146	14499
888.27	14712
888.395	14640
888.519	14625
888.643	14602
888.767	14568
888.891	14457
889.015	14495
889.139	14358
889.263	14381
889.387	14522
889.511	14590
889.635	14488
889.759	14408
889.883	14446
890.006	14533
890.13	14446
890.254	14301
890.377	14358
890.501	14263
890.624	14199
890.748	14282
890.871	14115
890.995	14024
891.118	14020
891.241	14024
891.364	14134
891.488	14107
891.611	14119
891.734	14164
891.857	14191
891.98	14123
892.103	14161
892.226	14145
892.349	14164
892.471	14020
892.594	13944
892.717	14115
892.839	14001
892.962	14088
893.085	14157
893.207	14103
893.33	14012
893.452	13921
893.575	14164
893.697	14081
893.819	14332
893.941	14313
894.064	14237
894.186	14069
894.308	14088
894.43	14252
894.552	14282
894.674	14187
894.796	14123
894.918	14157
895.04	14199
895.161	14351
895.283	14248
895.405	14225
895.526	14225
895.648	14206
895.769	14263
895.891	14252
896.012	14355
896.134	14214
896.255	14191
896.376	14202
896.498	14187
896.619	14301
896.74	14305
896.861	14400
896.982	14568
897.103	14868
897.224	14610
897.345	14602
897.466	14518
897.587	14514
897.708	14693
897.828	14602
897.949	14552
898.07	14396
898.19	14556
898.311	14667
898.431	14674
898.552	14648
898.672	14727
898.792	14625
898.913	14663
899.033	14484
899.153	14465
899.273	14332
899.393	14476
899.513	14450
899.633	14530
899.753	14533
899.873	14446
899.993	14564
900.113	14438
900.232	14499
900.352	14434
900.472	14396
900.591	14374
900.711	14377
900.83	14320
900.95	14358
901.069	14461
901.189	14332
901.308	14077
901.427	14031
901.546	14027
901.665	14157
901.784	14062
901.904	13913
902.023	13788
902.141	13681
902.26	13605
902.379	13712
902.498	13609
902.617	13693
902.735	13677
902.854	13597
902.973	13506
903.091	13251
903.21	13293
903.328	13301
903.446	13156
903.565	13114
903.683	13228
903.801	12993
903.919	13110
904.038	13110
904.156	13015
904.274	13091
904.392	12966
904.51	12894
904.627	13000
904.745	13038
904.863	13088
904.981	12677
905.098	12681
905.216	12673
905.334	12738
905.451	12692
905.569	12650
905.686	12677
905.803	12658
905.921	12475
906.038	12585
906.155	12460
906.272	12384
906.389	12426
906.506	12323
906.623	12235
906.74	12247
906.857	12060
906.974	12197
907.091	12315
907.208	12418
907.324	12243
907.441	12167
907.557	12064
907.674	12034
907.79	11954
907.907	11897
908.023	11988
908.139	12095
908.256	11935
908.372	11984
908.488	11927
908.604	11741
908.72	11817
908.836	11802
908.952	11718
909.068	11813
909.184	11870
909.3	11764
909.415	11775
909.531	11771
909.647	11573
909.762	11535
909.878	11611
909.993	11490
910.108	11592
910.224	11581
910.339	11501
910.454	11429
910.57	11429
910.685	11273
910.8	11566
910.915	11528
911.03	11421
911.145	11231
911.259	11231
911.374	11277
911.489	11242
911.604	11128
911.718	10961
911.833	11098
911.947	10831
912.062	10866
912.176	10984
912.291	10980
912.405	10999
912.519	11170
912.633	11170
912.748	11029
912.862	10984
912.976	10927
913.09	10790
913.204	10843
913.318	10820
913.431	10908
913.545	10991
913.659	10976
913.772	10820
913.886	10786
914	10797
914.113	10869
914.226	10858
914.34	10835
914.453	10672
914.566	10797
914.68	10672
914.793	10771
914.906	10500
915.019	10516
915.132	10432
915.245	10451
915.358	10538
915.47	10596
915.583	10550
915.696	10542
915.809	10660
915.921	10592
916.034	10455
916.146	10451
916.259	10367
916.371	10519
916.483	10538
916.595	10398
916.708	10459
916.82	10462
916.932	10409
917.044	10413
917.156	10310
917.268	10219
917.38	10386
917.491	10325
917.603	10318
917.715	10432
917.826	10508
917.938	10284
918.049	10211
918.161	10329
918.272	10417
918.384	10485
918.495	10413
918.606	10166
918.717	10097
918.828	10192
918.939	10192
919.05	10093
919.161	10238
919.272	10067
919.383	10010
919.494	10318
919.604	10379
919.715	10242
919.826	10120
919.936	10162
920.047	10249
920.157	10268
920.267	10455
920.378	10238
920.488	10253
920.598	10398
920.708	10641
920.818	10443
920.928	10428
921.038	10626
921.148	10550
921.258	10177
921.368	10211
921.477	10116
921.587	10067
921.697	10029
921.806	10177
921.916	9915
922.025	9831
922.134	9755
922.244	9812
922.353	9762
922.462	9663
922.571	9629
922.68	9618
922.789	9397
922.898	9492
923.007	9488
923.116	9408
923.224	9462
923.333	9504
923.442	9351
923.55	9336
923.659	9348
923.767	9469
923.876	9374
923.984	9389
924.092	9325
924.201	9431
924.309	9332
924.417	9351
924.525	9340
924.633	9294
924.741	10265
924.849	9119
924.956	9279
925.064	9135
925.172	9066
925.279	9123
925.387	9116
925.494	9161
925.602	9241
925.709	9241
925.816	9081
925.924	9184
926.031	9214
926.138	9233
926.245	9192
926.352	9047
926.459	9203
926.566	9275
926.673	9100
926.779	8998
926.886	9070
926.993	8914
927.099	8861
927.206	8811
927.312	8815
927.419	8918
927.525	8857
927.631	8815
927.737	8781
927.843	8819
927.95	8575
928.056	8716
928.162	8773
928.267	8773
928.373	9416
928.479	8830
928.585	8594
928.69	8785
928.796	8781
928.901	8678
929.007	8511
929.112	8670
929.218	8632
929.323	8469
929.428	8594
929.533	8739
929.638	8511
929.743	8476
929.848	8568
929.953	8526
930.058	8495
930.163	8317
930.267	8339
930.372	8473
930.477	8336
930.581	8617
930.685	8423
930.79	8259
930.894	8358
930.998	8237
931.103	8396
931.207	8016
931.311	8001
931.415	7925
931.519	7772
931.623	7784
