Data from test_V78500241_1339.txt Node
Date: Fri Mar 25 14:43:02 CST 2022
User: usil
Spectrometer: V785-0024
Trigger mode: 0
Integration Time (sec): 4.000000E-1
Scans to average: 1
Nonlinearity correction enabled: false
Boxcar width: 0
Storing dark spectrum: false
XAxis mode: Wavelengths
Number of Pixels in Spectrum: 1024
>>>>>Begin Spectral Data<<<<<
801.071	22432
801.214	22238
801.356	21998
801.499	22147
801.641	21827
801.783	21819
801.926	21743
802.068	21793
802.211	21663
802.353	21583
802.496	21348
802.638	21298
802.78	21226
802.923	21108
803.065	21306
803.208	21157
803.35	21188
803.492	21294
803.635	21287
803.777	21017
803.919	21180
804.061	21428
804.204	21074
804.346	21184
804.488	20941
804.63	21119
804.773	20883
804.915	21211
805.057	21161
805.199	21093
805.341	21154
805.483	21180
805.626	21157
805.768	21074
805.91	20960
806.052	21070
806.194	20914
806.336	21222
806.478	20971
806.62	20944
806.762	21222
806.904	21332
807.046	21439
807.188	21431
807.33	21401
807.472	21553
807.614	21393
807.756	21431
807.898	21313
808.04	21203
808.182	21306
808.324	21252
808.465	21382
808.607	21488
808.749	21610
808.891	21732
809.033	21789
809.174	21557
809.316	21587
809.458	21595
809.6	21454
809.741	21576
809.883	21572
810.025	21713
810.166	21732
810.308	21743
810.45	21561
810.591	21561
810.733	21412
810.875	21317
811.016	21077
811.158	21161
811.299	21294
811.441	21428
811.582	21424
811.724	21252
811.865	21138
812.007	21195
812.148	21363
812.29	21291
812.431	21408
812.573	21500
812.714	21587
812.855	21698
812.997	21854
813.138	22025
813.279	21861
813.421	21705
813.562	21671
813.703	21485
813.845	21386
813.986	21154
814.127	20887
814.268	20842
814.41	20773
814.551	20792
814.692	20861
814.833	20667
814.974	20754
815.115	20682
815.256	20613
815.397	20644
815.539	20594
815.68	20438
815.821	20320
815.962	20541
816.103	20568
816.244	20309
816.385	20286
816.526	20294
816.666	20119
816.807	19837
816.948	20069
817.089	20005
817.23	19963
817.371	19944
817.512	19818
817.653	19932
817.793	19833
817.934	19875
818.075	19986
818.216	19936
818.356	19788
818.497	19852
818.638	19552
818.778	19666
818.919	19529
819.06	19537
819.2	19757
819.341	19776
819.481	19803
819.622	19928
819.762	20073
819.903	20031
820.043	19856
820.184	19963
820.324	19791
820.465	19936
820.605	19959
820.746	19883
820.886	19731
821.026	19917
821.167	19868
821.307	19986
821.447	19921
821.588	19731
821.728	19548
821.868	19358
822.008	19339
822.149	19350
822.289	19221
822.429	19027
822.569	19004
822.709	18947
822.849	18817
822.99	18798
823.13	18764
823.27	18806
823.41	18585
823.55	18494
823.69	18639
823.83	18604
823.97	18525
824.11	18414
824.25	18251
824.389	18483
824.529	18369
824.669	18262
824.809	18570
824.949	18475
825.089	18380
825.228	18441
825.368	18106
825.508	18315
825.648	18243
825.787	18266
825.927	18243
826.067	18197
826.206	18102
826.346	18220
826.485	18129
826.625	18190
826.765	18239
826.904	18296
827.044	17916
827.183	17901
827.323	17870
827.462	17885
827.601	17878
827.741	17821
827.88	17882
828.02	17733
828.159	17870
828.298	17916
828.437	17885
828.577	17889
828.716	17954
828.855	17821
828.994	17520
829.134	17551
829.273	17619
829.412	17554
829.551	17543
829.69	17573
829.829	17615
829.968	17676
830.107	17634
830.246	17699
830.385	17551
830.524	17589
830.663	17463
830.802	17452
830.941	17231
831.08	17147
831.219	17277
831.357	17364
831.496	17417
831.635	17250
831.774	17060
831.913	17159
832.051	17113
832.19	17086
832.329	16980
832.467	16889
832.606	16850
832.744	16930
832.883	16991
833.022	16999
833.16	16927
833.299	16854
833.437	16873
833.576	16968
833.714	16923
833.852	16991
833.991	17048
834.129	17075
834.267	17022
834.406	16942
834.544	16987
834.682	16965
834.821	16911
834.959	17162
835.097	16915
835.235	17067
835.373	17056
835.511	16908
835.65	16854
835.788	16942
835.926	16740
836.064	16630
836.202	16763
836.34	16835
836.478	16972
836.615	16873
836.753	16972
836.891	16885
837.029	16911
837.167	16755
837.305	16793
837.443	16816
837.58	16831
837.718	16759
837.856	16729
837.993	16729
838.131	16759
838.269	16687
838.406	16672
838.544	16630
838.681	16382
838.819	16352
838.956	16284
839.094	16341
839.231	16375
839.369	16379
839.506	16679
839.643	16519
839.781	16196
839.918	16303
840.055	16284
840.193	16234
840.33	16200
840.467	16325
840.604	16325
840.742	16542
840.879	16074
841.016	16078
841.153	16181
841.29	16386
841.427	16325
841.564	16409
841.701	16192
841.838	16268
841.975	16226
842.112	16131
842.249	16055
842.385	15903
842.522	16253
842.659	16017
842.796	16006
842.933	16048
843.069	16086
843.206	15926
843.343	16109
843.479	15960
843.616	16067
843.752	15823
843.889	15816
844.025	15964
844.162	15743
844.298	15880
844.435	15850
844.571	15876
844.708	15941
844.844	16010
844.98	16002
845.117	15895
845.253	15918
845.389	15743
845.525	15892
845.661	15850
845.798	15823
845.934	15857
846.07	15895
846.206	15994
846.342	15987
846.478	15823
846.614	15580
846.75	15397
846.886	15351
847.022	15519
847.158	15450
847.294	15401
847.429	15507
847.565	15382
847.701	15618
847.837	15176
847.972	15013
848.108	15211
848.244	15131
848.379	15024
848.515	14998
848.65	14948
848.786	15047
848.921	14975
849.057	15085
849.192	15138
849.328	15077
849.463	14994
849.598	15005
849.734	14925
849.869	14952
850.004	14815
850.14	14815
850.275	14769
850.41	14674
850.545	14788
850.68	14754
850.815	14762
850.95	14712
851.085	14975
851.22	14861
851.355	14781
851.49	14788
851.625	14750
851.76	14796
851.895	14686
852.03	14617
852.165	14739
852.299	14769
852.434	14826
852.569	14902
852.703	14815
852.838	14750
852.973	14895
853.107	14994
853.242	14842
853.376	14617
853.511	14552
853.645	14659
853.78	14807
853.914	14667
854.048	14625
854.183	14590
854.317	14686
854.451	14800
854.585	14560
854.72	14651
854.854	14655
854.988	14640
855.122	14590
855.256	14469
855.39	14507
855.524	14777
855.658	14716
855.792	14617
855.926	14735
856.06	14686
856.194	14724
856.327	14716
856.461	14613
856.595	14560
856.729	14545
856.862	14804
856.996	14617
857.13	14735
857.263	14743
857.397	14769
857.53	14648
857.664	14743
857.797	14682
857.931	14720
858.064	14602
858.197	14785
858.331	14629
858.464	14610
858.597	14465
858.731	14693
858.864	14590
858.997	14610
859.13	14686
859.263	14602
859.396	14807
859.529	14533
859.662	14602
859.795	14602
859.928	14587
860.061	14746
860.194	14849
860.327	14720
860.46	14579
860.592	14663
860.725	14815
860.858	14727
860.99	14655
861.123	14556
861.256	14560
861.388	14708
861.521	15378
861.653	14484
861.786	14518
861.918	14514
862.05	14492
862.183	14575
862.315	14598
862.447	14701
862.58	14568
862.712	14393
862.844	14381
862.976	14484
863.108	14503
863.24	14872
863.372	14332
863.504	14381
863.636	14385
863.768	14568
863.9	14400
864.032	14313
864.164	14385
864.296	14438
864.428	14480
864.559	14549
864.691	14507
864.823	14400
864.954	14541
865.086	14431
865.217	14457
865.349	14362
865.48	14438
865.612	14400
865.743	14533
865.875	14469
866.006	14454
866.137	14503
866.269	14404
866.4	14328
866.531	14438
866.662	14332
866.793	14294
866.924	14393
867.055	14465
867.186	14313
867.317	14320
867.448	14267
867.579	14286
867.71	14183
867.841	14282
867.972	14396
868.103	14400
868.233	14469
868.364	14427
868.495	14408
868.625	14632
868.756	14705
868.886	14552
869.017	14571
869.147	14727
869.278	14705
869.408	14663
869.539	14659
869.669	14693
869.799	14629
869.929	14655
870.06	14743
870.19	14914
870.32	14876
870.45	14986
870.58	15055
870.71	15081
870.84	15218
870.97	15017
871.1	15058
871.23	15150
871.36	15195
871.489	15055
871.619	15211
871.749	15340
871.879	15230
872.008	15408
872.138	15321
872.267	15207
872.397	15005
872.526	15058
872.656	15043
872.785	15097
872.915	15211
873.044	15378
873.173	15249
873.303	15256
873.432	15226
873.561	15294
873.69	15291
873.819	15291
873.948	15367
874.077	15321
874.206	15256
874.335	15321
874.464	15507
874.593	15622
874.722	15496
874.851	15584
874.979	15595
875.108	15584
875.237	15485
875.365	15511
875.494	15507
875.623	15717
875.751	15587
875.88	15709
876.008	15736
876.136	15835
876.265	16025
876.393	16192
876.521	16105
876.65	16029
876.778	16128
876.906	16078
877.034	15979
877.162	15975
877.29	16006
877.418	16029
877.546	16032
877.674	16010
877.802	16025
877.93	15953
878.058	16082
878.185	15991
878.313	16086
878.441	15941
878.568	15880
878.696	15953
878.824	15998
878.951	16128
879.079	16284
879.206	16390
879.333	16249
879.461	16188
879.588	16303
879.715	16322
879.842	16451
879.97	16139
880.097	15895
880.224	15949
880.351	15930
880.478	15876
880.605	15876
880.732	15827
880.859	16097
880.986	15857
881.112	15854
881.239	15793
881.366	15629
881.493	15663
881.619	15492
881.746	15610
881.872	15523
881.999	15580
882.125	15515
882.252	15618
882.378	15492
882.505	15709
882.631	15481
882.757	15367
882.883	15435
883.01	15310
883.136	15336
883.262	15287
883.388	15188
883.514	15344
883.64	15507
883.766	15173
883.892	15203
884.018	15169
884.143	15298
884.269	15389
884.395	15157
884.52	15047
884.646	15036
884.772	15024
884.897	14921
885.023	15047
885.148	15161
885.274	15188
885.399	15188
885.524	15104
885.65	15001
885.775	15127
885.9	15077
886.025	15146
886.15	15062
886.275	14944
886.4	14956
886.525	15001
886.65	14986
886.775	15047
886.9	15077
887.025	15195
887.149	15028
887.274	14986
887.399	14838
887.523	14773
887.648	14891
887.773	14796
887.897	14925
888.021	14910
888.146	14739
888.27	14880
888.395	15001
888.519	14921
888.643	14941
888.767	14864
888.891	14781
889.015	14697
889.139	14731
889.263	14777
889.387	14887
889.511	14963
889.635	14872
889.759	14853
889.883	14758
890.006	14743
890.13	14963
890.254	14625
890.377	14720
890.501	14488
890.624	14522
890.748	14590
890.871	14476
890.995	14328
891.118	14214
891.241	14499
891.364	14381
891.488	14480
891.611	14385
891.734	14381
891.857	14461
891.98	14552
892.103	14438
892.226	14393
892.349	14442
892.471	14374
892.594	14282
892.717	14442
892.839	14396
892.962	14408
893.085	14454
893.207	14317
893.33	14305
893.452	14298
893.575	14514
893.697	14317
893.819	14617
893.941	14590
894.064	14644
894.186	14355
894.308	14317
894.43	14556
894.552	14629
894.674	14457
894.796	14332
894.918	14408
895.04	14454
895.161	14526
895.283	14476
895.405	14400
895.526	14537
895.648	14480
895.769	14488
895.891	14594
896.012	14632
896.134	14560
896.255	14560
896.376	14400
896.498	14564
896.619	14655
896.74	14579
896.861	14617
896.982	14815
897.103	15020
897.224	14811
897.345	14815
897.466	14792
897.587	14792
897.708	14883
897.828	14887
897.949	14777
898.07	14701
898.19	14819
898.311	14967
898.431	14754
898.552	14986
898.672	14899
898.792	14952
898.913	14891
899.033	14956
899.153	14735
899.273	14686
899.393	14758
899.513	14800
899.633	14727
899.753	14762
899.873	14773
899.993	14796
900.113	14697
900.232	14777
900.352	14754
900.472	14705
900.591	14598
900.711	14758
900.83	14526
900.95	14727
901.069	14750
901.189	14568
901.308	14400
901.427	14309
901.546	14248
901.665	14286
901.784	14301
901.904	14191
902.023	14054
902.141	13852
902.26	13837
902.379	13967
902.498	13875
902.617	13791
902.735	13982
902.854	13917
902.973	13803
903.091	13578
903.21	13518
903.328	13632
903.446	13525
903.565	13426
903.683	13430
903.801	13369
903.919	13381
904.038	13419
904.156	13266
904.274	13266
904.392	13228
904.51	13244
904.627	13194
904.745	13228
904.863	13354
904.981	13061
905.098	12985
905.216	12932
905.334	13000
905.451	12951
905.569	12882
905.686	12981
905.803	12951
905.921	12665
906.038	12848
906.155	12719
906.272	12616
906.389	12707
906.506	12521
906.623	12532
906.74	12460
906.857	12243
906.974	12410
907.091	12437
907.208	12688
907.324	12521
907.441	12391
907.557	12258
907.674	12258
907.79	12190
907.907	12266
908.023	12243
908.139	12247
908.256	12129
908.372	12125
908.488	12152
908.604	11977
908.72	11901
908.836	12072
908.952	11992
909.068	12068
909.184	12114
909.3	12045
909.415	12060
909.531	11973
909.647	11790
909.762	11752
909.878	11764
909.993	11817
910.108	11764
910.224	11707
910.339	11798
910.454	11726
910.57	11672
910.685	11524
910.8	11893
910.915	11745
911.03	11665
911.145	11562
911.259	11577
911.374	11558
911.489	11402
911.604	11318
911.718	11269
911.833	11269
911.947	11155
912.062	11033
912.176	11201
912.291	11159
912.405	11212
912.519	11478
912.633	11436
912.748	11261
912.862	11296
912.976	11098
913.09	10995
913.204	10976
913.318	11143
913.431	11216
913.545	11216
913.659	11239
913.772	11124
913.886	11037
914	10984
914.113	11086
914.226	11067
914.34	11010
914.453	10934
914.566	11052
914.68	10915
914.793	10904
914.906	10694
915.019	10729
915.132	10611
915.245	10637
915.358	10759
915.47	10725
915.583	10733
915.696	10744
915.809	10892
915.921	10847
916.034	10717
916.146	10683
916.259	10668
916.371	10778
916.483	10816
916.595	10645
916.708	10729
916.82	10603
916.932	10599
917.044	10740
917.156	10630
917.268	10512
917.38	10611
917.491	10538
917.603	10466
917.715	10630
917.826	10626
917.938	10493
918.049	10447
918.161	10561
918.272	10634
918.384	10622
918.495	10603
918.606	10356
918.717	10352
918.828	10470
918.939	10474
919.05	10329
919.161	10329
919.272	10215
919.383	10341
919.494	10417
919.604	10660
919.715	10436
919.826	10398
919.936	10375
920.047	10455
920.157	10474
920.267	10607
920.378	10489
920.488	10341
920.598	10649
920.708	10717
920.818	10558
920.928	10577
921.038	10748
921.148	10790
921.258	10493
921.368	10409
921.477	10356
921.587	10257
921.697	10150
921.806	10337
921.916	10162
922.025	10059
922.134	9991
922.244	9926
922.353	10010
922.462	9857
922.571	9797
922.68	9671
922.789	9625
922.898	9694
923.007	9572
923.116	9641
923.224	9599
923.333	9576
923.442	9553
923.55	9542
923.659	9526
923.767	9591
923.876	9534
923.984	9538
924.092	9485
924.201	9519
924.309	9496
924.417	9538
924.525	9420
924.633	9504
924.741	10421
924.849	9222
924.956	9397
925.064	9275
925.172	9302
925.279	9218
925.387	9393
925.494	9291
925.602	9443
925.709	9336
925.816	9211
925.924	9302
926.031	9393
926.138	9344
926.245	9405
926.352	9226
926.459	9393
926.566	9401
926.673	9298
926.779	9176
926.886	9180
926.993	9047
927.099	9062
927.206	8918
927.312	8941
927.419	9093
927.525	9001
927.631	9081
927.737	8979
927.843	8956
927.95	8769
928.056	8902
928.162	8899
928.267	8960
928.373	9549
928.479	8918
928.585	8727
928.69	8880
928.796	8910
928.901	8853
929.007	8735
929.112	8796
929.218	8807
929.323	8682
929.428	8716
929.533	8807
929.638	8735
929.743	8682
929.848	8815
929.953	8724
930.058	8621
930.163	8465
930.267	8560
930.372	8625
930.477	8438
930.581	8769
930.685	8602
930.79	8404
930.894	8431
930.998	8427
931.103	8541
931.207	8180
931.311	8130
931.415	8088
931.519	7940
931.623	7864
