Data from test_V78500241_75.txt Node
Date: Fri Mar 25 14:34:14 CST 2022
User: usil
Spectrometer: V785-0024
Trigger mode: 0
Integration Time (sec): 4.000000E-1
Scans to average: 1
Nonlinearity correction enabled: false
Boxcar width: 0
Storing dark spectrum: false
XAxis mode: Wavelengths
Number of Pixels in Spectrum: 1024
>>>>>Begin Spectral Data<<<<<
801.071	28930
801.214	28930
801.356	28736
801.499	28603
801.641	28554
801.783	28538
801.926	28398
802.068	28390
802.211	28223
802.353	28215
802.496	28131
802.638	28044
802.78	28112
802.923	28051
803.065	27930
803.208	28013
803.35	28055
803.492	27960
803.635	28261
803.777	27953
803.919	28131
804.061	28303
804.204	28188
804.346	28074
804.488	28013
804.63	28006
804.773	27979
804.915	28025
805.057	28078
805.199	28097
805.341	28112
805.483	28082
805.626	28112
805.768	27998
805.91	28166
806.052	28048
806.194	28143
806.336	28284
806.478	28173
806.62	28067
806.762	28097
806.904	28443
807.046	28561
807.188	28565
807.33	28421
807.472	28569
807.614	28360
807.756	28356
807.898	28367
808.04	28287
808.182	28325
808.324	28318
808.465	28375
808.607	28519
808.749	28577
808.891	28569
809.033	28668
809.174	28828
809.316	28569
809.458	28607
809.6	28489
809.741	28634
809.883	28771
810.025	28968
810.166	28972
810.308	28877
810.45	28835
810.591	28778
810.733	28687
810.875	28474
811.016	28542
811.158	28443
811.299	28577
811.441	28755
811.582	28664
811.724	28584
811.865	28523
812.007	28466
812.148	28573
812.29	28611
812.431	28790
812.573	28843
812.714	29060
812.855	28953
812.997	29220
813.138	29318
813.279	29200
813.421	29212
813.562	28919
813.703	28968
813.845	28660
813.986	28432
814.127	28348
814.268	28265
814.41	28211
814.551	28238
814.692	28211
814.833	28135
814.974	28055
815.115	28086
815.256	27914
815.397	28040
815.539	27983
815.68	27747
815.821	27895
815.962	27922
816.103	27800
816.244	27656
816.385	27622
816.526	27587
816.666	27473
816.807	27252
816.948	27310
817.089	27344
817.23	27298
817.371	27180
817.512	27146
817.653	27195
817.793	27146
817.934	27077
818.075	27401
818.216	27302
818.356	27260
818.497	26944
818.638	26902
818.778	26956
818.919	26971
819.06	27089
819.2	27093
819.341	27123
819.481	27195
819.622	27416
819.762	27507
819.903	27363
820.043	27424
820.184	27310
820.324	27264
820.465	27397
820.605	27199
820.746	27310
820.886	27173
821.026	27237
821.167	27131
821.307	27279
821.447	27146
821.588	26899
821.728	26819
821.868	26777
822.008	26629
822.149	26545
822.289	26541
822.429	26244
822.569	26252
822.709	26305
822.849	26046
822.99	26008
823.13	25856
823.27	26024
823.41	25719
823.55	25674
823.69	25830
823.83	25807
823.97	25750
824.11	25552
824.25	25597
824.389	25605
824.529	25674
824.669	25578
824.809	25635
824.949	25624
825.089	25567
825.228	25620
825.368	25396
825.508	25301
825.648	25324
825.787	25278
825.927	25392
826.067	25479
826.206	25297
826.346	25358
826.485	25499
826.625	25297
826.765	25316
826.904	25384
827.044	25034
827.183	25160
827.323	24996
827.462	25137
827.601	24947
827.741	24833
827.88	24981
828.02	24810
828.159	24897
828.298	25012
828.437	25050
828.577	24905
828.716	25027
828.855	24776
828.994	24700
829.134	24601
829.273	24582
829.412	24559
829.551	24578
829.69	24722
829.829	24715
829.968	24696
830.107	24684
830.246	24525
830.385	24635
830.524	24597
830.663	24498
830.802	24369
830.941	24334
831.08	24228
831.219	24361
831.357	24338
831.496	24433
831.635	24182
831.774	24159
831.913	24049
832.051	23893
832.19	23950
832.329	23984
832.467	23916
832.606	23885
832.744	23817
832.883	23889
833.022	23729
833.16	23748
833.299	23942
833.437	23828
833.576	23840
833.714	23912
833.852	23912
833.991	23931
834.129	23927
834.267	23954
834.406	23767
834.544	23893
834.682	23851
834.821	23821
834.959	24045
835.097	23882
835.235	23916
835.373	23771
835.511	23817
835.65	23729
835.788	23695
835.926	23493
836.064	23604
836.202	23623
836.34	23661
836.478	23726
836.615	23718
836.753	23710
836.891	23764
837.029	23687
837.167	23661
837.305	23657
837.443	23531
837.58	23474
837.718	23585
837.856	23463
837.993	23455
838.131	23379
838.269	23452
838.406	23402
838.544	23277
838.681	23223
838.819	23067
838.956	23044
839.094	22843
839.231	22995
839.369	23162
839.506	23223
839.643	23189
839.781	22797
839.918	22858
840.055	22862
840.193	22782
840.33	22801
840.467	22908
840.604	22793
840.742	23102
840.879	22626
841.016	22710
841.153	22542
841.29	22908
841.427	22615
841.564	22748
841.701	22733
841.838	22786
841.975	22588
842.112	22584
842.249	22481
842.385	22405
842.522	22573
842.659	22542
842.796	22485
842.933	22421
843.069	22413
843.206	22367
843.343	22478
843.479	22493
843.616	22516
843.752	22242
843.889	22310
844.025	22363
844.162	22200
844.298	22253
844.435	22238
844.571	22207
844.708	22265
844.844	22257
844.98	22284
845.117	22379
845.253	22234
845.389	22021
845.525	22166
845.661	21960
845.798	22051
845.934	21850
846.07	21800
846.206	21869
846.342	22067
846.478	21907
846.614	21720
846.75	21694
846.886	21618
847.022	21614
847.158	21656
847.294	21705
847.429	21564
847.565	21447
847.701	21953
847.837	21275
847.972	21272
848.108	21408
848.244	21329
848.379	21096
848.515	21233
848.65	21062
848.786	21119
848.921	21093
849.057	21310
849.192	21241
849.328	21291
849.463	21135
849.598	21173
849.734	21043
849.869	20914
850.004	20826
850.14	20918
850.275	20868
850.41	20845
850.545	20921
850.68	20921
850.815	20948
850.95	20693
851.085	20956
851.22	20941
851.355	20887
851.49	20830
851.625	20682
851.76	20902
851.895	20644
852.03	20849
852.165	20876
852.299	20899
852.434	20944
852.569	20948
852.703	20845
852.838	20948
852.973	20929
853.107	21028
853.242	20826
853.376	20651
853.511	20644
853.645	20632
853.78	20788
853.914	20746
854.048	20625
854.183	20640
854.317	20644
854.451	20853
854.585	20648
854.72	20625
854.854	20735
854.988	20617
855.122	20792
855.256	20541
855.39	20629
855.524	20735
855.658	20602
855.792	20598
855.926	20712
856.06	20613
856.194	20804
856.327	20663
856.461	20518
856.595	20697
856.729	20686
856.862	20788
856.996	20712
857.13	20590
857.263	20788
857.397	20773
857.53	20545
857.664	20693
857.797	20609
857.931	20701
858.064	20697
858.197	20708
858.331	20640
858.464	20560
858.597	20476
858.731	20629
858.864	20568
858.997	20434
859.13	20590
859.263	20583
859.396	20724
859.529	20663
859.662	20503
859.795	20552
859.928	20689
860.061	20823
860.194	20689
860.327	20568
860.46	20499
860.592	20629
860.725	20659
860.858	20750
860.99	20518
861.123	20511
861.256	20408
861.388	20351
861.521	21142
861.653	20533
861.786	20400
861.918	20457
862.05	20533
862.183	20682
862.315	20590
862.447	20769
862.58	20697
862.712	20412
862.844	20290
862.976	20298
863.108	20499
863.24	20590
863.372	20218
863.504	20347
863.636	20240
863.768	20240
863.9	20221
864.032	20218
864.164	20187
864.296	20233
864.428	20343
864.559	20244
864.691	20286
864.823	20404
864.954	20161
865.086	20259
865.217	20240
865.349	20111
865.48	20164
865.612	20103
865.743	20195
865.875	20248
866.006	20218
866.137	20214
866.269	20180
866.4	20134
866.531	20149
866.662	20062
866.793	20092
866.924	20111
867.055	20092
867.186	20195
867.317	20077
867.448	20142
867.579	20050
867.71	19940
867.841	20012
867.972	20286
868.103	20081
868.233	20035
868.364	20069
868.495	20244
868.625	20244
868.756	20259
868.886	20336
869.017	20317
869.147	20419
869.278	20438
869.408	20343
869.539	20332
869.669	20400
869.799	20396
869.929	20419
870.06	20370
870.19	20613
870.32	20587
870.45	20629
870.58	20632
870.71	20823
870.84	20773
870.97	20724
871.1	20804
871.23	20826
871.36	21009
871.489	20899
871.619	20895
871.749	20937
871.879	20880
872.008	20994
872.138	20918
872.267	20967
872.397	20758
872.526	20708
872.656	20842
872.785	20731
872.915	20781
873.044	21112
873.173	20956
873.303	21055
873.432	21032
873.561	21051
873.69	21020
873.819	20948
873.948	21100
874.077	20952
874.206	20845
874.335	20952
874.464	21085
874.593	21249
874.722	21161
874.851	21176
874.979	21252
875.108	21264
875.237	21150
875.365	21176
875.494	21116
875.623	21226
875.751	21135
875.88	21283
876.008	21272
876.136	21386
876.265	21545
876.393	21713
876.521	21606
876.65	21625
876.778	21557
876.906	21542
877.034	21530
877.162	21698
877.29	21511
877.418	21679
877.546	21431
877.674	21458
877.802	21488
877.93	21591
878.058	21561
878.185	21420
878.313	21515
878.441	21523
878.568	21370
878.696	21454
878.824	21545
878.951	21713
879.079	21641
879.206	21743
879.333	21625
879.461	21587
879.588	21717
879.715	21637
879.842	21717
879.97	21564
880.097	21450
880.224	21321
880.351	21359
880.478	21519
880.605	21321
880.732	21420
880.859	21519
880.986	21496
881.112	21469
881.239	21283
881.366	21203
881.493	21089
881.619	20910
881.746	21017
881.872	20914
881.999	20864
882.125	20895
882.252	21013
882.378	20891
882.505	21028
882.631	20899
882.757	20674
882.883	20861
883.01	20648
883.136	20727
883.262	20514
883.388	20533
883.514	20765
883.64	20781
883.766	20632
883.892	20499
884.018	20419
884.143	20613
884.269	20746
884.395	20438
884.52	20336
884.646	20301
884.772	20298
884.897	20294
885.023	20389
885.148	20423
885.274	20499
885.399	20454
885.524	20461
885.65	20286
885.775	20282
885.9	20301
886.025	20408
886.15	20415
886.275	20305
886.4	20195
886.525	20202
886.65	20164
886.775	20313
886.9	20370
887.025	20526
887.149	20271
887.274	20126
887.399	20031
887.523	20062
887.648	20073
887.773	19902
887.897	20183
888.021	20012
888.146	19963
888.27	20294
888.395	20278
888.519	20164
888.643	20103
888.767	20180
888.891	19982
889.015	19856
889.139	19963
889.263	19734
889.387	19928
889.511	20024
889.635	20001
889.759	19925
889.883	19917
890.006	19868
890.13	19822
890.254	19822
890.377	19731
890.501	19578
890.624	19609
890.748	19700
890.871	19506
890.995	19563
891.118	19400
891.241	19491
891.364	19533
891.488	19628
891.611	19495
891.734	19480
891.857	19453
891.98	19460
892.103	19514
892.226	19495
892.349	19578
892.471	19327
892.594	19400
892.717	19350
892.839	19373
892.962	19377
893.085	19563
893.207	19384
893.33	19308
893.452	19335
893.575	19392
893.697	19384
893.819	19499
893.941	19662
894.064	19430
894.186	19343
894.308	19282
894.43	19476
894.552	19559
894.674	19499
894.796	19095
894.918	19392
895.04	19335
895.161	19285
895.283	19373
895.405	19266
895.526	19350
895.648	19339
895.769	19400
895.891	19449
896.012	19426
896.134	19441
896.255	19506
896.376	19381
896.498	19373
896.619	19464
896.74	19460
896.861	19392
896.982	19731
897.103	19947
897.224	19845
897.345	19689
897.466	19567
897.587	19639
897.708	19769
897.828	19639
897.949	19556
898.07	19502
898.19	19609
898.311	19795
898.431	19609
898.552	19605
898.672	19776
898.792	19712
898.913	19677
899.033	19597
899.153	19411
899.273	19259
899.393	19354
899.513	19312
899.633	19270
899.753	19502
899.873	19327
899.993	19460
900.113	19381
900.232	19396
900.352	19339
900.472	19209
900.591	19084
900.711	19293
900.83	19110
900.95	19308
901.069	19354
901.189	19061
901.308	18894
901.427	18833
901.546	18848
901.665	18814
901.784	18715
901.904	18745
902.023	18642
902.141	18403
902.26	18334
902.379	18467
902.498	18300
902.617	18327
902.735	18232
902.854	18289
902.973	18205
903.091	17977
903.21	17840
903.328	17931
903.446	17855
903.565	17847
903.683	17748
903.801	17737
903.919	17767
904.038	17642
904.156	17562
904.274	17581
904.392	17535
904.51	17509
904.627	17482
904.745	17532
904.863	17596
904.981	17337
905.098	17254
905.216	17181
905.334	17242
905.451	17223
905.569	17162
905.686	17235
905.803	17124
905.921	17010
906.038	17003
906.155	16900
906.272	16869
906.389	16862
906.506	16599
906.623	16675
906.74	16599
906.857	16546
906.974	16561
907.091	16710
907.208	16801
907.324	16725
907.441	16596
907.557	16428
907.674	16386
907.79	16371
907.907	16333
908.023	16417
908.139	16375
908.256	16329
908.372	16268
908.488	16211
908.604	16025
908.72	16017
908.836	16055
908.952	16013
909.068	16169
909.184	16120
909.3	15880
909.415	16036
909.531	16021
909.647	15724
909.762	15709
909.878	15717
909.993	15709
910.108	15709
910.224	15682
910.339	15644
910.454	15572
910.57	15515
910.685	15454
910.8	15880
910.915	15671
911.03	15580
911.145	15408
911.259	15275
911.374	15256
911.489	15359
911.604	15180
911.718	15108
911.833	15058
911.947	14994
912.062	14891
912.176	15119
912.291	15077
912.405	15024
912.519	15218
912.633	15108
912.748	15112
912.862	15032
912.976	14796
913.09	14773
913.204	14807
913.318	14849
913.431	14941
913.545	15020
913.659	14933
913.772	14785
913.886	14800
914	14712
914.113	14830
914.226	14834
914.34	14769
914.453	14602
914.566	14762
914.68	14598
914.793	14587
914.906	14457
915.019	14339
915.132	14332
915.245	14294
915.358	14347
915.47	14358
915.583	14355
915.696	14309
915.809	14511
915.921	14488
916.034	14271
916.146	14240
916.259	14259
916.371	14347
916.483	14229
916.595	14100
916.708	14168
916.82	14210
916.932	14115
917.044	14183
917.156	13993
917.268	14043
917.38	14008
917.491	14027
917.603	13974
917.715	13978
917.826	14096
917.938	13989
918.049	13826
918.161	13963
918.272	14111
918.384	14100
918.495	13845
918.606	13875
918.717	13731
918.828	13845
918.939	13780
919.05	13613
919.161	13772
919.272	13567
919.383	13662
919.494	13772
919.604	14073
919.715	13689
919.826	13624
919.936	13666
920.047	13723
920.157	13731
920.267	13887
920.378	13712
920.488	13609
920.598	13887
920.708	14043
920.818	13830
920.928	13864
921.038	14065
921.148	13925
921.258	13628
921.368	13506
921.477	13582
921.587	13400
921.697	13278
921.806	13491
921.916	13289
922.025	13133
922.134	13012
922.244	13027
922.353	13118
922.462	12958
922.571	12970
922.68	12814
922.789	12776
922.898	12787
923.007	12677
923.116	12696
923.224	12760
923.333	12726
923.442	12555
923.55	12635
923.659	12635
923.767	12631
923.876	12528
923.984	12570
924.092	12544
924.201	12475
924.309	12509
924.417	12456
924.525	12475
924.633	12502
924.741	13183
924.849	12190
924.956	12414
925.064	12273
925.172	12186
925.279	12129
925.387	12213
925.494	12178
925.602	12353
925.709	12281
925.816	12136
925.924	12171
926.031	12254
926.138	12201
926.245	12121
926.352	12098
926.459	12148
926.566	12258
926.673	12079
926.779	11935
926.886	11992
926.993	11843
927.099	11817
927.206	11733
927.312	11752
927.419	11790
927.525	11863
927.631	11790
927.737	11722
927.843	11703
927.95	11528
928.056	11608
928.162	11741
928.267	11623
928.373	12178
928.479	11642
928.585	11448
928.69	11634
928.796	11611
928.901	11486
929.007	11311
929.112	11512
929.218	11356
929.323	11341
929.428	11273
929.533	11539
929.638	11318
929.743	11239
929.848	11395
929.953	11288
930.058	11193
930.163	11025
930.267	11102
930.372	11208
930.477	10968
930.581	11277
930.685	11102
930.79	10980
930.894	10999
930.998	10881
931.103	11094
931.207	10683
931.311	10694
931.415	10535
931.519	10367
931.623	10382
