Data from test_V78500241_865.txt Node
Date: Fri Mar 25 14:39:44 CST 2022
User: usil
Spectrometer: V785-0024
Trigger mode: 0
Integration Time (sec): 4.000000E-1
Scans to average: 1
Nonlinearity correction enabled: false
Boxcar width: 0
Storing dark spectrum: false
XAxis mode: Wavelengths
Number of Pixels in Spectrum: 1024
>>>>>Begin Spectral Data<<<<<
801.071	25841
801.214	25708
801.356	25301
801.499	25209
801.641	25019
801.783	25012
801.926	25042
802.068	25015
802.211	24814
802.353	24779
802.496	24646
802.638	24540
802.78	24452
802.923	24513
803.065	24380
803.208	24441
803.35	24346
803.492	24521
803.635	24505
803.777	24445
803.919	24570
804.061	24837
804.204	24540
804.346	24559
804.488	24460
804.63	24616
804.773	24327
804.915	24441
805.057	24711
805.199	24502
805.341	24791
805.483	24829
805.626	24840
805.768	24608
805.91	24901
806.052	24817
806.194	24840
806.336	25057
806.478	24996
806.62	25069
806.762	25266
806.904	25449
807.046	25856
807.188	25947
807.33	26084
807.472	26374
807.614	26724
807.756	27108
807.898	27473
808.04	28051
808.182	28965
808.324	29958
808.465	31217
808.607	32727
808.749	33949
808.891	34694
809.033	34706
809.174	33892
809.316	32640
809.458	31362
809.6	29794
809.741	28862
809.883	28025
810.025	27492
810.166	27005
810.308	26648
810.45	26332
810.591	26084
810.733	25757
810.875	25445
811.016	25381
811.158	25244
811.299	25392
811.441	25259
811.582	25183
811.724	25004
811.865	24977
812.007	25095
812.148	25012
812.29	25015
812.431	25133
812.573	25126
812.714	25263
812.855	25251
812.997	25415
813.138	25449
813.279	25434
813.421	25308
813.562	25221
813.703	25110
813.845	24932
813.986	24650
814.127	24471
814.268	24300
814.41	24194
814.551	24190
814.692	24224
814.833	24106
814.974	24155
815.115	24205
815.256	23923
815.397	24064
815.539	24022
815.68	23996
815.821	23779
815.962	23893
816.103	23847
816.244	23733
816.385	23646
816.526	23554
816.666	23383
816.807	23132
816.948	23318
817.089	23452
817.23	23250
817.371	23227
817.512	23436
817.653	23307
817.793	23121
817.934	23193
818.075	23284
818.216	23231
818.356	23151
818.497	22953
818.638	22885
818.778	22805
818.919	22919
819.06	22949
819.2	22942
819.341	23124
819.481	23060
819.622	23166
819.762	23307
819.903	23239
820.043	23162
820.184	23044
820.324	23155
820.465	23200
820.605	23151
820.746	23041
820.886	22900
821.026	23109
821.167	22919
821.307	23071
821.447	23010
821.588	22790
821.728	22820
821.868	22577
822.008	22478
822.149	22348
822.289	22417
822.429	22128
822.569	22150
822.709	22051
822.849	21922
822.99	21800
823.13	21918
823.27	21831
823.41	21675
823.55	21515
823.69	21720
823.83	21599
823.97	21629
824.11	21393
824.25	21264
824.389	21443
824.529	21424
824.669	21401
824.809	21507
824.949	21549
825.089	21545
825.228	21473
825.368	21294
825.508	21184
825.648	21302
825.787	21332
825.927	21298
826.067	21207
826.206	21192
826.346	21218
826.485	21279
826.625	21142
826.765	21245
826.904	21241
827.044	20883
827.183	20963
827.323	20918
827.462	20914
827.601	20967
827.741	20868
827.88	20815
828.02	20693
828.159	20815
828.298	20883
828.437	20899
828.577	20845
828.716	20933
828.855	20853
828.994	20492
829.134	20526
829.273	20583
829.412	20537
829.551	20332
829.69	20465
829.829	20579
829.968	20583
830.107	20598
830.246	20503
830.385	20366
830.524	20434
830.663	20358
830.802	20229
830.941	20168
831.08	20107
831.219	20282
831.357	20252
831.496	20301
831.635	20119
831.774	20001
831.913	20016
832.051	19974
832.19	19913
832.329	20046
832.467	19959
832.606	19940
832.744	19868
832.883	19799
833.022	19944
833.16	20001
833.299	20024
833.437	20027
833.576	20202
833.714	20259
833.852	20275
833.991	20370
834.129	20358
834.267	20454
834.406	20282
834.544	20195
834.682	20210
834.821	20301
834.959	20267
835.097	20020
835.235	20107
835.373	20031
835.511	20065
835.65	19887
835.788	19814
835.926	19506
836.064	19559
836.202	19540
836.34	19700
836.478	19772
836.615	19624
836.753	19662
836.891	19689
837.029	19780
837.167	19624
837.305	19628
837.443	19548
837.58	19521
837.718	19533
837.856	19601
837.993	19499
838.131	19464
838.269	19419
838.406	19453
838.544	19331
838.681	19190
838.819	19076
838.956	19065
839.094	18973
839.231	18985
839.369	19008
839.506	19320
839.643	19202
839.781	19088
839.918	18973
840.055	19042
840.193	18878
840.33	18958
840.467	18867
840.604	18924
840.742	19110
840.879	18726
841.016	18810
841.153	18852
841.29	19050
841.427	18913
841.564	18928
841.701	18901
841.838	18768
841.975	18901
842.112	18897
842.249	18677
842.385	18741
842.522	18875
842.659	18722
842.796	18707
842.933	18677
843.069	18646
843.206	18658
843.343	18730
843.479	18715
843.616	18817
843.752	18563
843.889	18566
844.025	18840
844.162	18665
844.298	18783
844.435	18654
844.571	18776
844.708	18924
844.844	19141
844.98	19354
845.117	19453
845.253	19788
845.389	20507
845.525	21785
845.661	24060
845.798	26769
845.934	29128
846.07	30133
846.206	29687
846.342	28097
846.478	25126
846.614	22565
846.75	20891
846.886	19845
847.022	19358
847.158	18764
847.294	18578
847.429	18445
847.565	18285
847.701	18509
847.837	17923
847.972	17767
848.108	17969
848.244	17950
848.379	17737
848.515	17665
848.65	17684
848.786	17699
848.921	17687
849.057	17714
849.192	17707
849.328	17604
849.463	17592
849.598	17630
849.734	17474
849.869	17410
850.004	17311
850.14	17520
850.275	17341
850.41	17193
850.545	17299
850.68	17322
850.815	17299
850.95	17395
851.085	17455
851.22	17368
851.355	17288
851.49	17239
851.625	17178
851.76	17216
851.895	17185
852.03	17170
852.165	17193
852.299	17284
852.434	17322
852.569	17337
852.703	17220
852.838	17368
852.973	17402
853.107	17459
853.242	17280
853.376	17364
853.511	17155
853.645	17155
853.78	17277
853.914	17303
854.048	17269
854.183	17254
854.317	17299
854.451	17417
854.585	17277
854.72	17258
854.854	17326
854.988	17220
855.122	17140
855.256	17079
855.39	17159
855.524	17216
855.658	17296
855.792	17204
855.926	17307
856.06	17242
856.194	17231
856.327	17102
856.461	17041
856.595	16984
856.729	17022
856.862	17193
856.996	17136
857.13	17193
857.263	17284
857.397	17227
857.53	17067
857.664	17265
857.797	17143
857.931	17250
858.064	17071
858.197	17216
858.331	17109
858.464	17083
858.597	16942
858.731	16999
858.864	17033
858.997	17090
859.13	17048
859.263	17083
859.396	17052
859.529	17060
859.662	16980
859.795	17033
859.928	17105
860.061	17239
860.194	17284
860.327	17029
860.46	16987
860.592	17067
860.725	17170
860.858	17147
860.99	16949
861.123	16968
861.256	16972
861.388	16946
861.521	17596
861.653	16828
861.786	16839
861.918	16968
862.05	16873
862.183	16938
862.315	17128
862.447	17025
862.58	16976
862.712	16729
862.844	16664
862.976	16809
863.108	16869
863.24	17098
863.372	16809
863.504	16740
863.636	16733
863.768	16706
863.9	16713
864.032	16656
864.164	16725
864.296	16675
864.428	16828
864.559	16786
864.691	16778
864.823	16812
864.954	16733
865.086	16869
865.217	16759
865.349	16698
865.48	16736
865.612	16691
865.743	16892
865.875	16713
866.006	16687
866.137	16713
866.269	16752
866.4	16683
866.531	16599
866.662	16630
866.793	16630
866.924	16584
867.055	16637
867.186	16736
867.317	16645
867.448	16675
867.579	16573
867.71	16577
867.841	16554
867.972	16691
868.103	16618
868.233	16656
868.364	16622
868.495	16889
868.625	16820
868.756	17003
868.886	16835
869.017	16957
869.147	17064
869.278	17071
869.408	16984
869.539	16873
869.669	17056
869.799	17041
869.929	17151
870.06	17067
870.19	17261
870.32	17143
870.45	17307
870.58	17284
870.71	17455
870.84	17482
870.97	17280
871.1	17376
871.23	17528
871.36	17501
871.489	17410
871.619	17649
871.749	17547
871.879	17566
872.008	17668
872.138	17657
872.267	17573
872.397	17395
872.526	17303
872.656	17395
872.785	17421
872.915	17642
873.044	17699
873.173	17672
873.303	17691
873.432	17714
873.561	17646
873.69	17760
873.819	17752
873.948	17764
874.077	17680
874.206	17767
874.335	17745
874.464	17851
874.593	17923
874.722	17920
874.851	17961
874.979	18155
875.108	18106
875.237	18136
875.365	18102
875.494	18049
875.623	18205
875.751	18197
875.88	18155
876.008	18338
876.136	18391
876.265	18700
876.393	18886
876.521	18779
876.65	18840
876.778	18734
876.906	18665
877.034	18700
877.162	18833
877.29	18757
877.418	18783
877.546	18833
877.674	18890
877.802	18943
877.93	18962
878.058	19076
878.185	19190
878.313	19407
878.441	19434
878.568	19365
878.696	19750
878.824	20206
878.951	20693
879.079	21268
879.206	22230
879.333	23162
879.461	23824
879.588	24220
879.715	24254
879.842	24060
879.97	23185
880.097	22063
880.224	21279
880.351	20849
880.478	20492
880.605	20263
880.732	19932
880.859	20115
880.986	19932
881.112	19894
881.239	19769
881.366	19518
881.493	19487
881.619	19540
881.746	19499
881.872	19426
881.999	19441
882.125	19460
882.252	19525
882.378	19460
882.505	19780
882.631	19514
882.757	19316
882.883	19586
883.01	19453
883.136	19327
883.262	19308
883.388	19217
883.514	19419
883.64	19369
883.766	19225
883.892	19278
884.018	19152
884.143	19400
884.269	19457
884.395	19168
884.52	19141
884.646	19042
884.772	18913
884.897	18886
885.023	19072
885.148	19137
885.274	19209
885.399	19069
885.524	18958
885.65	18935
885.775	18871
885.9	18848
886.025	18905
886.15	18817
886.275	18547
886.4	18563
886.525	18528
886.65	18338
886.775	18391
886.9	18563
887.025	18623
887.149	18311
887.274	18163
887.399	18015
887.523	17977
887.648	18015
887.773	17897
887.897	18003
888.021	17828
888.146	17832
888.27	17942
888.395	17942
888.519	17882
888.643	17832
888.767	17836
888.891	17752
889.015	17608
889.139	17592
889.263	17482
889.387	17497
889.511	17794
889.635	17551
889.759	17421
889.883	17520
890.006	17608
890.13	17562
890.254	17425
890.377	17395
890.501	17204
890.624	17143
890.748	17265
890.871	17094
890.995	17075
891.118	16892
891.241	17006
891.364	17052
891.488	17098
891.611	16957
891.734	16908
891.857	16980
891.98	16980
892.103	17071
892.226	16972
892.349	16911
892.471	16702
892.594	16839
892.717	16839
892.839	16778
892.962	16793
893.085	16877
893.207	16816
893.33	16672
893.452	16706
893.575	16843
893.697	16752
893.819	16942
893.941	16949
894.064	16961
894.186	16615
894.308	16672
894.43	16858
894.552	16790
894.674	16858
894.796	16656
894.918	16752
895.04	16694
895.161	16801
895.283	16748
895.405	16645
895.526	16687
895.648	16683
895.769	16736
895.891	16702
896.012	16786
896.134	16687
896.255	16778
896.376	16672
896.498	16835
896.619	16774
896.74	16740
896.861	16793
896.982	16980
897.103	17136
897.224	16976
897.345	16968
897.466	16923
897.587	16892
897.708	17045
897.828	16991
897.949	16908
898.07	16809
898.19	16862
898.311	17037
898.431	16900
898.552	16976
898.672	17090
898.792	17086
898.913	16927
899.033	16957
899.153	16748
899.273	16763
899.393	16869
899.513	16911
899.633	16797
899.753	16869
899.873	16725
899.993	16828
900.113	16736
900.232	16877
900.352	16812
900.472	16771
900.591	16603
900.711	16706
900.83	16516
900.95	16748
901.069	16645
901.189	16565
901.308	16329
901.427	16219
901.546	16272
901.665	16242
901.784	16234
901.904	16188
902.023	15975
902.141	15804
902.26	15846
902.379	15892
902.498	15766
902.617	15774
902.735	15774
902.854	15705
902.973	15709
903.091	15450
903.21	15466
903.328	15374
903.446	15363
903.565	15230
903.683	15233
903.801	15176
903.919	15279
904.038	15203
904.156	15017
904.274	15188
904.392	15047
904.51	14937
904.627	15093
904.745	15013
904.863	15036
904.981	14811
905.098	14724
905.216	14731
905.334	14655
905.451	14743
905.569	14621
905.686	14746
905.803	14640
905.921	14457
906.038	14533
906.155	14454
906.272	14343
906.389	14347
906.506	14271
906.623	14263
906.74	14225
906.857	14100
906.974	14123
907.091	14298
907.208	14301
907.324	14161
907.441	14103
907.557	13974
907.674	13921
907.79	13814
907.907	13871
908.023	13940
908.139	14020
908.256	13734
908.372	13833
908.488	13784
908.604	13708
908.72	13636
908.836	13597
908.952	13636
909.068	13655
909.184	13746
909.3	13563
909.415	13689
909.531	13727
909.647	13339
909.762	13335
909.878	13415
909.993	13419
910.108	13358
910.224	13411
910.339	13308
910.454	13266
910.57	13266
910.685	13217
910.8	13411
910.915	13343
911.03	13244
911.145	12954
911.259	13019
911.374	13061
911.489	12913
911.604	12825
911.718	12711
911.833	12859
911.947	12608
912.062	12585
912.176	12711
912.291	12669
912.405	12745
912.519	12951
912.633	13019
912.748	12825
912.862	12749
912.976	12612
913.09	12513
913.204	12544
913.318	12658
913.431	12711
913.545	12734
913.659	12711
913.772	12547
913.886	12490
914	12460
914.113	12544
914.226	12612
914.34	12597
914.453	12403
914.566	12578
914.68	12460
914.793	12384
914.906	12239
915.019	12216
915.132	12121
915.245	12205
915.358	12220
915.47	12243
915.583	12117
915.696	12270
915.809	12330
915.921	12380
916.034	12251
916.146	12213
916.259	12064
916.371	12216
916.483	12277
916.595	12057
916.708	12133
916.82	12076
916.932	12136
917.044	12091
917.156	12019
917.268	11958
917.38	12003
917.491	11904
917.603	11988
917.715	11973
917.826	12057
917.938	11870
918.049	11817
918.161	11866
918.272	12098
918.384	12057
918.495	11916
918.606	11786
918.717	11771
918.828	11885
918.939	11786
919.05	11737
919.161	11840
919.272	11532
919.383	11661
919.494	11813
919.604	11961
919.715	11805
919.826	11600
919.936	11775
920.047	11824
920.157	11786
920.267	11946
920.378	11843
920.488	11809
920.598	11954
920.708	12095
920.818	11889
920.928	11923
921.038	12076
921.148	12011
921.258	11752
921.368	11649
921.477	11649
921.587	11543
921.697	11440
921.806	11627
921.916	11486
922.025	11269
922.134	11201
922.244	11208
922.353	11334
922.462	11105
922.571	11102
922.68	10934
922.789	10862
922.898	10835
923.007	10828
923.116	10877
923.224	10930
923.333	10908
923.442	10801
923.55	10717
923.659	10782
923.767	10892
923.876	10740
923.984	10786
924.092	10618
924.201	10675
924.309	10725
924.417	10797
924.525	10668
924.633	10725
924.741	11554
924.849	10516
924.956	10653
925.064	10466
925.172	10333
925.279	10405
925.387	10569
925.494	10466
925.602	10660
925.709	10535
925.816	10386
925.924	10394
926.031	10565
926.138	10455
926.245	10523
926.352	10382
926.459	10546
926.566	10599
926.673	10386
926.779	10344
926.886	10299
926.993	10177
927.099	10135
927.206	10166
927.312	10124
927.419	10276
927.525	10150
927.631	10204
927.737	10036
927.843	9994
927.95	9876
928.056	9972
928.162	10032
928.267	10029
928.373	10653
928.479	10135
928.585	9854
928.69	9956
928.796	10025
928.901	9876
929.007	9728
929.112	9956
929.218	9842
929.323	9888
929.428	9785
929.533	9915
929.638	9732
929.743	9759
929.848	9831
929.953	9850
930.058	9667
930.163	9534
930.267	9580
930.372	9641
930.477	9515
930.581	9778
930.685	9553
930.79	9408
930.894	9500
930.998	9428
931.103	9637
931.207	9287
931.311	9108
931.415	9097
931.519	8891
931.623	8918
