Data from test_V78500241_1750.txt Node
Date: Fri Mar 25 14:45:53 CST 2022
User: usil
Spectrometer: V785-0024
Trigger mode: 0
Integration Time (sec): 4.000000E-1
Scans to average: 1
Nonlinearity correction enabled: false
Boxcar width: 0
Storing dark spectrum: false
XAxis mode: Wavelengths
Number of Pixels in Spectrum: 1024
>>>>>Begin Spectral Data<<<<<
801.071	22295
801.214	22120
801.356	21785
801.499	21766
801.641	21614
801.783	21641
801.926	21549
802.068	21515
802.211	21389
802.353	21367
802.496	21146
802.638	21062
802.78	21043
802.923	21001
803.065	20769
803.208	20796
803.35	20880
803.492	20948
803.635	20998
803.777	20956
803.919	21001
804.061	21241
804.204	21100
804.346	20830
804.488	20708
804.63	20750
804.773	20758
804.915	20792
805.057	20948
805.199	20735
805.341	20910
805.483	20952
805.626	20967
805.768	20849
805.91	20883
806.052	20811
806.194	20693
806.336	20902
806.478	20754
806.62	20724
806.762	20788
806.904	20971
807.046	21249
807.188	21184
807.33	21146
807.472	21161
807.614	21116
807.756	21138
807.898	20872
808.04	20823
808.182	20864
808.324	20994
808.465	21047
808.607	21104
808.749	21264
808.891	21226
809.033	21348
809.174	21306
809.316	21279
809.458	21176
809.6	21146
809.741	21188
809.883	21233
810.025	21283
810.166	21279
810.308	21340
810.45	21321
810.591	21245
810.733	21119
810.875	20971
811.016	20948
811.158	20925
811.299	21013
811.441	21112
811.582	21055
811.724	21081
811.865	20933
812.007	20975
812.148	20876
812.29	21146
812.431	20998
812.573	21393
812.714	21393
812.855	21389
812.997	21500
813.138	21580
813.279	21545
813.421	21431
813.562	21367
813.703	21245
813.845	21077
813.986	20823
814.127	20682
814.268	20644
814.41	20503
814.551	20514
814.692	20454
814.833	20362
814.974	20408
815.115	20549
815.256	20389
815.397	20393
815.539	20488
815.68	20343
815.821	20180
815.962	20210
816.103	20168
816.244	20058
816.385	19940
816.526	20031
816.666	19799
816.807	19742
816.948	19731
817.089	19788
817.23	19632
817.371	19624
817.512	19655
817.653	19632
817.793	19658
817.934	19727
818.075	19761
818.216	19708
818.356	19674
818.497	19460
818.638	19270
818.778	19339
818.919	19407
819.06	19373
819.2	19506
819.341	19632
819.481	19529
819.622	19658
819.762	19833
819.903	19742
820.043	19696
820.184	19601
820.324	19666
820.465	19700
820.605	19616
820.746	19594
820.886	19544
821.026	19639
821.167	19586
821.307	19666
821.447	19559
821.588	19449
821.728	19274
821.868	19206
822.008	19019
822.149	19110
822.289	18981
822.429	18837
822.569	18806
822.709	18734
822.849	18506
822.99	18585
823.13	18525
823.27	18566
823.41	18296
823.55	18239
823.69	18380
823.83	18426
823.97	18243
824.11	18235
824.25	18034
824.389	18095
824.529	18136
824.669	18133
824.809	18262
824.949	18266
825.089	18174
825.228	18102
825.368	17927
825.508	17992
825.648	17878
825.787	17946
825.927	17916
826.067	17828
826.206	17935
826.346	17851
826.485	17859
826.625	17863
826.765	18041
826.904	17920
827.044	17737
827.183	17596
827.323	17585
827.462	17615
827.601	17482
827.741	17478
827.88	17543
828.02	17490
828.159	17630
828.298	17596
828.437	17680
828.577	17482
828.716	17737
828.855	17554
828.994	17391
829.134	17459
829.273	17410
829.412	17254
829.551	17246
829.69	17330
829.829	17185
829.968	17421
830.107	17398
830.246	17421
830.385	17258
830.524	17143
830.663	17094
830.802	17010
830.941	17045
831.08	16915
831.219	16976
831.357	17006
831.496	17212
831.635	16968
831.774	16900
831.913	16839
832.051	16782
832.19	16790
832.329	16733
832.467	16577
832.606	16664
832.744	16706
832.883	16626
833.022	16599
833.16	16729
833.299	16725
833.437	16702
833.576	16580
833.714	16744
833.852	16736
833.991	16713
834.129	16820
834.267	16782
834.406	16672
834.544	16721
834.682	16710
834.821	16664
834.959	16824
835.097	16698
835.235	16793
835.373	16683
835.511	16691
835.65	16569
835.788	16603
835.926	16466
836.064	16295
836.202	16394
836.34	16607
836.478	16660
836.615	16615
836.753	16691
836.891	16694
837.029	16694
837.167	16687
837.305	16561
837.443	16531
837.58	16394
837.718	16584
837.856	16531
837.993	16402
838.131	16394
838.269	16272
838.406	16386
838.544	16371
838.681	16181
838.819	16181
838.956	16048
839.094	15945
839.231	16097
839.369	16112
839.506	16443
839.643	16299
839.781	16124
839.918	16010
840.055	16074
840.193	16032
840.33	15934
840.467	15991
840.604	16097
840.742	16276
840.879	16013
841.016	15934
841.153	15842
841.29	16226
841.427	15998
841.564	16063
841.701	16059
841.838	15956
841.975	15937
842.112	15937
842.249	15793
842.385	15774
842.522	15873
842.659	15774
842.796	15747
842.933	15816
843.069	15739
843.206	15816
843.343	15838
843.479	15717
843.616	15842
843.752	15576
843.889	15584
844.025	15675
844.162	15580
844.298	15675
844.435	15576
844.571	15629
844.708	15667
844.844	15743
844.98	15728
845.117	15720
845.253	15584
845.389	15473
845.525	15477
845.661	15450
845.798	15405
845.934	15450
846.07	15329
846.206	15553
846.342	15549
846.478	15279
846.614	15237
846.75	15218
846.886	15157
847.022	15222
847.158	15112
847.294	15146
847.429	15218
847.565	15211
847.701	15386
847.837	14906
847.972	14864
848.108	14998
848.244	14982
848.379	14769
848.515	14716
848.65	14716
848.786	14739
848.921	14659
849.057	14773
849.192	14819
849.328	14781
849.463	14743
849.598	14701
849.734	14678
849.869	14712
850.004	14594
850.14	14507
850.275	14503
850.41	14415
850.545	14533
850.68	14484
850.815	14499
850.95	14579
851.085	14640
851.22	14617
851.355	14579
851.49	14499
851.625	14514
851.76	14434
851.895	14358
852.03	14457
852.165	14507
852.299	14549
852.434	14522
852.569	14545
852.703	14625
852.838	14530
852.973	14678
853.107	14670
853.242	14450
853.376	14377
853.511	14282
853.645	14423
853.78	14518
853.914	14381
854.048	14355
854.183	14320
854.317	14415
854.451	14552
854.585	14404
854.72	14362
854.854	14537
854.988	14328
855.122	14412
855.256	14195
855.39	14351
855.524	14400
855.658	14400
855.792	14358
855.926	14434
856.06	14427
856.194	14518
856.327	14427
856.461	14328
856.595	14324
856.729	14263
856.862	14484
856.996	14419
857.13	14434
857.263	14480
857.397	14541
857.53	14423
857.664	14518
857.797	14499
857.931	14419
858.064	14385
858.197	14431
858.331	14412
858.464	14351
858.597	14446
858.731	14294
858.864	14408
858.997	14404
859.13	14347
859.263	14446
859.396	14480
859.529	14290
859.662	14469
859.795	14370
859.928	14442
860.061	14571
860.194	14590
860.327	14465
860.46	14412
860.592	14511
860.725	14613
860.858	14560
860.99	14366
861.123	14351
861.256	14278
861.388	14301
861.521	15036
861.653	14225
861.786	14157
861.918	14259
862.05	14229
862.183	14248
862.315	14343
862.447	14400
862.58	14332
862.712	14164
862.844	14134
862.976	14229
863.108	14381
863.24	14552
863.372	14202
863.504	14161
863.636	14111
863.768	14206
863.9	14218
864.032	14039
864.164	14084
864.296	14267
864.428	14275
864.559	14267
864.691	14248
864.823	14153
864.954	14225
865.086	14172
865.217	14054
865.349	14088
865.48	14142
865.612	14164
865.743	14385
865.875	14168
866.006	14111
866.137	14119
866.269	14126
866.4	14142
866.531	14054
866.662	14058
866.793	14092
866.924	14054
867.055	14119
867.186	14195
867.317	14092
867.448	14008
867.579	14084
867.71	14065
867.841	14020
867.972	14103
868.103	14195
868.233	14111
868.364	14123
868.495	14355
868.625	14476
868.756	14526
868.886	14332
869.017	14454
869.147	14454
869.278	14499
869.408	14336
869.539	14351
869.669	14518
869.799	14480
869.929	14552
870.06	14522
870.19	14674
870.32	14712
870.45	14705
870.58	14754
870.71	14906
870.84	14883
870.97	14796
871.1	14686
871.23	14899
871.36	14998
871.489	14872
871.619	14975
871.749	15017
871.879	14937
872.008	15108
872.138	15043
872.267	14967
872.397	14788
872.526	14648
872.656	14918
872.785	14948
872.915	14929
873.044	15100
873.173	15009
873.303	15020
873.432	15066
873.561	15154
873.69	15009
873.819	15043
873.948	15142
874.077	15032
874.206	14975
874.335	15097
874.464	15207
874.593	15275
874.722	15287
874.851	15336
874.979	15344
875.108	15462
875.237	15294
875.365	15275
875.494	15359
875.623	15393
875.751	15370
875.88	15355
876.008	15443
876.136	15599
876.265	15816
876.393	15865
876.521	15873
876.65	15755
876.778	15781
876.906	15663
877.034	15713
877.162	15766
877.29	15732
877.418	15778
877.546	15778
877.674	15743
877.802	15728
877.93	15823
878.058	15755
878.185	15660
878.313	15747
878.441	15774
878.568	15686
878.696	15720
878.824	15797
878.951	15739
879.079	16040
879.206	16086
879.333	15918
879.461	15804
879.588	15941
879.715	15922
879.842	16112
879.97	15876
880.097	15644
880.224	15641
880.351	15599
880.478	15648
880.605	15622
880.732	15591
880.859	15831
880.986	15660
881.112	15686
881.239	15511
881.366	15389
881.493	15211
881.619	15302
881.746	15241
881.872	15291
881.999	15252
882.125	15173
882.252	15348
882.378	15283
882.505	15447
882.631	15188
882.757	15119
882.883	15138
883.01	15119
883.136	15108
883.262	14948
883.388	15047
883.514	15131
883.64	15138
883.766	15032
883.892	14868
884.018	14948
884.143	15028
884.269	15104
884.395	14830
884.52	14739
884.646	14842
884.772	14823
884.897	14568
885.023	14735
885.148	14807
885.274	14925
885.399	14853
885.524	14777
885.65	14838
885.775	14857
885.9	14838
886.025	14902
886.15	14826
886.275	14712
886.4	14758
886.525	14720
886.65	14644
886.775	14648
886.9	14921
887.025	15047
887.149	14739
887.274	14613
887.399	14575
887.523	14590
887.648	14465
887.773	14442
887.897	14663
888.021	14750
888.146	14613
888.27	14746
888.395	14682
888.519	14727
888.643	14781
888.767	14670
888.891	14560
889.015	14476
889.139	14518
889.263	14446
889.387	14575
889.511	14705
889.635	14678
889.759	14374
889.883	14522
890.006	14530
890.13	14568
890.254	14408
890.377	14434
890.501	14301
890.624	14328
890.748	14389
890.871	14240
890.995	14100
891.118	14077
891.241	14115
891.364	14244
891.488	14294
891.611	14157
891.734	14210
891.857	14191
891.98	14282
892.103	14275
892.226	14199
892.349	14134
892.471	14050
892.594	14191
892.717	14180
892.839	14157
892.962	14180
893.085	14199
893.207	14240
893.33	14054
893.452	14103
893.575	14259
893.697	14240
893.819	14328
893.941	14358
894.064	14324
894.186	14164
894.308	14183
894.43	14294
894.552	14347
894.674	14305
894.796	14069
894.918	14180
895.04	14275
895.161	14324
895.283	14305
895.405	14176
895.526	14301
895.648	14271
895.769	14305
895.891	14324
896.012	14503
896.134	14351
896.255	14278
896.376	14263
896.498	14324
896.619	14415
896.74	14229
896.861	14419
896.982	14613
897.103	14773
897.224	14674
897.345	14678
897.466	14579
897.587	14644
897.708	14758
897.828	14636
897.949	14670
898.07	14389
898.19	14590
898.311	14762
898.431	14602
898.552	14655
898.672	14762
898.792	14796
898.913	14777
899.033	14583
899.153	14495
899.273	14415
899.393	14461
899.513	14564
899.633	14606
899.753	14507
899.873	14564
899.993	14571
900.113	14450
900.232	14545
900.352	14457
900.472	14450
900.591	14324
900.711	14480
900.83	14362
900.95	14492
901.069	14579
901.189	14370
901.308	14221
901.427	14039
901.546	14039
901.665	14024
901.784	14172
901.904	13982
902.023	13860
902.141	13674
902.26	13658
902.379	13791
902.498	13674
902.617	13613
902.735	13662
902.854	13624
902.973	13571
903.091	13411
903.21	13362
903.328	13476
903.446	13263
903.565	13285
903.683	13373
903.801	13091
903.919	13221
904.038	13217
904.156	13080
904.274	13175
904.392	13194
904.51	13031
904.627	13050
904.745	13118
904.863	13019
904.981	12856
905.098	12764
905.216	12741
905.334	12817
905.451	12734
905.569	12734
905.686	12787
905.803	12787
905.921	12623
906.038	12616
906.155	12547
906.272	12494
906.389	12532
906.506	12357
906.623	12334
906.74	12315
906.857	12239
906.974	12342
907.091	12369
907.208	12414
907.324	12342
907.441	12342
907.557	12213
907.674	12117
907.79	11988
907.907	12079
908.023	12106
908.139	12163
908.256	12064
908.372	12091
908.488	12045
908.604	11923
908.72	11790
908.836	11843
908.952	11813
909.068	11779
909.184	11931
909.3	11901
909.415	11935
909.531	11904
909.647	11680
909.762	11562
909.878	11585
909.993	11551
910.108	11634
910.224	11573
910.339	11638
910.454	11596
910.57	11463
910.685	11471
910.8	11672
910.915	11619
911.03	11497
911.145	11379
911.259	11326
911.374	11318
911.489	11315
911.604	11159
911.718	11064
911.833	11189
911.947	10930
912.062	10968
912.176	11048
912.291	11045
912.405	11003
912.519	11208
912.633	11292
912.748	11155
912.862	11094
912.976	11014
913.09	10862
913.204	10946
913.318	10900
913.431	11086
913.545	11094
913.659	11045
913.772	10991
913.886	10869
914	10767
914.113	10934
914.226	10869
914.34	10885
914.453	10778
914.566	10930
914.68	10782
914.793	10831
914.906	10561
915.019	10618
915.132	10451
915.245	10592
915.358	10550
915.47	10653
915.583	10618
915.696	10656
915.809	10721
915.921	10736
916.034	10641
916.146	10615
916.259	10481
916.371	10702
916.483	10645
916.595	10561
916.708	10550
916.82	10493
916.932	10531
917.044	10550
917.156	10478
917.268	10432
917.38	10497
917.491	10386
917.603	10470
917.715	10561
917.826	10459
917.938	10398
918.049	10299
918.161	10363
918.272	10497
918.384	10569
918.495	10519
918.606	10360
918.717	10242
918.828	10322
918.939	10409
919.05	10143
919.161	10261
919.272	10147
919.383	10185
919.494	10386
919.604	10519
919.715	10352
919.826	10223
919.936	10287
920.047	10344
920.157	10314
920.267	10546
920.378	10325
920.488	10322
920.598	10470
920.708	10653
920.818	10497
920.928	10500
921.038	10630
921.148	10679
921.258	10356
921.368	10322
921.477	10154
921.587	10215
921.697	10105
921.806	10169
921.916	10074
922.025	9899
922.134	9823
922.244	9895
922.353	9937
922.462	9778
922.571	9679
922.68	9568
922.789	9549
922.898	9675
923.007	9538
923.116	9663
923.224	9568
923.333	9526
923.442	9439
923.55	9367
923.659	9469
923.767	9515
923.876	9382
923.984	9500
924.092	9386
924.201	9466
924.309	9401
924.417	9382
924.525	9325
924.633	9386
924.741	10398
924.849	9169
924.956	9298
925.064	9161
925.172	9051
925.279	9180
925.387	9268
925.494	9192
925.602	9348
925.709	9245
925.816	9192
925.924	9165
926.031	9256
926.138	9245
926.245	9264
926.352	9188
926.459	9264
926.566	9279
926.673	9161
926.779	9024
926.886	9097
926.993	8929
927.099	8956
927.206	8849
927.312	8891
927.419	9001
927.525	8864
927.631	8952
927.737	8906
927.843	8891
927.95	8705
928.056	8769
928.162	8823
928.267	8944
928.373	9488
928.479	8948
928.585	8663
928.69	8811
928.796	8826
928.901	8762
929.007	8556
929.112	8739
929.218	8678
929.323	8659
929.428	8610
929.533	8724
929.638	8587
929.743	8556
929.848	8659
929.953	8636
930.058	8526
930.163	8343
930.267	8446
930.372	8518
930.477	8328
930.581	8674
930.685	8469
930.79	8290
930.894	8400
930.998	8320
931.103	8469
931.207	8176
931.311	8123
931.415	7989
931.519	7875
931.623	7909
