Data from test_V78500241_3277.txt Node
Date: Fri Mar 25 14:56:31 CST 2022
User: usil
Spectrometer: V785-0024
Trigger mode: 0
Integration Time (sec): 4.000000E-1
Scans to average: 1
Nonlinearity correction enabled: false
Boxcar width: 0
Storing dark spectrum: false
XAxis mode: Wavelengths
Number of Pixels in Spectrum: 1024
>>>>>Begin Spectral Data<<<<<
801.071	22002
801.214	21861
801.356	21595
801.499	21603
801.641	21443
801.783	21397
801.926	21389
802.068	21344
802.211	21321
802.353	21108
802.496	20864
802.638	20849
802.78	20910
802.923	20876
803.065	20720
803.208	20644
803.35	20697
803.492	20815
803.635	20845
803.777	20678
803.919	20712
804.061	21074
804.204	20708
804.346	20632
804.488	20598
804.63	20754
804.773	20526
804.915	20594
805.057	20594
805.199	20613
805.341	20636
805.483	20689
805.626	20682
805.768	20476
805.91	20560
806.052	20552
806.194	20549
806.336	20682
806.478	20560
806.62	20526
806.762	20533
806.904	20804
807.046	20902
807.188	20804
807.33	20960
807.472	20887
807.614	20853
807.756	20743
807.898	20792
808.04	20575
808.182	20651
808.324	20682
808.465	20716
808.607	20842
808.749	20941
808.891	21146
809.033	21024
809.174	20982
809.316	20868
809.458	20925
809.6	20773
809.741	20956
809.883	20963
810.025	21135
810.166	20960
810.308	21036
810.45	21017
810.591	20998
810.733	20868
810.875	20785
811.016	20648
811.158	20511
811.299	20697
811.441	20857
811.582	20815
811.724	20678
811.865	20659
812.007	20705
812.148	20731
812.29	20731
812.431	20929
812.573	20944
812.714	21043
812.855	21214
812.997	21283
813.138	21443
813.279	21161
813.421	21245
813.562	21142
813.703	20971
813.845	20807
813.986	20590
814.127	20431
814.268	20393
814.41	20290
814.551	20267
814.692	20195
814.833	20103
814.974	20180
815.115	20313
815.256	20069
815.397	20180
815.539	20077
815.68	20054
815.821	19894
815.962	20035
816.103	19860
816.244	19849
816.385	19639
816.526	19704
816.666	19521
816.807	19324
816.948	19548
817.089	19483
817.23	19438
817.371	19396
817.512	19400
817.653	19183
817.793	19377
817.934	19384
818.075	19381
818.216	19270
818.356	19331
818.497	19141
818.638	19023
818.778	19008
818.919	19023
819.06	19095
819.2	19198
819.341	19270
819.481	19308
819.622	19335
819.762	19666
819.903	19544
820.043	19449
820.184	19396
820.324	19396
820.465	19476
820.605	19316
820.746	19282
820.886	19148
821.026	19373
821.167	19247
821.307	19377
821.447	19297
821.588	19171
821.728	19046
821.868	18897
822.008	18703
822.149	18806
822.289	18692
822.429	18525
822.569	18380
822.709	18433
822.849	18327
822.99	18350
823.13	18308
823.27	18292
823.41	17946
823.55	18015
823.69	17961
823.83	18121
823.97	17935
824.11	17901
824.25	17786
824.389	17794
824.529	17866
824.669	17824
824.809	17901
824.949	17931
825.089	17939
825.228	17897
825.368	17729
825.508	17668
825.648	17737
825.787	17684
825.927	17691
826.067	17638
826.206	17592
826.346	17627
826.485	17646
826.625	17703
826.765	17661
826.904	17726
827.044	17509
827.183	17322
827.323	17242
827.462	17318
827.601	17296
827.741	17334
827.88	17372
828.02	17204
828.159	17292
828.298	17315
828.437	17337
828.577	17299
828.716	17501
828.855	17326
828.994	17147
829.134	17136
829.273	17079
829.412	17033
829.551	16980
829.69	17121
829.829	17174
829.968	17265
830.107	17140
830.246	17117
830.385	17056
830.524	16953
830.663	16866
830.802	16862
830.941	16687
831.08	16713
831.219	16774
831.357	16736
831.496	16820
831.635	16740
831.774	16599
831.913	16611
832.051	16428
832.19	16455
832.329	16569
832.467	16379
832.606	16295
832.744	16325
832.883	16318
833.022	16379
833.16	16363
833.299	16417
833.437	16398
833.576	16466
833.714	16360
833.852	16443
833.991	16455
834.129	16470
834.267	16424
834.406	16398
834.544	16527
834.682	16413
834.821	16470
834.959	16641
835.097	16424
835.235	16611
835.373	16443
835.511	16519
835.65	16310
835.788	16306
835.926	16200
836.064	16120
836.202	16223
836.34	16375
836.478	16348
836.615	16257
836.753	16379
836.891	16417
837.029	16299
837.167	16443
837.305	16284
837.443	16219
837.58	16131
837.718	16386
837.856	16291
837.993	16272
838.131	16303
838.269	16204
838.406	16139
838.544	16071
838.681	15979
838.819	16013
838.956	15736
839.094	15770
839.231	15789
839.369	15876
839.506	16200
839.643	15987
839.781	15781
839.918	15774
840.055	15800
840.193	15736
840.33	15671
840.467	15660
840.604	15793
840.742	16097
840.879	15682
841.016	15564
841.153	15743
841.29	15846
841.427	15797
841.564	15846
841.701	15785
841.838	15724
841.975	15698
842.112	15686
842.249	15564
842.385	15496
842.522	15766
842.659	15515
842.796	15622
842.933	15595
843.069	15507
843.206	15542
843.343	15553
843.479	15538
843.616	15610
843.752	15408
843.889	15329
844.025	15481
844.162	15241
844.298	15462
844.435	15370
844.571	15294
844.708	15450
844.844	15564
844.98	15553
845.117	15450
845.253	15214
845.389	15184
845.525	15260
845.661	15218
845.798	15112
845.934	15222
846.07	15112
846.206	15154
846.342	15237
846.478	15066
846.614	15036
846.75	14899
846.886	14929
847.022	15036
847.158	15001
847.294	14910
847.429	14937
847.565	14792
847.701	15237
847.837	14625
847.972	14651
848.108	14777
848.244	14777
848.379	14488
848.515	14526
848.65	14446
848.786	14514
848.921	14545
849.057	14571
849.192	14670
849.328	14533
849.463	14530
849.598	14587
849.734	14507
849.869	14396
850.004	14313
850.14	14328
850.275	14244
850.41	14191
850.545	14195
850.68	14134
850.815	14290
850.95	14267
851.085	14446
851.22	14419
851.355	14248
851.49	14229
851.625	14263
851.76	14271
851.895	14180
852.03	14168
852.165	14317
852.299	14221
852.434	14343
852.569	14389
852.703	14187
852.838	14339
852.973	14415
853.107	14377
853.242	14202
853.376	14240
853.511	13967
853.645	14126
853.78	14278
853.914	14115
854.048	14123
854.183	14039
854.317	14187
854.451	14275
854.585	14111
854.72	14134
854.854	14157
854.988	14157
855.122	14145
855.256	13963
855.39	14065
855.524	14218
855.658	14164
855.792	14107
855.926	14271
856.06	14096
856.194	14298
856.327	14176
856.461	14065
856.595	14202
856.729	14096
856.862	14320
856.996	14240
857.13	14286
857.263	14153
857.397	14202
857.53	14168
857.664	14259
857.797	14256
857.931	14259
858.064	14195
858.197	14370
858.331	14172
858.464	14130
858.597	14077
858.731	14176
858.864	14145
858.997	14145
859.13	14157
859.263	14206
859.396	14252
859.529	14069
859.662	14180
859.795	14145
859.928	14180
860.061	14374
860.194	14328
860.327	14210
860.46	14145
860.592	14347
860.725	14256
860.858	14282
860.99	14054
861.123	14050
861.256	14069
861.388	14142
861.521	14876
861.653	14008
861.786	13963
861.918	13986
862.05	14027
862.183	14119
862.315	14168
862.447	14237
862.58	14115
862.712	13997
862.844	13864
862.976	13951
863.108	13917
863.24	14183
863.372	13837
863.504	13989
863.636	14020
863.768	14062
863.9	13913
864.032	13833
864.164	13932
864.296	13898
864.428	14027
864.559	14027
864.691	14016
864.823	13982
864.954	14005
865.086	13978
865.217	13917
865.349	13879
865.48	13936
865.612	13852
865.743	14123
865.875	13970
866.006	13875
866.137	14046
866.269	13959
866.4	13978
866.531	13936
866.662	13845
866.793	13887
866.924	13909
867.055	13925
867.186	13944
867.317	13803
867.448	13856
867.579	13898
867.71	13814
867.841	13799
867.972	13894
868.103	13852
868.233	13921
868.364	13898
868.495	14073
868.625	14073
868.756	14240
868.886	14050
869.017	14043
869.147	14237
869.278	14244
869.408	14206
869.539	14286
869.669	14267
869.799	14134
869.929	14221
870.06	14286
870.19	14499
870.32	14454
870.45	14473
870.58	14564
870.71	14602
870.84	14640
870.97	14583
871.1	14606
871.23	14708
871.36	14785
871.489	14701
871.619	14708
871.749	14769
871.879	14781
872.008	14796
872.138	14773
872.267	14724
872.397	14632
872.526	14587
872.656	14537
872.785	14560
872.915	14750
873.044	14944
873.173	14864
873.303	14868
873.432	14921
873.561	14960
873.69	14731
873.819	14834
873.948	14826
874.077	14933
874.206	14819
874.335	14769
874.464	14899
874.593	15074
874.722	15024
874.851	15275
874.979	15074
875.108	15123
875.237	15116
875.365	15089
875.494	15024
875.623	15199
875.751	15100
875.88	15176
876.008	15306
876.136	15443
876.265	15549
876.393	15652
876.521	15679
876.65	15682
876.778	15492
876.906	15511
877.034	15443
877.162	15610
877.29	15473
877.418	15526
877.546	15557
877.674	15561
877.802	15416
877.93	15568
878.058	15477
878.185	15488
878.313	15523
878.441	15519
878.568	15416
878.696	15428
878.824	15561
878.951	15637
879.079	15762
879.206	15869
879.333	15720
879.461	15641
879.588	15747
879.715	15789
879.842	15903
879.97	15671
880.097	15298
880.224	15443
880.351	15466
880.478	15526
880.605	15317
880.732	15515
880.859	15648
880.986	15515
881.112	15469
881.239	15241
881.366	15112
881.493	15116
881.619	15131
881.746	15100
881.872	15081
881.999	15009
882.125	14979
882.252	15123
882.378	15154
882.505	15230
882.631	14982
882.757	14895
882.883	14956
883.01	14807
883.136	14807
883.262	14735
883.388	14758
883.514	14921
883.64	14914
883.766	14910
883.892	14644
884.018	14765
884.143	14807
884.269	15005
884.395	14640
884.52	14530
884.646	14648
884.772	14571
884.897	14514
885.023	14560
885.148	14697
885.274	14788
885.399	14655
885.524	14545
885.65	14632
885.775	14610
885.9	14625
886.025	14750
886.15	14625
886.275	14602
886.4	14594
886.525	14530
886.65	14431
886.775	14499
886.9	14743
887.025	14815
887.149	14564
887.274	14419
887.399	14347
887.523	14431
887.648	14415
887.773	14343
887.897	14438
888.021	14495
888.146	14385
888.27	14518
888.395	14537
888.519	14495
888.643	14480
888.767	14522
888.891	14374
889.015	14202
889.139	14259
889.263	14130
889.387	14396
889.511	14564
889.635	14480
889.759	14210
889.883	14267
890.006	14320
890.13	14370
890.254	14221
890.377	14263
890.501	14081
890.624	14062
890.748	14111
890.871	14077
890.995	13947
891.118	13944
891.241	14001
891.364	13986
891.488	14024
891.611	13989
891.734	14058
891.857	14039
891.98	14062
892.103	14073
892.226	14073
892.349	14058
892.471	13788
892.594	13963
892.717	14058
892.839	13917
892.962	14008
893.085	14058
893.207	14020
893.33	13841
893.452	13868
893.575	14024
893.697	13932
893.819	14107
893.941	14172
894.064	14103
894.186	13906
894.308	13925
894.43	14176
894.552	14240
894.674	14103
894.796	13936
894.918	13978
895.04	13993
895.161	14164
895.283	14138
895.405	14050
895.526	14103
895.648	14092
895.769	14142
895.891	14123
896.012	14149
896.134	14115
896.255	14138
896.376	14077
896.498	14180
896.619	14172
896.74	14176
896.861	14206
896.982	14419
897.103	14640
897.224	14419
897.345	14442
897.466	14393
897.587	14362
897.708	14461
897.828	14465
897.949	14499
898.07	14332
898.19	14469
898.311	14541
898.431	14370
898.552	14465
898.672	14590
898.792	14659
898.913	14629
899.033	14412
899.153	14366
899.273	14229
899.393	14381
899.513	14351
899.633	14370
899.753	14374
899.873	14393
899.993	14507
900.113	14412
900.232	14370
900.352	14362
900.472	14275
900.591	14221
900.711	14256
900.83	14183
900.95	14267
901.069	14305
901.189	14191
901.308	13963
901.427	13978
901.546	13925
901.665	13944
901.784	13947
901.904	13830
902.023	13761
902.141	13472
902.26	13499
902.379	13655
902.498	13480
902.617	13445
902.735	13499
902.854	13426
902.973	13293
903.091	13247
903.21	13285
903.328	13107
903.446	13122
903.565	12985
903.683	12981
903.801	12996
903.919	12951
904.038	13065
904.156	12871
904.274	12901
904.392	12798
904.51	12840
904.627	12951
904.745	12878
904.863	12844
904.981	12639
905.098	12521
905.216	12635
905.334	12608
905.451	12597
905.569	12536
905.686	12582
905.803	12540
905.921	12418
906.038	12494
906.155	12357
906.272	12281
906.389	12270
906.506	12216
906.623	12144
906.74	12057
906.857	12049
906.974	11992
907.091	12235
907.208	12277
907.324	12190
907.441	12060
907.557	11965
907.674	11840
907.79	11832
907.907	11897
908.023	11939
908.139	11996
908.256	11973
908.372	11843
908.488	11786
908.604	11703
908.72	11684
908.836	11688
908.952	11668
909.068	11638
909.184	11764
909.3	11684
909.415	11714
909.531	11688
909.647	11387
909.762	11440
909.878	11459
909.993	11406
910.108	11452
910.224	11417
910.339	11425
910.454	11311
910.57	11337
910.685	11242
910.8	11512
910.915	11421
911.03	11265
911.145	11208
911.259	11094
911.374	11128
911.489	11128
911.604	10987
911.718	10949
911.833	10919
911.947	10858
912.062	10649
912.176	10885
912.291	10930
912.405	10946
912.519	10968
912.633	11086
912.748	10999
912.862	10892
912.976	10725
913.09	10774
913.204	10714
913.318	10858
913.431	10854
913.545	10828
913.659	10987
913.772	10759
913.886	10691
914	10554
914.113	10717
914.226	10774
914.34	10797
914.453	10516
914.566	10805
914.68	10679
914.793	10561
914.906	10432
915.019	10367
915.132	10337
915.245	10417
915.358	10459
915.47	10440
915.583	10413
915.696	10493
915.809	10500
915.921	10626
916.034	10356
916.146	10299
916.259	10291
916.371	10443
916.483	10470
916.595	10299
916.708	10299
916.82	10371
916.932	10375
917.044	10276
917.156	10329
917.268	10219
917.38	10196
917.491	10192
917.603	10227
917.715	10367
917.826	10371
917.938	10310
918.049	10162
918.161	10284
918.272	10360
918.384	10352
918.495	10230
918.606	10124
918.717	10082
918.828	10082
918.939	10154
919.05	10006
919.161	10097
919.272	9968
919.383	9975
919.494	10196
919.604	10409
919.715	10124
919.826	10055
919.936	10093
920.047	10196
920.157	10128
920.267	10337
920.378	10211
920.488	10120
920.598	10352
920.708	10481
920.818	10306
920.928	10341
921.038	10485
921.148	10481
921.258	10128
921.368	10166
921.477	10013
921.587	9956
921.697	9850
921.806	10044
921.916	9918
922.025	9717
922.134	9740
922.244	9671
922.353	9781
922.462	9641
922.571	9450
922.68	9462
922.789	9310
922.898	9355
923.007	9306
923.116	9408
923.224	9378
923.333	9382
923.442	9230
923.55	9336
923.659	9233
923.767	9332
923.876	9268
923.984	9359
924.092	9237
924.201	9298
924.309	9348
924.417	9279
924.525	9256
924.633	9211
924.741	10109
924.849	9047
924.956	9241
925.064	9104
925.172	8986
925.279	8971
925.387	8975
925.494	9062
925.602	9222
925.709	9161
925.816	8975
925.924	9093
926.031	9097
926.138	9100
926.245	9058
926.352	9020
926.459	9112
926.566	9161
926.673	9001
926.779	8937
926.886	8933
926.993	8815
927.099	8777
927.206	8758
927.312	8716
927.419	8845
927.525	8830
927.631	8819
927.737	8648
927.843	8617
927.95	8560
928.056	8701
928.162	8682
928.267	8727
928.373	9230
928.479	8773
928.585	8621
928.69	8708
928.796	8743
928.901	8564
929.007	8480
929.112	8537
929.218	8537
929.323	8484
929.428	8522
929.533	8682
929.638	8377
929.743	8431
929.848	8530
929.953	8514
930.058	8366
930.163	8240
930.267	8298
930.372	8377
930.477	8252
930.581	8526
930.685	8298
930.79	8183
930.894	8202
930.998	8149
931.103	8400
931.207	8054
931.311	7898
931.415	7963
931.519	7746
931.623	7723
