Data from test_V78500241_1794.txt Node
Date: Fri Mar 25 14:46:12 CST 2022
User: usil
Spectrometer: V785-0024
Trigger mode: 0
Integration Time (sec): 4.000000E-1
Scans to average: 1
Nonlinearity correction enabled: false
Boxcar width: 0
Storing dark spectrum: false
XAxis mode: Wavelengths
Number of Pixels in Spectrum: 1024
>>>>>Begin Spectral Data<<<<<
801.071	22253
801.214	22097
801.356	21781
801.499	21766
801.641	21568
801.783	21545
801.926	21599
802.068	21431
802.211	21485
802.353	21313
802.496	21211
802.638	21047
802.78	20994
802.923	20906
803.065	20826
803.208	20880
803.35	20868
803.492	20902
803.635	21062
803.777	20883
803.919	20811
804.061	21226
804.204	20971
804.346	20891
804.488	20807
804.63	20853
804.773	20807
804.915	20819
805.057	20918
805.199	20727
805.341	20906
805.483	20876
805.626	20758
805.768	20777
805.91	20739
806.052	20739
806.194	20788
806.336	20830
806.478	20853
806.62	20746
806.762	20769
806.904	21009
807.046	21150
807.188	21093
807.33	21089
807.472	21180
807.614	21089
807.756	20998
807.898	20891
808.04	20842
808.182	20967
808.324	20963
808.465	20948
808.607	20998
808.749	21150
808.891	21329
809.033	21340
809.174	21199
809.316	21112
809.458	21119
809.6	21245
809.741	21256
809.883	21173
810.025	21367
810.166	21260
810.308	21439
810.45	21310
810.591	21192
810.733	21001
810.875	21058
811.016	20925
811.158	20796
811.299	20990
811.441	21142
811.582	21024
811.724	20960
811.865	20921
812.007	20792
812.148	20941
812.29	20975
812.431	21180
812.573	21294
812.714	21355
812.855	21485
812.997	21515
813.138	21587
813.279	21515
813.421	21454
813.562	21443
813.703	21237
813.845	21135
813.986	20845
814.127	20636
814.268	20682
814.41	20617
814.551	20522
814.692	20488
814.833	20431
814.974	20412
815.115	20461
815.256	20286
815.397	20339
815.539	20282
815.68	20202
815.821	20073
815.962	20301
816.103	20305
816.244	20024
816.385	19921
816.526	19868
816.666	19761
816.807	19639
816.948	19822
817.089	19708
817.23	19696
817.371	19662
817.512	19616
817.653	19556
817.793	19628
817.934	19521
818.075	19723
818.216	19655
818.356	19651
818.497	19521
818.638	19270
818.778	19346
818.919	19362
819.06	19369
819.2	19460
819.341	19594
819.481	19518
819.622	19643
819.762	19822
819.903	19681
820.043	19704
820.184	19609
820.324	19594
820.465	19803
820.605	19674
820.746	19586
820.886	19487
821.026	19655
821.167	19613
821.307	19719
821.447	19620
821.588	19495
821.728	19346
821.868	19141
822.008	19038
822.149	18943
822.289	19004
822.429	18802
822.569	18597
822.709	18692
822.849	18448
822.99	18593
823.13	18467
823.27	18418
823.41	18384
823.55	18308
823.69	18247
823.83	18380
823.97	18289
824.11	18079
824.25	18083
824.389	18045
824.529	18266
824.669	18106
824.809	18251
824.949	18220
825.089	18228
825.228	18106
825.368	17931
825.508	17767
825.648	17870
825.787	17840
825.927	17912
826.067	17832
826.206	17942
826.346	17882
826.485	17855
826.625	17916
826.765	17984
826.904	17916
827.044	17695
827.183	17646
827.323	17532
827.462	17600
827.601	17592
827.741	17570
827.88	17642
828.02	17429
828.159	17524
828.298	17619
828.437	17638
828.577	17486
828.716	17566
828.855	17558
828.994	17178
829.134	17299
829.273	17379
829.412	17185
829.551	17246
829.69	17273
829.829	17376
829.968	17311
830.107	17368
830.246	17318
830.385	17220
830.524	17242
830.663	17052
830.802	17033
830.941	16946
831.08	16839
831.219	17018
831.357	16927
831.496	17094
831.635	16915
831.774	16797
831.913	16854
832.051	16721
832.19	16634
832.329	16801
832.467	16634
832.606	16649
832.744	16599
832.883	16592
833.022	16565
833.16	16649
833.299	16641
833.437	16607
833.576	16725
833.714	16679
833.852	16744
833.991	16733
834.129	16733
834.267	16752
834.406	16702
834.544	16748
834.682	16694
834.821	16668
834.959	16900
835.097	16603
835.235	16664
835.373	16763
835.511	16664
835.65	16497
835.788	16611
835.926	16443
836.064	16322
836.202	16493
836.34	16660
836.478	16626
836.615	16596
836.753	16580
836.891	16584
837.029	16626
837.167	16649
837.305	16451
837.443	16519
837.58	16466
837.718	16527
837.856	16440
837.993	16360
838.131	16440
838.269	16371
838.406	16379
838.544	16234
838.681	16093
838.819	16082
838.956	15907
839.094	15953
839.231	15968
839.369	16185
839.506	16398
839.643	16352
839.781	16051
839.918	16021
840.055	16090
840.193	16063
840.33	16010
840.467	16097
840.604	16074
840.742	16185
840.879	15865
841.016	15945
841.153	15884
841.29	16013
841.427	16032
841.564	16021
841.701	15903
841.838	15994
841.975	15903
842.112	15941
842.249	15713
842.385	15743
842.522	15972
842.659	15789
842.796	15793
842.933	15816
843.069	15709
843.206	15800
843.343	15945
843.479	15739
843.616	15778
843.752	15603
843.889	15572
844.025	15747
844.162	15564
844.298	15637
844.435	15641
844.571	15542
844.708	15507
844.844	15663
844.98	15774
845.117	15705
845.253	15530
845.389	15454
845.525	15488
845.661	15504
845.798	15435
845.934	15458
846.07	15359
846.206	15428
846.342	15622
846.478	15317
846.614	15192
846.75	15169
846.886	15032
847.022	15279
847.158	15169
847.294	15188
847.429	15260
847.565	15154
847.701	15291
847.837	14842
847.972	14880
848.108	14960
848.244	14933
848.379	14720
848.515	14724
848.65	14735
848.786	14792
848.921	14705
849.057	14849
849.192	14906
849.328	14712
849.463	14689
849.598	14629
849.734	14640
849.869	14617
850.004	14514
850.14	14476
850.275	14499
850.41	14431
850.545	14446
850.68	14465
850.815	14503
850.95	14564
851.085	14659
851.22	14629
851.355	14552
851.49	14442
851.625	14503
851.76	14469
851.895	14446
852.03	14320
852.165	14454
852.299	14526
852.434	14606
852.569	14533
852.703	14571
852.838	14514
852.973	14712
853.107	14663
853.242	14423
853.376	14473
853.511	14309
853.645	14355
853.78	14434
853.914	14408
854.048	14336
854.183	14320
854.317	14400
854.451	14454
854.585	14412
854.72	14301
854.854	14404
854.988	14282
855.122	14317
855.256	14240
855.39	14313
855.524	14385
855.658	14355
855.792	14499
855.926	14415
856.06	14355
856.194	14476
856.327	14324
856.461	14320
856.595	14183
856.729	14457
856.862	14404
856.996	14450
857.13	14412
857.263	14442
857.397	14541
857.53	14438
857.664	14431
857.797	14492
857.931	14533
858.064	14404
858.197	14495
858.331	14336
858.464	14434
858.597	14271
858.731	14362
858.864	14320
858.997	14362
859.13	14324
859.263	14415
859.396	14488
859.529	14347
859.662	14301
859.795	14362
859.928	14374
860.061	14537
860.194	14571
860.327	14476
860.46	14450
860.592	14450
860.725	14549
860.858	14518
860.99	14385
861.123	14370
861.256	14366
861.388	14374
861.521	15157
861.653	14355
861.786	14221
861.918	14278
862.05	14396
862.183	14355
862.315	14400
862.447	14377
862.58	14294
862.712	14134
862.844	14138
862.976	14271
863.108	14168
863.24	14511
863.372	14077
863.504	14149
863.636	14138
863.768	14263
863.9	14123
864.032	14065
864.164	14065
864.296	14214
864.428	14332
864.559	14301
864.691	14290
864.823	14187
864.954	14278
865.086	14180
865.217	14092
865.349	14183
865.48	14123
865.612	14172
865.743	14328
865.875	14161
866.006	14157
866.137	14157
866.269	14183
866.4	14107
866.531	14073
866.662	14077
866.793	14096
866.924	14157
867.055	14145
867.186	14096
867.317	14031
867.448	14084
867.579	14115
867.71	14073
867.841	14103
867.972	14115
868.103	14161
868.233	14244
868.364	14145
868.495	14081
868.625	14362
868.756	14442
868.886	14267
869.017	14358
869.147	14503
869.278	14507
869.408	14366
869.539	14389
869.669	14454
869.799	14393
869.929	14560
870.06	14454
870.19	14670
870.32	14670
870.45	14708
870.58	14872
870.71	14883
870.84	14834
870.97	14727
871.1	14876
871.23	14998
871.36	15112
871.489	14906
871.619	14963
871.749	15039
871.879	15028
872.008	15123
872.138	15013
872.267	14921
872.397	14826
872.526	14899
872.656	14811
872.785	14906
872.915	14998
873.044	15131
873.173	15024
873.303	14998
873.432	15108
873.561	15100
873.69	15074
873.819	14990
873.948	15104
874.077	14979
874.206	15020
874.335	15123
874.464	15142
874.593	15310
874.722	15283
874.851	15412
874.979	15302
875.108	15363
875.237	15336
875.365	15203
875.494	15294
875.623	15355
875.751	15264
875.88	15397
876.008	15466
876.136	15599
876.265	15766
876.393	15949
876.521	15846
876.65	15831
876.778	15846
876.906	15709
877.034	15800
877.162	15751
877.29	15648
877.418	15766
877.546	15641
877.674	15827
877.802	15751
877.93	15838
878.058	15690
878.185	15576
878.313	15686
878.441	15739
878.568	15641
878.696	15675
878.824	15800
878.951	15789
879.079	15869
879.206	15979
879.333	15873
879.461	15812
879.588	15876
879.715	16044
879.842	16135
879.97	15854
880.097	15587
880.224	15534
880.351	15595
880.478	15610
880.605	15648
880.732	15671
880.859	15880
880.986	15629
881.112	15633
881.239	15496
881.366	15363
881.493	15279
881.619	15256
881.746	15291
881.872	15249
881.999	15370
882.125	15154
882.252	15306
882.378	15294
882.505	15428
882.631	15226
882.757	15055
882.883	15131
883.01	14971
883.136	14895
883.262	14880
883.388	14975
883.514	15028
883.64	15081
883.766	15066
883.892	14887
884.018	14830
884.143	15123
884.269	15150
884.395	14826
884.52	14712
884.646	14857
884.772	14826
884.897	14659
885.023	14830
885.148	14906
885.274	14933
885.399	14948
885.524	14849
885.65	14769
885.775	14785
885.9	14754
886.025	14906
886.15	14811
886.275	14743
886.4	14727
886.525	14842
886.65	14693
886.775	14750
886.9	14895
887.025	14971
887.149	14804
887.274	14693
887.399	14522
887.523	14594
887.648	14556
887.773	14480
887.897	14743
888.021	14651
888.146	14594
888.27	14796
888.395	14724
888.519	14762
888.643	14629
888.767	14697
888.891	14541
889.015	14541
889.139	14625
889.263	14389
889.387	14507
889.511	14720
889.635	14648
889.759	14442
889.883	14450
890.006	14518
890.13	14556
890.254	14423
890.377	14423
890.501	14347
890.624	14298
890.748	14366
890.871	14298
890.995	14103
891.118	14065
891.241	14138
891.364	14256
891.488	14278
891.611	14187
891.734	14195
891.857	14202
891.98	14123
892.103	14225
892.226	14282
892.349	14050
892.471	14012
892.594	14119
892.717	14164
892.839	14084
892.962	14191
893.085	14206
893.207	14221
893.33	14081
893.452	14081
893.575	14183
893.697	14199
893.819	14313
893.941	14415
894.064	14294
894.186	14138
894.308	14210
894.43	14404
894.552	14377
894.674	14282
894.796	14221
894.918	14225
895.04	14210
895.161	14396
895.283	14176
895.405	14210
895.526	14267
895.648	14278
895.769	14309
895.891	14355
896.012	14434
896.134	14408
896.255	14434
896.376	14358
896.498	14313
896.619	14385
896.74	14320
896.861	14358
896.982	14651
897.103	14758
897.224	14617
897.345	14571
897.466	14564
897.587	14511
897.708	14773
897.828	14617
897.949	14571
898.07	14412
898.19	14598
898.311	14712
898.431	14571
898.552	14708
898.672	14765
898.792	14815
898.913	14777
899.033	14655
899.153	14549
899.273	14434
899.393	14495
899.513	14606
899.633	14484
899.753	14579
899.873	14564
899.993	14629
900.113	14587
900.232	14648
900.352	14594
900.472	14461
900.591	14461
900.711	14492
900.83	14480
900.95	14552
901.069	14549
901.189	14431
901.308	14088
901.427	14016
901.546	14100
901.665	14111
901.784	14157
901.904	14039
902.023	13830
902.141	13750
902.26	13658
902.379	13795
902.498	13655
902.617	13651
902.735	13746
902.854	13685
902.973	13662
903.091	13384
903.21	13384
903.328	13415
903.446	13369
903.565	13335
903.683	13232
903.801	13221
903.919	13240
904.038	13244
904.156	13126
904.274	13069
904.392	13042
904.51	13061
904.627	13072
904.745	13149
904.863	13152
904.981	12890
905.098	12806
905.216	12719
905.334	12760
905.451	12741
905.569	12741
905.686	12760
905.803	12783
905.921	12578
906.038	12730
906.155	12688
906.272	12551
906.389	12490
906.506	12365
906.623	12323
906.74	12437
906.857	12273
906.974	12270
907.091	12369
907.208	12479
907.324	12376
907.441	12334
907.557	12060
907.674	12106
907.79	12034
907.907	12102
908.023	12098
908.139	12235
908.256	12087
908.372	12114
908.488	12015
908.604	11874
908.72	11847
908.836	11942
908.952	11805
909.068	11851
909.184	12072
909.3	11813
909.415	11851
909.531	11908
909.647	11684
909.762	11600
909.878	11554
909.993	11596
910.108	11630
910.224	11577
910.339	11668
910.454	11554
910.57	11566
910.685	11345
910.8	11665
910.915	11611
911.03	11493
911.145	11360
911.259	11322
911.374	11322
911.489	11280
911.604	11235
911.718	11041
911.833	11124
911.947	11025
912.062	10919
912.176	11052
912.291	11102
912.405	10995
912.519	11242
912.633	11280
912.748	11140
912.862	11067
912.976	10995
913.09	10778
913.204	10957
913.318	11067
913.431	11037
913.545	10999
913.659	11166
913.772	11010
913.886	10850
914	10843
914.113	10965
914.226	10946
914.34	10938
914.453	10721
914.566	10911
914.68	10816
914.793	10748
914.906	10584
915.019	10573
915.132	10497
915.245	10565
915.358	10584
915.47	10565
915.583	10645
915.696	10599
915.809	10660
915.921	10752
916.034	10554
916.146	10504
916.259	10554
916.371	10641
916.483	10546
916.595	10478
916.708	10569
916.82	10497
916.932	10447
917.044	10497
917.156	10462
917.268	10402
917.38	10432
917.491	10443
917.603	10459
917.715	10523
917.826	10523
917.938	10462
918.049	10299
918.161	10348
918.272	10523
918.384	10466
918.495	10398
918.606	10344
918.717	10192
918.828	10318
918.939	10295
919.05	10238
919.161	10223
919.272	10101
919.383	10188
919.494	10310
919.604	10500
919.715	10325
919.826	10238
919.936	10295
920.047	10466
920.157	10409
920.267	10493
920.378	10371
920.488	10322
920.598	10451
920.708	10683
920.818	10531
920.928	10527
921.038	10618
921.148	10577
921.258	10276
921.368	10219
921.477	10238
921.587	10185
921.697	10010
921.806	10105
921.916	10029
922.025	9964
922.134	9884
922.244	9751
922.353	9884
922.462	9778
922.571	9641
922.68	9663
922.789	9545
922.898	9576
923.007	9557
923.116	9606
923.224	9485
923.333	9564
923.442	9397
923.55	9462
923.659	9447
923.767	9526
923.876	9386
923.984	9568
924.092	9374
924.201	9504
924.309	9355
924.417	9405
924.525	9397
924.633	9329
924.741	10249
924.849	9192
924.956	9382
925.064	9161
925.172	9066
925.279	9146
925.387	9154
925.494	9260
925.602	9332
925.709	9351
925.816	9127
925.924	9195
926.031	9253
926.138	9199
926.245	9283
926.352	9138
926.459	9279
926.566	9344
926.673	9195
926.779	9043
926.886	9116
926.993	8887
927.099	8857
927.206	8727
927.312	8891
927.419	9009
927.525	8910
927.631	8929
927.737	8861
927.843	8788
927.95	8716
928.056	8800
928.162	8773
928.267	8864
928.373	9496
928.479	8880
928.585	8644
928.69	8868
928.796	8823
928.901	8712
929.007	8621
929.112	8746
929.218	8823
929.323	8682
929.428	8625
929.533	8777
929.638	8537
929.743	8564
929.848	8648
929.953	8571
930.058	8499
930.163	8377
930.267	8389
930.372	8469
930.477	8320
930.581	8587
930.685	8503
930.79	8328
930.894	8381
930.998	8362
931.103	8442
931.207	8183
931.311	8092
931.415	7982
931.519	7852
931.623	7818
