Data from test_V78500241_1275.txt Node
Date: Fri Mar 25 14:42:35 CST 2022
User: usil
Spectrometer: V785-0024
Trigger mode: 0
Integration Time (sec): 4.000000E-1
Scans to average: 1
Nonlinearity correction enabled: false
Boxcar width: 0
Storing dark spectrum: false
XAxis mode: Wavelengths
Number of Pixels in Spectrum: 1024
>>>>>Begin Spectral Data<<<<<
801.071	22409
801.214	22265
801.356	22059
801.499	21850
801.641	21648
801.783	21755
801.926	21827
802.068	21736
802.211	21648
802.353	21435
802.496	21146
802.638	21112
802.78	21214
802.923	21138
803.065	21020
803.208	21093
803.35	21062
803.492	21214
803.635	21306
803.777	21077
803.919	21150
804.061	21458
804.204	21222
804.346	21043
804.488	20952
804.63	20914
804.773	20990
804.915	21028
805.057	21100
805.199	21017
805.341	20921
805.483	20975
805.626	21036
805.768	20914
805.91	21039
806.052	21005
806.194	20861
806.336	21058
806.478	21123
806.62	20960
806.762	21047
806.904	21218
807.046	21408
807.188	21332
807.33	21230
807.472	21386
807.614	21420
807.756	21397
807.898	21195
808.04	21214
808.182	21154
808.324	21214
808.465	21264
808.607	21405
808.749	21424
808.891	21701
809.033	21637
809.174	21526
809.316	21428
809.458	21530
809.6	21386
809.741	21412
809.883	21473
810.025	21583
810.166	21530
810.308	21568
810.45	21420
810.591	21439
810.733	21412
810.875	21203
811.016	21150
811.158	21203
811.299	21211
811.441	21291
811.582	21389
811.724	21188
811.865	21256
812.007	21176
812.148	21051
812.29	21310
812.431	21351
812.573	21542
812.714	21637
812.855	21709
812.997	21755
813.138	21793
813.279	21759
813.421	21739
813.562	21439
813.703	21374
813.845	21351
813.986	21055
814.127	20853
814.268	20804
814.41	20708
814.551	20689
814.692	20868
814.833	20636
814.974	20762
815.115	20735
815.256	20640
815.397	20659
815.539	20648
815.68	20454
815.821	20450
815.962	20606
816.103	20507
816.244	20301
816.385	20199
816.526	20180
816.666	20088
816.807	19944
816.948	20046
817.089	20012
817.23	19883
817.371	19894
817.512	19868
817.653	19852
817.793	19841
817.934	19967
818.075	19925
818.216	19818
818.356	19909
818.497	19658
818.638	19510
818.778	19605
818.919	19502
819.06	19590
819.2	19811
819.341	19788
819.481	19791
819.622	19830
819.762	20142
819.903	20001
820.043	19909
820.184	19898
820.324	19894
820.465	19849
820.605	19928
820.746	20039
820.886	19662
821.026	19830
821.167	19909
821.307	20024
821.447	19757
821.588	19807
821.728	19483
821.868	19396
822.008	19270
822.149	19240
822.289	19190
822.429	19000
822.569	18897
822.709	19057
822.849	18741
822.99	18787
823.13	18776
823.27	18711
823.41	18559
823.55	18574
823.69	18669
823.83	18521
823.97	18559
824.11	18369
824.25	18311
824.389	18433
824.529	18433
824.669	18330
824.809	18486
824.949	18399
825.089	18418
825.228	18361
825.368	18197
825.508	18213
825.648	18235
825.787	18247
825.927	18194
826.067	18098
826.206	18041
826.346	18140
826.485	18121
826.625	18087
826.765	18235
826.904	18281
827.044	17874
827.183	17885
827.323	17885
827.462	17859
827.601	17889
827.741	17779
827.88	17874
828.02	17855
828.159	17843
828.298	17832
828.437	17878
828.577	17767
828.716	17969
828.855	17767
828.994	17596
829.134	17627
829.273	17661
829.412	17497
829.551	17520
829.69	17646
829.829	17535
829.968	17767
830.107	17699
830.246	17684
830.385	17532
830.524	17570
830.663	17433
830.802	17299
830.941	17147
831.08	17204
831.219	17311
831.357	17220
831.496	17410
831.635	17197
831.774	17083
831.913	17090
832.051	17102
832.19	17071
832.329	17033
832.467	16919
832.606	16797
832.744	16873
832.883	16927
833.022	16885
833.16	16847
833.299	16911
833.437	17018
833.576	17025
833.714	16892
833.852	16991
833.991	17056
834.129	17109
834.267	17006
834.406	16999
834.544	16976
834.682	17090
834.821	17052
834.959	17151
835.097	16957
835.235	17083
835.373	16995
835.511	17022
835.65	16915
835.788	16889
835.926	16790
836.064	16713
836.202	16607
836.34	16843
836.478	16972
836.615	16889
836.753	16896
836.891	16980
837.029	16953
837.167	16869
837.305	16771
837.443	16774
837.58	16660
837.718	16919
837.856	16767
837.993	16729
838.131	16694
838.269	16622
838.406	16668
838.544	16649
838.681	16516
838.819	16470
838.956	16226
839.094	16329
839.231	16261
839.369	16527
839.506	16691
839.643	16542
839.781	16291
839.918	16211
840.055	16322
840.193	16223
840.33	16318
840.467	16280
840.604	16325
840.742	16542
840.879	16196
841.016	16249
841.153	16147
841.29	16322
841.427	16333
841.564	16310
841.701	16249
841.838	16223
841.975	16215
842.112	16280
842.249	16120
842.385	15994
842.522	16322
842.659	16090
842.796	16093
842.933	16109
843.069	15960
843.206	15926
843.343	16169
843.479	16071
843.616	16135
843.752	15884
843.889	15797
844.025	16036
844.162	15831
844.298	15956
844.435	15884
844.571	15842
844.708	15934
844.844	16036
844.98	15975
845.117	15937
845.253	15903
845.389	15778
845.525	15819
845.661	15846
845.798	15819
845.934	15907
846.07	15762
846.206	15945
846.342	15922
846.478	15778
846.614	15557
846.75	15450
846.886	15310
847.022	15557
847.158	15450
847.294	15500
847.429	15477
847.565	15397
847.701	15675
847.837	15199
847.972	15116
848.108	15203
848.244	15268
848.379	14937
848.515	14921
848.65	15047
848.786	15039
848.921	15089
849.057	15165
849.192	15154
849.328	15066
849.463	15001
849.598	14982
849.734	14967
849.869	14811
850.004	14800
850.14	14785
850.275	14769
850.41	14693
850.545	14804
850.68	14754
850.815	14811
850.95	14769
851.085	14887
851.22	14952
851.355	14769
851.49	14750
851.625	14868
851.76	14739
851.895	14731
852.03	14746
852.165	14735
852.299	14891
852.434	14925
852.569	14830
852.703	14746
852.838	14941
852.973	14891
853.107	14830
853.242	14735
853.376	14674
853.511	14541
853.645	14568
853.78	14731
853.914	14583
854.048	14625
854.183	14613
854.317	14689
854.451	14815
854.585	14636
854.72	14625
854.854	14743
854.988	14533
855.122	14655
855.256	14503
855.39	14606
855.524	14785
855.658	14720
855.792	14640
855.926	14689
856.06	14720
856.194	14773
856.327	14693
856.461	14625
856.595	14610
856.729	14530
856.862	14750
856.996	14724
857.13	14727
857.263	14826
857.397	14758
857.53	14655
857.664	14655
857.797	14754
857.931	14739
858.064	14686
858.197	14754
858.331	14625
858.464	14556
858.597	14499
858.731	14602
858.864	14648
858.997	14644
859.13	14651
859.263	14568
859.396	14815
859.529	14590
859.662	14587
859.795	14617
859.928	14708
860.061	14769
860.194	14929
860.327	14655
860.46	14629
860.592	14769
860.725	14743
860.858	14788
860.99	14708
861.123	14549
861.256	14556
861.388	14724
861.521	15306
861.653	14549
861.786	14552
861.918	14530
862.05	14560
862.183	14488
862.315	14537
862.447	14746
862.58	14594
862.712	14434
862.844	14366
862.976	14469
863.108	14431
863.24	14845
863.372	14362
863.504	14419
863.636	14434
863.768	14499
863.9	14484
864.032	14347
864.164	14374
864.296	14434
864.428	14518
864.559	14575
864.691	14484
864.823	14514
864.954	14431
865.086	14419
865.217	14366
865.349	14336
865.48	14434
865.612	14507
865.743	14541
865.875	14419
866.006	14366
866.137	14389
866.269	14396
866.4	14461
866.531	14419
866.662	14465
866.793	14377
866.924	14396
867.055	14431
867.186	14408
867.317	14389
867.448	14317
867.579	14339
867.71	14275
867.841	14290
867.972	14347
868.103	14450
868.233	14389
868.364	14343
868.495	14564
868.625	14648
868.756	14648
868.886	14556
869.017	14655
869.147	14705
869.278	14765
869.408	14670
869.539	14587
869.669	14705
869.799	14686
869.929	14743
870.06	14655
870.19	14948
870.32	14781
870.45	14921
870.58	15005
870.71	15157
870.84	15104
870.97	15024
871.1	15001
871.23	15218
871.36	15237
871.489	15100
871.619	15199
871.749	15283
871.879	15237
872.008	15378
872.138	15275
872.267	15169
872.397	15028
872.526	15077
872.656	15089
872.785	15150
872.915	15252
873.044	15279
873.173	15207
873.303	15348
873.432	15321
873.561	15386
873.69	15302
873.819	15256
873.948	15348
874.077	15370
874.206	15173
874.335	15340
874.464	15428
874.593	15580
874.722	15526
874.851	15667
874.979	15553
875.108	15629
875.237	15564
875.365	15511
875.494	15599
875.623	15637
875.751	15591
875.88	15724
876.008	15797
876.136	15831
876.265	16006
876.393	16158
876.521	16166
876.65	16135
876.778	16071
876.906	16002
877.034	15991
877.162	16067
877.29	15922
877.418	15987
877.546	16051
877.674	16055
877.802	16036
877.93	15987
878.058	16040
878.185	15987
878.313	16067
878.441	15994
878.568	15899
878.696	15991
878.824	15964
878.951	16128
879.079	16200
879.206	16538
879.333	16272
879.461	16211
879.588	16295
879.715	16253
879.842	16306
879.97	16185
880.097	15911
880.224	15778
880.351	15915
880.478	15918
880.605	15827
880.732	15895
880.859	16158
880.986	15930
881.112	15903
881.239	15717
881.366	15622
881.493	15625
881.619	15587
881.746	15515
881.872	15663
881.999	15450
882.125	15496
882.252	15538
882.378	15618
882.505	15584
882.631	15542
882.757	15306
882.883	15340
883.01	15378
883.136	15317
883.262	15272
883.388	15226
883.514	15313
883.64	15424
883.766	15317
883.892	15123
884.018	15127
884.143	15370
884.269	15405
884.395	15081
884.52	14952
884.646	15028
884.772	14982
884.897	14952
885.023	15017
885.148	15154
885.274	15207
885.399	15142
885.524	15157
885.65	15097
885.775	15077
885.9	15074
886.025	15116
886.15	15173
886.275	14967
886.4	14990
886.525	15017
886.65	14982
886.775	14921
886.9	15165
887.025	15310
887.149	15017
887.274	14887
887.399	14811
887.523	14815
887.648	14872
887.773	14792
887.897	14937
888.021	14960
888.146	14823
888.27	14944
888.395	14956
888.519	14883
888.643	14956
888.767	14998
888.891	14769
889.015	14682
889.139	14796
889.263	14788
889.387	14758
889.511	14880
889.635	14906
889.759	14727
889.883	14781
890.006	14629
890.13	14788
890.254	14651
890.377	14583
890.501	14556
890.624	14560
890.748	14552
890.871	14381
890.995	14377
891.118	14389
891.241	14412
891.364	14480
891.488	14465
891.611	14423
891.734	14450
891.857	14541
891.98	14488
892.103	14514
892.226	14499
892.349	14317
892.471	14263
892.594	14366
892.717	14476
892.839	14317
892.962	14347
893.085	14492
893.207	14423
893.33	14328
893.452	14336
893.575	14473
893.697	14408
893.819	14564
893.941	14571
894.064	14533
894.186	14275
894.308	14351
894.43	14556
894.552	14587
894.674	14457
894.796	14324
894.918	14423
895.04	14446
895.161	14602
895.283	14507
895.405	14480
895.526	14469
895.648	14446
895.769	14450
895.891	14575
896.012	14629
896.134	14636
896.255	14503
896.376	14610
896.498	14587
896.619	14724
896.74	14541
896.861	14648
896.982	14918
897.103	15093
897.224	14880
897.345	14811
897.466	14868
897.587	14686
897.708	15013
897.828	14796
897.949	14861
898.07	14667
898.19	14906
898.311	15036
898.431	14887
898.552	15032
898.672	14982
898.792	15009
898.913	15028
899.033	14746
899.153	14762
899.273	14663
899.393	14712
899.513	14773
899.633	14754
899.753	14712
899.873	14689
899.993	14819
900.113	14632
900.232	14785
900.352	14754
900.472	14678
900.591	14549
900.711	14708
900.83	14560
900.95	14731
901.069	14762
901.189	14583
901.308	14366
901.427	14313
901.546	14328
901.665	14275
901.784	14412
901.904	14221
902.023	14027
902.141	13852
902.26	13974
902.379	13947
902.498	13811
902.617	13780
902.735	13845
902.854	13791
902.973	13772
903.091	13632
903.21	13499
903.328	13578
903.446	13468
903.565	13540
903.683	13403
903.801	13327
903.919	13495
904.038	13411
904.156	13221
904.274	13358
904.392	13251
904.51	13263
904.627	13247
904.745	13194
904.863	13282
904.981	13061
905.098	12928
905.216	12913
905.334	12928
905.451	12970
905.569	12897
905.686	13000
905.803	12951
905.921	12795
906.038	12901
906.155	12753
906.272	12677
906.389	12635
906.506	12559
906.623	12536
906.74	12521
906.857	12407
906.974	12380
907.091	12559
907.208	12700
907.324	12490
907.441	12414
907.557	12308
907.674	12251
907.79	12213
907.907	12228
908.023	12232
908.139	12365
908.256	12209
908.372	12235
908.488	12072
908.604	12019
908.72	11931
908.836	12015
908.952	12019
909.068	11961
909.184	12015
909.3	12019
909.415	12038
909.531	12015
909.647	11786
909.762	11863
909.878	11764
909.993	11897
910.108	11764
910.224	11745
910.339	11737
910.454	11611
910.57	11634
910.685	11585
910.8	11897
910.915	11752
911.03	11653
911.145	11471
911.259	11421
911.374	11455
911.489	11452
911.604	11288
911.718	11239
911.833	11288
911.947	11155
912.062	11056
912.176	11151
912.291	11254
912.405	11140
912.519	11383
912.633	11459
912.748	11311
912.862	11204
912.976	11098
913.09	10934
913.204	11029
913.318	11090
913.431	11162
913.545	11212
913.659	11121
913.772	11117
913.886	10923
914	11010
914.113	11067
914.226	11121
914.34	11056
914.453	10873
914.566	11109
914.68	10938
914.793	10908
914.906	10706
915.019	10679
915.132	10607
915.245	10736
915.358	10767
915.47	10767
915.583	10649
915.696	10706
915.809	10866
915.921	10869
916.034	10767
916.146	10736
916.259	10672
916.371	10752
916.483	10736
916.595	10618
916.708	10763
916.82	10672
916.932	10626
917.044	10592
917.156	10641
917.268	10596
917.38	10542
917.491	10554
917.603	10558
917.715	10622
917.826	10656
917.938	10527
918.049	10470
918.161	10493
918.272	10698
918.384	10672
918.495	10519
918.606	10352
918.717	10390
918.828	10424
918.939	10493
919.05	10421
919.161	10459
919.272	10188
919.383	10299
919.494	10451
919.604	10649
919.715	10470
919.826	10333
919.936	10466
920.047	10481
920.157	10432
920.267	10672
920.378	10440
920.488	10371
920.598	10615
920.708	10733
920.818	10664
920.928	10675
921.038	10782
921.148	10668
921.258	10417
921.368	10371
921.477	10219
921.587	10268
921.697	10112
921.806	10230
921.916	10204
922.025	10059
922.134	9930
922.244	9926
922.353	9975
922.462	9892
922.571	9785
922.68	9713
922.789	9618
922.898	9622
923.007	9603
923.116	9720
923.224	9644
923.333	9671
923.442	9538
923.55	9488
923.659	9545
923.767	9686
923.876	9599
923.984	9568
924.092	9412
924.201	9564
924.309	9534
924.417	9469
924.525	9488
924.633	9412
924.741	10215
924.849	9275
924.956	9450
925.064	9272
925.172	9192
925.279	9268
925.387	9279
925.494	9317
925.602	9466
925.709	9370
925.816	9302
925.924	9294
926.031	9405
926.138	9325
926.245	9389
926.352	9192
926.459	9306
926.566	9355
926.673	9237
926.779	9157
926.886	9180
926.993	9055
927.099	9001
927.206	9058
927.312	8979
927.419	9062
927.525	9001
927.631	9138
927.737	8967
927.843	8971
927.95	8830
928.056	8880
928.162	8967
928.267	8933
928.373	9561
928.479	9009
928.585	8781
928.69	8941
928.796	9017
928.901	8834
929.007	8777
929.112	8864
929.218	8766
929.323	8781
929.428	8773
929.533	8918
929.638	8663
929.743	8735
929.848	8811
929.953	8826
930.058	8594
930.163	8495
930.267	8530
930.372	8705
930.477	8476
930.581	8750
930.685	8632
930.79	8400
930.894	8507
930.998	8507
931.103	8648
931.207	8275
931.311	8157
931.415	8180
931.519	7974
931.623	7906
