Data from test_V78500241_1292.txt Node
Date: Fri Mar 25 14:42:42 CST 2022
User: usil
Spectrometer: V785-0024
Trigger mode: 0
Integration Time (sec): 4.000000E-1
Scans to average: 1
Nonlinearity correction enabled: false
Boxcar width: 0
Storing dark spectrum: false
XAxis mode: Wavelengths
Number of Pixels in Spectrum: 1024
>>>>>Begin Spectral Data<<<<<
801.071	22508
801.214	22242
801.356	21994
801.499	21998
801.641	21682
801.783	21698
801.926	21739
802.068	21934
802.211	21622
802.353	21466
802.496	21447
802.638	21351
802.78	21214
802.923	21123
803.065	21157
803.208	21138
803.35	21146
803.492	21275
803.635	21192
803.777	21112
803.919	21192
804.061	21431
804.204	21214
804.346	21070
804.488	20967
804.63	21135
804.773	20967
804.915	21055
805.057	21112
805.199	20960
805.341	21055
805.483	21074
805.626	21195
805.768	20967
805.91	20853
806.052	20986
806.194	20944
806.336	21165
806.478	21066
806.62	21055
806.762	21077
806.904	21230
807.046	21504
807.188	21298
807.33	21370
807.472	21405
807.614	21298
807.756	21321
807.898	21264
808.04	21066
808.182	21188
808.324	21329
808.465	21249
808.607	21538
808.749	21606
808.891	21576
809.033	21739
809.174	21694
809.316	21637
809.458	21542
809.6	21401
809.741	21538
809.883	21580
810.025	21625
810.166	21538
810.308	21557
810.45	21496
810.591	21454
810.733	21439
810.875	21363
811.016	21116
811.158	21169
811.299	21241
811.441	21203
811.582	21401
811.724	21272
811.865	21195
812.007	21203
812.148	21214
812.29	21294
812.431	21344
812.573	21431
812.714	21622
812.855	21774
812.997	21793
813.138	21930
813.279	21823
813.421	21701
813.562	21561
813.703	21637
813.845	21317
813.986	21127
814.127	20944
814.268	20823
814.41	20872
814.551	20792
814.692	20910
814.833	20739
814.974	20625
815.115	20743
815.256	20659
815.397	20545
815.539	20583
815.68	20526
815.821	20526
815.962	20583
816.103	20404
816.244	20233
816.385	20370
816.526	20298
816.666	20069
816.807	19959
816.948	19917
817.089	20027
817.23	19898
817.371	19974
817.512	19830
817.653	19818
817.793	19898
817.934	19909
818.075	19902
818.216	19974
818.356	19788
818.497	19818
818.638	19643
818.778	19601
818.919	19719
819.06	19601
819.2	19814
819.341	19753
819.481	19761
819.622	19989
819.762	20225
819.903	20062
820.043	19944
820.184	19970
820.324	19902
820.465	19898
820.605	19715
820.746	19807
820.886	19708
821.026	19925
821.167	19864
821.307	19959
821.447	19826
821.588	19643
821.728	19483
821.868	19472
822.008	19324
822.149	19255
822.289	19263
822.429	19050
822.569	19004
822.709	18916
822.849	18738
822.99	18810
823.13	18745
823.27	18795
823.41	18494
823.55	18654
823.69	18547
823.83	18521
823.97	18448
824.11	18403
824.25	18327
824.389	18357
824.529	18509
824.669	18403
824.809	18429
824.949	18391
825.089	18384
825.228	18448
825.368	18254
825.508	18205
825.648	18239
825.787	18159
825.927	18224
826.067	18026
826.206	18060
826.346	18201
826.485	18155
826.625	18163
826.765	18076
826.904	18251
827.044	17927
827.183	17901
827.323	17737
827.462	17863
827.601	17923
827.741	17901
827.88	17866
828.02	17748
828.159	17832
828.298	17805
828.437	17965
828.577	17828
828.716	17992
828.855	17843
828.994	17642
829.134	17642
829.273	17684
829.412	17520
829.551	17581
829.69	17646
829.829	17577
829.968	17699
830.107	17710
830.246	17649
830.385	17554
830.524	17421
830.663	17280
830.802	17315
830.941	17250
831.08	17159
831.219	17345
831.357	17280
831.496	17444
831.635	17212
831.774	17075
831.913	17208
832.051	16987
832.19	16953
832.329	16987
832.467	17014
832.606	16858
832.744	16896
832.883	16991
833.022	16896
833.16	16976
833.299	17067
833.437	16946
833.576	16965
833.714	16991
833.852	16949
833.991	17022
834.129	17178
834.267	16930
834.406	16965
834.544	16942
834.682	16995
834.821	17037
834.959	17094
835.097	16809
835.235	17056
835.373	17079
835.511	17003
835.65	16942
835.788	16919
835.926	16630
836.064	16702
836.202	16740
836.34	16980
836.478	16995
836.615	16908
836.753	16911
836.891	16965
837.029	16972
837.167	16885
837.305	16816
837.443	16816
837.58	16656
837.718	16843
837.856	16809
837.993	16733
838.131	16748
838.269	16615
838.406	16698
838.544	16664
838.681	16455
838.819	16470
838.956	16226
839.094	16261
839.231	16265
839.369	16344
839.506	16706
839.643	16615
839.781	16280
839.918	16261
840.055	16348
840.193	16394
840.33	16169
840.467	16280
840.604	16333
840.742	16508
840.879	16181
841.016	16246
841.153	16234
841.29	16386
841.427	16181
841.564	16348
841.701	16265
841.838	16177
841.975	16112
842.112	16166
842.249	16128
842.385	15987
842.522	16188
842.659	16006
842.796	15998
842.933	16131
843.069	15949
843.206	16025
843.343	16204
843.479	16055
843.616	16128
843.752	15850
843.889	15922
844.025	15964
844.162	15873
844.298	15930
844.435	15854
844.571	15850
844.708	15968
844.844	16059
844.98	15994
845.117	15888
845.253	15797
845.389	15709
845.525	15926
845.661	15857
845.798	15846
845.934	15899
846.07	15842
846.206	15911
846.342	15892
846.478	15800
846.614	15553
846.75	15336
846.886	15370
847.022	15511
847.158	15382
847.294	15477
847.429	15428
847.565	15325
847.701	15656
847.837	15161
847.972	15237
848.108	15302
848.244	15287
848.379	15157
848.515	15005
848.65	15032
848.786	15043
848.921	14986
849.057	15119
849.192	15131
849.328	15097
849.463	15066
849.598	14963
849.734	14998
849.869	14933
850.004	14830
850.14	14750
850.275	14762
850.41	14686
850.545	14785
850.68	14765
850.815	14788
850.95	14644
851.085	14967
851.22	14857
851.355	14765
851.49	14697
851.625	14834
851.76	14769
851.895	14758
852.03	14689
852.165	14769
852.299	14868
852.434	14883
852.569	14731
852.703	14773
852.838	14941
852.973	15001
853.107	14902
853.242	14815
853.376	14712
853.511	14484
853.645	14621
853.78	14792
853.914	14606
854.048	14610
854.183	14621
854.317	14640
854.451	14845
854.585	14598
854.72	14670
854.854	14678
854.988	14514
855.122	14701
855.256	14541
855.39	14545
855.524	14705
855.658	14708
855.792	14636
855.926	14682
856.06	14781
856.194	14819
856.327	14610
856.461	14674
856.595	14579
856.729	14549
856.862	14724
856.996	14697
857.13	14750
857.263	14815
857.397	14746
857.53	14625
857.664	14785
857.797	14720
857.931	14815
858.064	14663
858.197	14746
858.331	14644
858.464	14541
858.597	14522
858.731	14636
858.864	14659
858.997	14587
859.13	14678
859.263	14659
859.396	14693
859.529	14613
859.662	14579
859.795	14564
859.928	14651
860.061	14667
860.194	14845
860.327	14686
860.46	14689
860.592	14739
860.725	14724
860.858	14811
860.99	14727
861.123	14579
861.256	14602
861.388	14667
861.521	15428
861.653	14640
861.786	14514
861.918	14446
862.05	14644
862.183	14625
862.315	14552
862.447	14617
862.58	14571
862.712	14385
862.844	14294
862.976	14495
863.108	14492
863.24	14925
863.372	14396
863.504	14362
863.636	14473
863.768	14492
863.9	14423
864.032	14381
864.164	14355
864.296	14446
864.428	14533
864.559	14503
864.691	14530
864.823	14385
864.954	14492
865.086	14366
865.217	14400
865.349	14412
865.48	14404
865.612	14419
865.743	14465
865.875	14362
866.006	14332
866.137	14438
866.269	14473
866.4	14358
866.531	14446
866.662	14362
866.793	14328
866.924	14404
867.055	14469
867.186	14434
867.317	14404
867.448	14271
867.579	14370
867.71	14278
867.841	14351
867.972	14442
868.103	14366
868.233	14377
868.364	14351
868.495	14549
868.625	14537
868.756	14792
868.886	14575
869.017	14648
869.147	14754
869.278	14804
869.408	14674
869.539	14708
869.669	14720
869.799	14636
869.929	14842
870.06	14697
870.19	14979
870.32	14902
870.45	15055
870.58	15017
870.71	15066
870.84	15127
870.97	15020
871.1	14986
871.23	15256
871.36	15207
871.489	15047
871.619	15146
871.749	15336
871.879	15241
872.008	15397
872.138	15245
872.267	15176
872.397	15097
872.526	15017
872.656	15077
872.785	15131
872.915	15222
873.044	15291
873.173	15275
873.303	15332
873.432	15317
873.561	15420
873.69	15344
873.819	15310
873.948	15370
874.077	15310
874.206	15252
874.335	15351
874.464	15431
874.593	15610
874.722	15526
874.851	15599
874.979	15747
875.108	15629
875.237	15526
875.365	15450
875.494	15462
875.623	15675
875.751	15564
875.88	15720
876.008	15732
876.136	15816
876.265	15953
876.393	16204
876.521	16006
876.65	16097
876.778	16071
876.906	16025
877.034	15972
877.162	15968
877.29	15975
877.418	16086
877.546	15991
877.674	15949
877.802	15998
877.93	16017
878.058	15975
878.185	15846
878.313	16006
878.441	16013
878.568	15892
878.696	15953
878.824	15975
878.951	16188
879.079	16318
879.206	16382
879.333	16272
879.461	16109
879.588	16169
879.715	16322
879.842	16386
879.97	16128
880.097	15934
880.224	15895
880.351	15949
880.478	15892
880.605	15934
880.732	15869
880.859	16078
880.986	15842
881.112	15953
881.239	15823
881.366	15648
881.493	15595
881.619	15610
881.746	15584
881.872	15519
881.999	15500
882.125	15485
882.252	15534
882.378	15564
882.505	15591
882.631	15545
882.757	15359
882.883	15386
883.01	15370
883.136	15382
883.262	15142
883.388	15207
883.514	15412
883.64	15405
883.766	15317
883.892	15180
884.018	15207
884.143	15336
884.269	15443
884.395	15192
884.52	14998
884.646	15104
884.772	15051
884.897	15013
885.023	15032
885.148	15108
885.274	15203
885.399	15214
885.524	15047
885.65	15001
885.775	15089
885.9	15032
886.025	15176
886.15	15150
886.275	14921
886.4	14960
886.525	15020
886.65	15001
886.775	15013
886.9	15119
887.025	15173
887.149	15066
887.274	14975
887.399	14834
887.523	14785
887.648	14758
887.773	14773
887.897	14963
888.021	15047
888.146	14811
888.27	14975
888.395	15024
888.519	14982
888.643	14941
888.767	14921
888.891	14861
889.015	14712
889.139	14781
889.263	14667
889.387	14788
889.511	14864
889.635	14883
889.759	14750
889.883	14792
890.006	14743
890.13	14773
890.254	14636
890.377	14579
890.501	14454
890.624	14564
890.748	14640
890.871	14442
890.995	14355
891.118	14442
891.241	14415
891.364	14393
891.488	14537
891.611	14431
891.734	14400
891.857	14419
891.98	14499
892.103	14473
892.226	14370
892.349	14370
892.471	14290
892.594	14343
892.717	14423
892.839	14320
892.962	14412
893.085	14393
893.207	14370
893.33	14271
893.452	14320
893.575	14469
893.697	14415
893.819	14492
893.941	14689
894.064	14575
894.186	14393
894.308	14381
894.43	14632
894.552	14564
894.674	14571
894.796	14355
894.918	14522
895.04	14343
895.161	14484
895.283	14518
895.405	14412
895.526	14492
895.648	14461
895.769	14503
895.891	14590
896.012	14697
896.134	14613
896.255	14606
896.376	14583
896.498	14560
896.619	14495
896.74	14583
896.861	14648
896.982	14910
897.103	15028
897.224	14781
897.345	14815
897.466	14819
897.587	14788
897.708	15009
897.828	14838
897.949	14830
898.07	14648
898.19	14777
898.311	14998
898.431	14941
898.552	14910
898.672	14933
898.792	14998
898.913	14834
899.033	14838
899.153	14727
899.273	14705
899.393	14697
899.513	14724
899.633	14682
899.753	14758
899.873	14735
899.993	14857
900.113	14663
900.232	14769
900.352	14731
900.472	14587
900.591	14636
900.711	14682
900.83	14587
900.95	14678
901.069	14716
901.189	14518
901.308	14244
901.427	14313
901.546	14206
901.665	14347
901.784	14305
901.904	14172
902.023	14134
902.141	13860
902.26	13887
902.379	13959
902.498	13947
902.617	13769
902.735	13776
902.854	13795
902.973	13784
903.091	13586
903.21	13540
903.328	13487
903.446	13525
903.565	13453
903.683	13430
903.801	13388
903.919	13422
904.038	13354
904.156	13206
904.274	13381
904.392	13240
904.51	13221
904.627	13164
904.745	13308
904.863	13285
904.981	13145
905.098	12856
905.216	12916
905.334	12909
905.451	12947
905.569	12924
905.686	12920
905.803	12890
905.921	12802
906.038	12825
906.155	12779
906.272	12604
906.389	12673
906.506	12570
906.623	12460
906.74	12506
906.857	12330
906.974	12414
907.091	12563
907.208	12642
907.324	12532
907.441	12509
907.557	12281
907.674	12254
907.79	12186
907.907	12224
908.023	12300
908.139	12247
908.256	12136
908.372	12216
908.488	12163
908.604	11996
908.72	12034
908.836	12087
908.952	11965
909.068	12045
909.184	12068
909.3	11999
909.415	12076
909.531	11996
909.647	11752
909.762	11836
909.878	11756
909.993	11748
910.108	11741
910.224	11794
910.339	11745
910.454	11695
910.57	11608
910.685	11547
910.8	11885
910.915	11741
911.03	11630
911.145	11425
911.259	11444
911.374	11467
911.489	11341
911.604	11341
911.718	11231
911.833	11246
911.947	11064
912.062	11010
912.176	11166
912.291	11318
912.405	11315
912.519	11383
912.633	11337
912.748	11288
912.862	11322
912.976	11075
913.09	10904
913.204	11029
913.318	11109
913.431	11197
913.545	11197
913.659	11269
913.772	11060
913.886	11060
914	10923
914.113	11022
914.226	11143
914.34	11056
914.453	10919
914.566	11006
914.68	10911
914.793	10942
914.906	10748
915.019	10744
915.132	10687
915.245	10725
915.358	10809
915.47	10790
915.583	10786
915.696	10847
915.809	10866
915.921	10831
916.034	10797
916.146	10687
916.259	10733
916.371	10786
916.483	10706
916.595	10664
916.708	10668
916.82	10706
916.932	10687
917.044	10687
917.156	10645
917.268	10519
917.38	10565
917.491	10599
917.603	10664
917.715	10615
917.826	10626
917.938	10580
918.049	10466
918.161	10538
918.272	10645
918.384	10698
918.495	10645
918.606	10516
918.717	10363
918.828	10405
918.939	10481
919.05	10352
919.161	10402
919.272	10310
919.383	10268
919.494	10440
919.604	10725
919.715	10508
919.826	10375
919.936	10413
920.047	10607
920.157	10489
920.267	10683
920.378	10493
920.488	10462
920.598	10679
920.708	10900
920.818	10603
920.928	10672
921.038	10786
921.148	10809
921.258	10554
921.368	10443
921.477	10432
921.587	10325
921.697	10181
921.806	10325
921.916	10234
922.025	10109
922.134	10040
922.244	10010
922.353	10071
922.462	9953
922.571	9835
922.68	9705
922.789	9663
922.898	9785
923.007	9606
923.116	9732
923.224	9720
923.333	9698
923.442	9618
923.55	9633
923.659	9549
923.767	9591
923.876	9542
923.984	9648
924.092	9462
924.201	9629
924.309	9614
924.417	9538
924.525	9447
924.633	9580
924.741	10310
924.849	9291
924.956	9420
925.064	9389
925.172	9237
925.279	9325
925.387	9378
925.494	9321
925.602	9507
925.709	9420
925.816	9332
925.924	9424
926.031	9428
926.138	9332
926.245	9340
926.352	9207
926.459	9428
926.566	9424
926.673	9310
926.779	9184
926.886	9176
926.993	9085
927.099	9013
927.206	9074
927.312	9001
927.419	9108
927.525	9070
927.631	9089
927.737	8994
927.843	8899
927.95	8826
928.056	8982
928.162	8880
928.267	9055
928.373	9584
928.479	9001
928.585	8766
928.69	8899
928.796	9043
928.901	8781
929.007	8762
929.112	8880
929.218	8766
929.323	8838
929.428	8750
929.533	8918
929.638	8674
929.743	8746
929.848	8777
929.953	8739
930.058	8621
930.163	8503
930.267	8610
930.372	8674
930.477	8492
930.581	8746
930.685	8606
930.79	8454
930.894	8545
930.998	8434
931.103	8606
931.207	8206
931.311	8172
931.415	8149
931.519	7951
931.623	7940
