Data from test_V78500241_3440.txt Node
Date: Fri Mar 25 14:57:40 CST 2022
User: usil
Spectrometer: V785-0024
Trigger mode: 0
Integration Time (sec): 4.000000E-1
Scans to average: 1
Nonlinearity correction enabled: false
Boxcar width: 0
Storing dark spectrum: false
XAxis mode: Wavelengths
Number of Pixels in Spectrum: 1024
>>>>>Begin Spectral Data<<<<<
801.071	21892
801.214	21800
801.356	21682
801.499	21466
801.641	21393
801.783	21260
801.926	21233
802.068	21142
802.211	21199
802.353	21085
802.496	20975
802.638	20826
802.78	20785
802.923	20674
803.065	20617
803.208	20571
803.35	20632
803.492	20804
803.635	20663
803.777	20667
803.919	20667
804.061	20891
804.204	20655
804.346	20518
804.488	20545
804.63	20682
804.773	20499
804.915	20415
805.057	20655
805.199	20396
805.341	20594
805.483	20613
805.626	20674
805.768	20476
805.91	20632
806.052	20488
806.194	20431
806.336	20682
806.478	20568
806.62	20598
806.762	20457
806.904	20682
807.046	20853
807.188	20925
807.33	20781
807.472	20921
807.614	20750
807.756	20739
807.898	20606
808.04	20503
808.182	20606
808.324	20613
808.465	20689
808.607	20891
808.749	20815
808.891	21020
809.033	21032
809.174	20994
809.316	20750
809.458	20842
809.6	20861
809.741	20899
809.883	20990
810.025	21081
810.166	21104
810.308	21039
810.45	20891
810.591	20727
810.733	20902
810.875	20682
811.016	20552
811.158	20621
811.299	20609
811.441	20739
811.582	20807
811.724	20708
811.865	20514
812.007	20720
812.148	20632
812.29	20632
812.431	20701
812.573	20826
812.714	20967
812.855	21188
812.997	21249
813.138	21348
813.279	21222
813.421	21222
813.562	21112
813.703	20937
813.845	20811
813.986	20556
814.127	20377
814.268	20267
814.41	20358
814.551	20122
814.692	20176
814.833	20088
814.974	20134
815.115	20214
815.256	20084
815.397	20145
815.539	20050
815.68	19970
815.821	19955
815.962	19928
816.103	19902
816.244	19738
816.385	19594
816.526	19533
816.666	19438
816.807	19247
816.948	19445
817.089	19327
817.23	19278
817.371	19339
817.512	19179
817.653	19343
817.793	19190
817.934	19335
818.075	19419
818.216	19255
818.356	19259
818.497	19072
818.638	19050
818.778	18916
818.919	19053
819.06	19053
819.2	19175
819.341	19072
819.481	19171
819.622	19384
819.762	19510
819.903	19453
820.043	19358
820.184	19263
820.324	19266
820.465	19316
820.605	19384
820.746	19175
820.886	19076
821.026	19164
821.167	19202
821.307	19240
821.447	19255
821.588	19160
821.728	18909
821.868	18939
822.008	18719
822.149	18703
822.289	18627
822.429	18452
822.569	18433
822.709	18494
822.849	18148
822.99	18148
823.13	18095
823.27	18129
823.41	17988
823.55	17920
823.69	18106
823.83	18019
823.97	17992
824.11	17882
824.25	17809
824.389	17794
824.529	17874
824.669	17722
824.809	17904
824.949	17870
825.089	17863
825.228	17866
825.368	17566
825.508	17497
825.648	17649
825.787	17672
825.927	17611
826.067	17535
826.206	17589
826.346	17634
826.485	17573
826.625	17592
826.765	17726
826.904	17566
827.044	17318
827.183	17284
827.323	17178
827.462	17254
827.601	17330
827.741	17189
827.88	17246
828.02	17079
828.159	17193
828.298	17261
828.437	17292
828.577	17170
828.716	17417
828.855	17200
828.994	17010
829.134	17048
829.273	17121
829.412	17037
829.551	16854
829.69	17052
829.829	16991
829.968	17041
830.107	17079
830.246	17045
830.385	16995
830.524	16915
830.663	16904
830.802	16835
830.941	16698
831.08	16603
831.219	16752
831.357	16809
831.496	16923
831.635	16653
831.774	16672
831.913	16569
832.051	16447
832.19	16447
832.329	16535
832.467	16352
832.606	16272
832.744	16348
832.883	16322
833.022	16318
833.16	16337
833.299	16375
833.437	16337
833.576	16314
833.714	16398
833.852	16459
833.991	16405
834.129	16428
834.267	16550
834.406	16447
834.544	16409
834.682	16344
834.821	16432
834.959	16687
835.097	16402
835.235	16493
835.373	16348
835.511	16455
835.65	16284
835.788	16329
835.926	16299
836.064	16059
836.202	16276
836.34	16409
836.478	16402
836.615	16299
836.753	16394
836.891	16466
837.029	16287
837.167	16295
837.305	16207
837.443	16310
837.58	16219
837.718	16265
837.856	16211
837.993	16211
838.131	16169
838.269	16112
838.406	16185
838.544	16109
838.681	15983
838.819	15781
838.956	15888
839.094	15838
839.231	15846
839.369	15899
839.506	16177
839.643	16006
839.781	15739
839.918	15774
840.055	15831
840.193	15732
840.33	15717
840.467	15679
840.604	15861
840.742	16040
840.879	15694
841.016	15823
841.153	15671
841.29	15895
841.427	15827
841.564	15819
841.701	15720
841.838	15755
841.975	15713
842.112	15694
842.249	15584
842.385	15576
842.522	15747
842.659	15648
842.796	15507
842.933	15564
843.069	15568
843.206	15553
843.343	15622
843.479	15610
843.616	15637
843.752	15283
843.889	15428
844.025	15397
844.162	15313
844.298	15428
844.435	15348
844.571	15275
844.708	15310
844.844	15496
844.98	15488
845.117	15447
845.253	15283
845.389	15252
845.525	15344
845.661	15207
845.798	15081
845.934	15283
846.07	15207
846.206	15264
846.342	15180
846.478	15039
846.614	15017
846.75	14887
846.886	14895
847.022	15028
847.158	14960
847.294	15013
847.429	14982
847.565	14891
847.701	15195
847.837	14632
847.972	14598
848.108	14716
848.244	14648
848.379	14568
848.515	14571
848.65	14541
848.786	14495
848.921	14507
849.057	14731
849.192	14594
849.328	14583
849.463	14476
849.598	14461
849.734	14484
849.869	14377
850.004	14309
850.14	14385
850.275	14328
850.41	14275
850.545	14286
850.68	14240
850.815	14355
850.95	14317
851.085	14469
851.22	14370
851.355	14336
851.49	14240
851.625	14286
851.76	14206
851.895	14115
852.03	14202
852.165	14259
852.299	14263
852.434	14317
852.569	14332
852.703	14271
852.838	14324
852.973	14469
853.107	14461
853.242	14282
853.376	14180
853.511	14069
853.645	14142
853.78	14351
853.914	14119
854.048	14183
854.183	14077
854.317	14130
854.451	14332
854.585	14100
854.72	14073
854.854	14233
854.988	14039
855.122	14115
855.256	14020
855.39	14134
855.524	14339
855.658	14145
855.792	14180
855.926	14218
856.06	14229
856.194	14229
856.327	14130
856.461	14096
856.595	14050
856.729	14046
856.862	14271
856.996	14180
857.13	14202
857.263	14244
857.397	14210
857.53	14229
857.664	14278
857.797	14324
857.931	14267
858.064	14199
858.197	14248
858.331	14294
858.464	14054
858.597	14031
858.731	14050
858.864	14069
858.997	14138
859.13	14157
859.263	14210
859.396	14290
859.529	14206
859.662	14130
859.795	14050
859.928	14111
860.061	14355
860.194	14351
860.327	14153
860.46	14138
860.592	14271
860.725	14244
860.858	14271
860.99	14157
861.123	14157
861.256	14077
861.388	14115
861.521	14872
861.653	14039
861.786	14046
861.918	14058
862.05	14164
862.183	14123
862.315	14111
862.447	14115
862.58	14081
862.712	13845
862.844	13974
862.976	13982
863.108	13997
863.24	14454
863.372	13776
863.504	13913
863.636	13864
863.768	14046
863.9	13879
864.032	13887
864.164	13906
864.296	13898
864.428	13921
864.559	14054
864.691	14012
864.823	14001
864.954	13921
865.086	13993
865.217	13887
865.349	13780
865.48	13925
865.612	13993
865.743	14035
865.875	13993
866.006	14005
866.137	13959
866.269	13925
866.4	13856
866.531	13940
866.662	13879
866.793	13833
866.924	13951
867.055	13932
867.186	13936
867.317	13970
867.448	13708
867.579	13894
867.71	13826
867.841	13818
867.972	13947
868.103	13841
868.233	13917
868.364	13898
868.495	13989
868.625	14092
868.756	14244
868.886	13974
869.017	14183
869.147	14362
869.278	14381
869.408	14092
869.539	14126
869.669	14180
869.799	14259
869.929	14320
870.06	14153
870.19	14419
870.32	14480
870.45	14541
870.58	14549
870.71	14655
870.84	14648
870.97	14579
871.1	14632
871.23	14883
871.36	14750
871.489	14716
871.619	14724
871.749	14891
871.879	14750
872.008	14842
872.138	14663
872.267	14781
872.397	14724
872.526	14632
872.656	14590
872.785	14533
872.915	14796
873.044	14861
873.173	14735
873.303	14834
873.432	14838
873.561	14948
873.69	14830
873.819	14918
873.948	14895
874.077	14819
874.206	14750
874.335	14883
874.464	15081
874.593	14998
874.722	15074
874.851	15150
874.979	15203
875.108	15188
875.237	15112
875.365	15165
875.494	15112
875.623	15154
875.751	15108
875.88	15116
876.008	15321
876.136	15355
876.265	15549
876.393	15644
876.521	15675
876.65	15629
876.778	15504
876.906	15542
877.034	15542
877.162	15507
877.29	15538
877.418	15549
877.546	15595
877.674	15515
877.802	15629
877.93	15507
878.058	15462
878.185	15325
878.313	15561
878.441	15530
878.568	15454
878.696	15511
878.824	15595
878.951	15584
879.079	15682
879.206	15865
879.333	15728
879.461	15564
879.588	15728
879.715	15755
879.842	15876
879.97	15675
880.097	15523
880.224	15428
880.351	15439
880.478	15466
880.605	15313
880.732	15416
880.859	15633
880.986	15450
881.112	15424
881.239	15344
881.366	15207
881.493	15203
881.619	15024
881.746	15051
881.872	15051
881.999	15009
882.125	15066
882.252	15005
882.378	15085
882.505	15218
882.631	15005
882.757	14941
882.883	15032
883.01	14918
883.136	14781
883.262	14746
883.388	14712
883.514	14887
883.64	14899
883.766	14937
883.892	14674
884.018	14762
884.143	14925
884.269	14986
884.395	14564
884.52	14564
884.646	14602
884.772	14613
884.897	14370
885.023	14708
885.148	14648
885.274	14712
885.399	14686
885.524	14629
885.65	14667
885.775	14617
885.9	14568
886.025	14708
886.15	14659
886.275	14549
886.4	14503
886.525	14590
886.65	14514
886.775	14400
886.9	14686
887.025	14792
887.149	14545
887.274	14480
887.399	14332
887.523	14457
887.648	14404
887.773	14404
887.897	14465
888.021	14473
888.146	14351
888.27	14476
888.395	14526
888.519	14431
888.643	14556
888.767	14480
888.891	14374
889.015	14168
889.139	14187
889.263	14271
889.387	14370
889.511	14549
889.635	14541
889.759	14347
889.883	14301
890.006	14305
890.13	14309
890.254	14202
890.377	14309
890.501	14130
890.624	14065
890.748	14214
890.871	14092
890.995	14043
891.118	13959
891.241	13936
891.364	13963
891.488	14153
891.611	13936
891.734	13928
891.857	13989
891.98	14020
892.103	14039
892.226	13993
892.349	13913
892.471	13814
892.594	14001
892.717	14027
892.839	13928
892.962	14024
893.085	14012
893.207	14012
893.33	13860
893.452	13928
893.575	14069
893.697	14016
893.819	14206
893.941	14225
894.064	14126
894.186	13887
894.308	13989
894.43	14130
894.552	14142
894.674	14138
894.796	13982
894.918	13963
895.04	14065
895.161	14138
895.283	14111
895.405	14084
895.526	14164
895.648	14084
895.769	14153
895.891	14172
896.012	14282
896.134	14187
896.255	14100
896.376	14100
896.498	14176
896.619	14153
896.74	14153
896.861	14172
896.982	14495
897.103	14602
897.224	14495
897.345	14469
897.466	14286
897.587	14377
897.708	14473
897.828	14507
897.949	14339
898.07	14221
898.19	14408
898.311	14556
898.431	14469
898.552	14446
898.672	14552
898.792	14575
898.913	14552
899.033	14415
899.153	14377
899.273	14229
899.393	14332
899.513	14298
899.633	14324
899.753	14385
899.873	14347
899.993	14469
900.113	14313
900.232	14389
900.352	14336
900.472	14195
900.591	14164
900.711	14218
900.83	14164
900.95	14229
901.069	14317
901.189	14176
901.308	14005
901.427	13894
901.546	13967
901.665	13932
901.784	13921
901.904	13864
902.023	13624
902.141	13506
902.26	13567
902.379	13578
902.498	13445
902.617	13373
902.735	13575
902.854	13495
902.973	13499
903.091	13133
903.21	13137
903.328	13206
903.446	13126
903.565	13031
903.683	13107
903.801	13080
903.919	12989
904.038	13042
904.156	12833
904.274	13027
904.392	12859
904.51	12658
904.627	12837
904.745	12875
904.863	12856
904.981	12791
905.098	12612
905.216	12597
905.334	12574
905.451	12547
905.569	12490
905.686	12719
905.803	12559
905.921	12315
906.038	12563
906.155	12391
906.272	12342
906.389	12308
906.506	12121
906.623	12136
906.74	12121
906.857	11950
906.974	12083
907.091	12277
907.208	12300
907.324	12205
907.441	12121
907.557	11897
907.674	11958
907.79	11821
907.907	11840
908.023	11973
908.139	11851
908.256	11870
908.372	11821
908.488	11885
908.604	11691
908.72	11676
908.836	11611
908.952	11592
909.068	11668
909.184	11771
909.3	11672
909.415	11767
909.531	11676
909.647	11452
909.762	11429
909.878	11436
909.993	11410
910.108	11376
910.224	11330
910.339	11395
910.454	11379
910.57	11231
910.685	11102
910.8	11493
910.915	11516
911.03	11288
911.145	11197
911.259	11212
911.374	11231
911.489	11045
911.604	10953
911.718	10869
911.833	10984
911.947	10797
912.062	10653
912.176	10835
912.291	10885
912.405	10812
912.519	11124
912.633	11060
912.748	10972
912.862	10892
912.976	10877
913.09	10622
913.204	10774
913.318	10748
913.431	10801
913.545	10942
913.659	10877
913.772	10771
913.886	10710
914	10615
914.113	10778
914.226	10866
914.34	10683
914.453	10615
914.566	10679
914.68	10630
914.793	10603
914.906	10405
915.019	10329
915.132	10341
915.245	10363
915.358	10413
915.47	10462
915.583	10371
915.696	10451
915.809	10550
915.921	10535
916.034	10306
916.146	10306
916.259	10382
916.371	10398
916.483	10352
916.595	10253
916.708	10333
916.82	10375
916.932	10287
917.044	10394
917.156	10356
917.268	10253
917.38	10287
917.491	10230
917.603	10299
917.715	10318
917.826	10344
917.938	10219
918.049	10200
918.161	10246
918.272	10436
918.384	10428
918.495	10299
918.606	10071
918.717	10055
918.828	10158
918.939	10158
919.05	9972
919.161	10139
919.272	9907
919.383	9983
919.494	10154
919.604	10424
919.715	10173
919.826	10029
919.936	10101
920.047	10192
920.157	10139
920.267	10291
920.378	10135
920.488	10112
920.598	10318
920.708	10455
920.818	10413
920.928	10344
921.038	10535
921.148	10455
921.258	10169
921.368	10131
921.477	10044
921.587	9979
921.697	9892
921.806	9960
921.916	9884
922.025	9793
922.134	9728
922.244	9606
922.353	9766
922.462	9603
922.571	9515
922.68	9378
922.789	9416
922.898	9378
923.007	9287
923.116	9424
923.224	9370
923.333	9321
923.442	9291
923.55	9222
923.659	9226
923.767	9313
923.876	9313
923.984	9332
924.092	9195
924.201	9260
924.309	9291
924.417	9253
924.525	9184
924.633	9279
924.741	10166
924.849	9081
924.956	9249
925.064	9020
925.172	8963
925.279	9005
925.387	9081
925.494	9036
925.602	9169
925.709	9058
925.816	9032
925.924	9081
926.031	9093
926.138	9074
926.245	9123
926.352	8963
926.459	9089
926.566	9119
926.673	9013
926.779	8967
926.886	8895
926.993	8807
927.099	8724
927.206	8720
927.312	8769
927.419	8781
927.525	8811
927.631	8785
927.737	8701
927.843	8640
927.95	8537
928.056	8678
928.162	8693
928.267	8705
928.373	9340
928.479	8743
928.585	8499
928.69	8686
928.796	8648
928.901	8648
929.007	8434
929.112	8659
929.218	8499
929.323	8492
929.428	8476
929.533	8606
929.638	8393
929.743	8423
929.848	8587
929.953	8480
930.058	8400
930.163	8195
930.267	8267
930.372	8381
930.477	8195
930.581	8427
930.685	8317
930.79	8259
930.894	8168
930.998	8168
931.103	8324
931.207	7993
931.311	7917
931.415	7868
931.519	7746
931.623	7727
