Data from test_V78500241_3047.txt Node
Date: Fri Mar 25 14:54:55 CST 2022
User: usil
Spectrometer: V785-0024
Trigger mode: 0
Integration Time (sec): 4.000000E-1
Scans to average: 1
Nonlinearity correction enabled: false
Boxcar width: 0
Storing dark spectrum: false
XAxis mode: Wavelengths
Number of Pixels in Spectrum: 1024
>>>>>Begin Spectral Data<<<<<
801.071	22074
801.214	21861
801.356	21701
801.499	21610
801.641	21481
801.783	21515
801.926	21336
802.068	21374
802.211	21344
802.353	21283
802.496	20887
802.638	21001
802.78	20807
802.923	20712
803.065	20720
803.208	20693
803.35	20792
803.492	20872
803.635	20758
803.777	20667
803.919	20830
804.061	21150
804.204	20743
804.346	20686
804.488	20659
804.63	20807
804.773	20708
804.915	20689
805.057	20792
805.199	20735
805.341	20769
805.483	20792
805.626	20708
805.768	20613
805.91	20705
806.052	20754
806.194	20655
806.336	20838
806.478	20609
806.62	20659
806.762	20697
806.904	20762
807.046	21184
807.188	21020
807.33	20975
807.472	21085
807.614	21081
807.756	20929
807.898	20834
808.04	20667
808.182	20705
808.324	20796
808.465	20758
808.607	21028
808.749	20941
808.891	21252
809.033	21249
809.174	21157
809.316	21024
809.458	21142
809.6	20967
809.741	21230
809.883	21184
810.025	21325
810.166	21287
810.308	21306
810.45	21226
810.591	21104
810.733	20956
810.875	20857
811.016	20750
811.158	20773
811.299	20781
811.441	20941
811.582	21028
811.724	20792
811.865	20861
812.007	20811
812.148	20891
812.29	20819
812.431	20925
812.573	21089
812.714	21226
812.855	21298
812.997	21557
813.138	21504
813.279	21389
813.421	21351
813.562	21298
813.703	21070
813.845	21108
813.986	20651
814.127	20488
814.268	20560
814.41	20294
814.551	20400
814.692	20469
814.833	20343
814.974	20366
815.115	20423
815.256	20362
815.397	20187
815.539	20180
815.68	20240
815.821	19951
815.962	20199
816.103	20138
816.244	20001
816.385	19856
816.526	19940
816.666	19632
816.807	19510
816.948	19464
817.089	19578
817.23	19529
817.371	19609
817.512	19563
817.653	19613
817.793	19499
817.934	19605
818.075	19548
818.216	19502
818.356	19499
818.497	19354
818.638	19225
818.778	19160
818.919	19171
819.06	19221
819.2	19324
819.341	19430
819.481	19502
819.622	19540
819.762	19670
819.903	19666
820.043	19480
820.184	19445
820.324	19476
820.465	19590
820.605	19510
820.746	19415
820.886	19343
821.026	19449
821.167	19411
821.307	19468
821.447	19377
821.588	19324
821.728	19168
821.868	19042
822.008	18871
822.149	18810
822.289	18897
822.429	18688
822.569	18544
822.709	18612
822.849	18342
822.99	18323
823.13	18380
823.27	18334
823.41	18190
823.55	18053
823.69	18163
823.83	18243
823.97	18095
824.11	17961
824.25	17961
824.389	17958
824.529	17992
824.669	17908
824.809	18049
824.949	18007
825.089	18049
825.228	17942
825.368	17779
825.508	17661
825.648	17779
825.787	17733
825.927	17821
826.067	17600
826.206	17767
826.346	17646
826.485	17767
826.625	17748
826.765	17866
826.904	17680
827.044	17520
827.183	17478
827.323	17341
827.462	17429
827.601	17417
827.741	17337
827.88	17383
828.02	17299
828.159	17349
828.298	17326
828.437	17493
828.577	17391
828.716	17417
828.855	17345
828.994	17090
829.134	17151
829.273	17216
829.412	17102
829.551	17140
829.69	17159
829.829	17239
829.968	17337
830.107	17288
830.246	17181
830.385	17136
830.524	16961
830.663	16957
830.802	16866
830.941	16797
831.08	16771
831.219	16816
831.357	16824
831.496	16911
831.635	16733
831.774	16740
831.913	16584
832.051	16519
832.19	16603
832.329	16611
832.467	16497
832.606	16398
832.744	16440
832.883	16481
833.022	16432
833.16	16466
833.299	16523
833.437	16455
833.576	16474
833.714	16561
833.852	16592
833.991	16550
834.129	16523
834.267	16580
834.406	16424
834.544	16523
834.682	16611
834.821	16497
834.959	16668
835.097	16470
835.235	16626
835.373	16436
835.511	16603
835.65	16462
835.788	16405
835.926	16306
836.064	16204
836.202	16253
836.34	16485
836.478	16516
836.615	16424
836.753	16497
836.891	16485
837.029	16459
837.167	16276
837.305	16382
837.443	16322
837.58	16322
837.718	16234
837.856	16303
837.993	16169
838.131	16204
838.269	16299
838.406	16268
838.544	16078
838.681	15953
838.819	16006
838.956	15831
839.094	15812
839.231	15819
839.369	16021
839.506	16219
839.643	16044
839.781	15975
839.918	15778
840.055	15865
840.193	15804
840.33	15667
840.467	15926
840.604	15812
840.742	16067
840.879	15705
841.016	15732
841.153	15724
841.29	15804
841.427	15880
841.564	15880
841.701	15747
841.838	15835
841.975	15724
842.112	15739
842.249	15545
842.385	15538
842.522	15739
842.659	15637
842.796	15557
842.933	15576
843.069	15450
843.206	15606
843.343	15705
843.479	15671
843.616	15618
843.752	15416
843.889	15397
844.025	15515
844.162	15405
844.298	15485
844.435	15367
844.571	15306
844.708	15450
844.844	15515
844.98	15462
845.117	15500
845.253	15382
845.389	15310
845.525	15298
845.661	15237
845.798	15192
845.934	15351
846.07	15157
846.206	15226
846.342	15264
846.478	15176
846.614	14937
846.75	14937
846.886	14956
847.022	15020
847.158	14925
847.294	14902
847.429	14994
847.565	14910
847.701	15180
847.837	14686
847.972	14727
848.108	14739
848.244	14800
848.379	14769
848.515	14606
848.65	14583
848.786	14488
848.921	14598
849.057	14655
849.192	14667
849.328	14511
849.463	14526
849.598	14476
849.734	14469
849.869	14393
850.004	14320
850.14	14294
850.275	14339
850.41	14233
850.545	14278
850.68	14301
850.815	14309
850.95	14271
851.085	14514
851.22	14454
851.355	14301
851.49	14225
851.625	14320
851.76	14305
851.895	14214
852.03	14123
852.165	14275
852.299	14275
852.434	14427
852.569	14408
852.703	14298
852.838	14480
852.973	14507
853.107	14408
853.242	14313
853.376	14149
853.511	14107
853.645	14107
853.78	14301
853.914	14176
854.048	14206
854.183	14206
854.317	14221
854.451	14214
854.585	14244
854.72	14195
854.854	14187
854.988	14180
855.122	14195
855.256	14035
855.39	14161
855.524	14195
855.658	14210
855.792	14161
855.926	14199
856.06	14195
856.194	14298
856.327	14145
856.461	14130
856.595	14069
856.729	14221
856.862	14282
856.996	14142
857.13	14172
857.263	14298
857.397	14351
857.53	14183
857.664	14214
857.797	14317
857.931	14320
858.064	14294
858.197	14225
858.331	14180
858.464	14214
858.597	14115
858.731	14187
858.864	14172
858.997	14225
859.13	14134
859.263	14187
859.396	14256
859.529	14123
859.662	14183
859.795	14195
859.928	14263
860.061	14324
860.194	14324
860.327	14191
860.46	14168
860.592	14233
860.725	14256
860.858	14294
860.99	14123
861.123	14084
861.256	14123
861.388	14256
861.521	14868
861.653	14058
861.786	13993
861.918	14058
862.05	14073
862.183	14149
862.315	14157
862.447	14134
862.58	14103
862.712	14024
862.844	13947
862.976	14020
863.108	13982
863.24	14317
863.372	13841
863.504	14016
863.636	13928
863.768	14008
863.9	14062
864.032	13887
864.164	13875
864.296	14008
864.428	14058
864.559	13944
864.691	14092
864.823	14062
864.954	14001
865.086	14065
865.217	13913
865.349	13849
865.48	14069
865.612	14001
865.743	14096
865.875	13967
866.006	13982
866.137	13947
866.269	14005
866.4	13936
866.531	13894
866.662	13837
866.793	13845
866.924	13822
867.055	13928
867.186	13898
867.317	13951
867.448	13849
867.579	13894
867.71	13849
867.841	13852
867.972	14008
868.103	14031
868.233	14043
868.364	14012
868.495	13986
868.625	14119
868.756	14343
868.886	14092
869.017	14092
869.147	14336
869.278	14320
869.408	14199
869.539	14187
869.669	14290
869.799	14275
869.929	14377
870.06	14259
870.19	14518
870.32	14480
870.45	14499
870.58	14674
870.71	14750
870.84	14804
870.97	14571
871.1	14556
871.23	14788
871.36	14823
871.489	14705
871.619	14845
871.749	14659
871.879	14838
872.008	15005
872.138	14815
872.267	14769
872.397	14701
872.526	14617
872.656	14632
872.785	14750
872.915	14819
873.044	14899
873.173	14845
873.303	14849
873.432	14853
873.561	14921
873.69	14853
873.819	14834
873.948	14960
874.077	14864
874.206	14853
874.335	14937
874.464	14982
874.593	15142
874.722	15074
874.851	15180
874.979	15066
875.108	15237
875.237	15127
875.365	15066
875.494	15233
875.623	15298
875.751	15157
875.88	15157
876.008	15359
876.136	15397
876.265	15599
876.393	15747
876.521	15538
876.65	15610
876.778	15599
876.906	15637
877.034	15568
877.162	15561
877.29	15526
877.418	15500
877.546	15614
877.674	15606
877.802	15530
877.93	15564
878.058	15477
878.185	15405
878.313	15641
878.441	15637
878.568	15367
878.696	15507
878.824	15606
878.951	15606
879.079	15781
879.206	15915
879.333	15743
879.461	15694
879.588	15679
879.715	15827
879.842	15857
879.97	15603
880.097	15431
880.224	15492
880.351	15393
880.478	15485
880.605	15344
880.732	15526
880.859	15644
880.986	15435
881.112	15382
881.239	15283
881.366	15310
881.493	15093
881.619	15081
881.746	15039
881.872	15104
881.999	15085
882.125	14979
882.252	15233
882.378	15062
882.505	15260
882.631	14986
882.757	14906
882.883	15017
883.01	14880
883.136	14868
883.262	14765
883.388	14674
883.514	14895
883.64	14933
883.766	14842
883.892	14716
884.018	14769
884.143	14910
884.269	15024
884.395	14727
884.52	14594
884.646	14617
884.772	14503
884.897	14526
885.023	14667
885.148	14739
885.274	14777
885.399	14678
885.524	14590
885.65	14492
885.775	14571
885.9	14731
886.025	14754
886.15	14720
886.275	14568
886.4	14583
886.525	14564
886.65	14492
886.775	14579
886.9	14693
887.025	14830
887.149	14522
887.274	14541
887.399	14514
887.523	14431
887.648	14374
887.773	14343
887.897	14484
888.021	14583
888.146	14393
888.27	14545
888.395	14568
888.519	14537
888.643	14518
888.767	14526
888.891	14351
889.015	14214
889.139	14339
889.263	14313
889.387	14374
889.511	14488
889.635	14427
889.759	14244
889.883	14278
890.006	14290
890.13	14488
890.254	14301
890.377	14317
890.501	14138
890.624	14031
890.748	14138
890.871	14084
890.995	13959
891.118	13967
891.241	13921
891.364	14020
891.488	14168
891.611	14024
891.734	14008
891.857	14103
891.98	14111
892.103	14077
892.226	14062
892.349	13928
892.471	13849
892.594	13944
892.717	13986
892.839	13925
892.962	13955
893.085	14035
893.207	14008
893.33	13879
893.452	13986
893.575	14035
893.697	13986
893.819	14111
893.941	14237
894.064	14183
894.186	13936
894.308	13925
894.43	14240
894.552	14275
894.674	14126
894.796	13970
894.918	14054
895.04	14069
895.161	14199
895.283	14164
895.405	14077
895.526	14172
895.648	14172
895.769	14123
895.891	14092
896.012	14263
896.134	14183
896.255	14164
896.376	14176
896.498	14138
896.619	14240
896.74	14221
896.861	14248
896.982	14514
897.103	14621
897.224	14488
897.345	14488
897.466	14454
897.587	14526
897.708	14575
897.828	14598
897.949	14450
898.07	14389
898.19	14370
898.311	14503
898.431	14495
898.552	14533
898.672	14579
898.792	14625
898.913	14575
899.033	14571
899.153	14275
899.273	14259
899.393	14366
899.513	14423
899.633	14366
899.753	14450
899.873	14305
899.993	14465
900.113	14408
900.232	14381
900.352	14317
900.472	14298
900.591	14271
900.711	14282
900.83	14191
900.95	14229
901.069	14366
901.189	14210
901.308	13921
901.427	13959
901.546	13925
901.665	14050
901.784	13970
901.904	13830
902.023	13704
902.141	13571
902.26	13453
902.379	13620
902.498	13537
902.617	13430
902.735	13495
902.854	13533
902.973	13445
903.091	13266
903.21	13301
903.328	13244
903.446	13164
903.565	13122
903.683	13107
903.801	13038
903.919	13088
904.038	13061
904.156	12924
904.274	12886
904.392	12890
904.51	12875
904.627	12886
904.745	13027
904.863	12814
904.981	12726
905.098	12654
905.216	12601
905.334	12589
905.451	12528
905.569	12563
905.686	12673
905.803	12593
905.921	12426
906.038	12506
906.155	12353
906.272	12296
906.389	12410
906.506	12228
906.623	12201
906.74	12091
906.857	12049
906.974	12121
907.091	12201
907.208	12216
907.324	12171
907.441	12079
907.557	11870
907.674	11923
907.79	11908
907.907	11893
908.023	11935
908.139	12007
908.256	11931
908.372	11908
908.488	11752
908.604	11733
908.72	11634
908.836	11729
908.952	11608
909.068	11688
909.184	11752
909.3	11726
909.415	11767
909.531	11707
909.647	11543
909.762	11516
909.878	11425
909.993	11452
910.108	11459
910.224	11482
910.339	11482
910.454	11353
910.57	11296
910.685	11181
910.8	11532
910.915	11444
911.03	11280
911.145	11197
911.259	11220
911.374	11083
911.489	11067
911.604	11086
911.718	11003
911.833	10953
911.947	10900
912.062	10729
912.176	10900
912.291	10881
912.405	10885
912.519	11041
912.633	11105
912.748	11003
912.862	10957
912.976	10847
913.09	10687
913.204	10790
913.318	10778
913.431	10919
913.545	10866
913.659	10949
913.772	10774
913.886	10588
914	10691
914.113	10801
914.226	10843
914.34	10828
914.453	10634
914.566	10793
914.68	10596
914.793	10588
914.906	10436
915.019	10360
915.132	10375
915.245	10379
915.358	10470
915.47	10466
915.583	10504
915.696	10428
915.809	10538
915.921	10550
916.034	10360
916.146	10413
916.259	10360
916.371	10413
916.483	10413
916.595	10306
916.708	10367
916.82	10443
916.932	10390
917.044	10265
917.156	10371
917.268	10272
917.38	10253
917.491	10227
917.603	10188
917.715	10341
917.826	10329
917.938	10249
918.049	10185
918.161	10280
918.272	10413
918.384	10409
918.495	10341
918.606	10169
918.717	10048
918.828	10169
918.939	10124
919.05	10036
919.161	10029
919.272	9880
919.383	10036
919.494	10261
919.604	10379
919.715	10143
919.826	10147
919.936	10207
920.047	10219
920.157	10120
920.267	10257
920.378	10139
920.488	10090
920.598	10314
920.708	10497
920.818	10379
920.928	10386
921.038	10500
921.148	10531
921.258	10147
921.368	10044
921.477	9983
921.587	10032
921.697	9854
921.806	9964
921.916	9956
922.025	9766
922.134	9667
922.244	9690
922.353	9800
922.462	9701
922.571	9564
922.68	9458
922.789	9439
922.898	9462
923.007	9386
923.116	9454
923.224	9389
923.333	9401
923.442	9363
923.55	9233
923.659	9249
923.767	9405
923.876	9245
923.984	9363
924.092	9230
924.201	9359
924.309	9313
924.417	9321
924.525	9184
924.633	9268
924.741	10204
924.849	8998
924.956	9161
925.064	8994
925.172	9039
925.279	9097
925.387	9032
925.494	9047
925.602	9226
925.709	9180
925.816	9032
925.924	9112
926.031	9192
926.138	9081
926.245	9112
926.352	8933
926.459	9154
926.566	9154
926.673	9020
926.779	8902
926.886	8921
926.993	8769
927.099	8807
927.206	8754
927.312	8735
927.419	8891
927.525	8800
927.631	8826
927.737	8716
927.843	8712
927.95	8610
928.056	8659
928.162	8674
928.267	8701
928.373	9169
928.479	8762
928.585	8560
928.69	8651
928.796	8674
928.901	8602
929.007	8446
929.112	8629
929.218	8674
929.323	8564
929.428	8492
929.533	8705
929.638	8454
929.743	8503
929.848	8549
929.953	8545
930.058	8355
930.163	8263
930.267	8271
930.372	8389
930.477	8259
930.581	8457
930.685	8385
930.79	8229
930.894	8248
930.998	8244
931.103	8294
931.207	8054
931.311	7951
931.415	7883
931.519	7731
931.623	7727
