Data from test_V78500241_2468.txt Node
Date: Fri Mar 25 14:50:53 CST 2022
User: usil
Spectrometer: V785-0024
Trigger mode: 0
Integration Time (sec): 4.000000E-1
Scans to average: 1
Nonlinearity correction enabled: false
Boxcar width: 0
Storing dark spectrum: false
XAxis mode: Wavelengths
Number of Pixels in Spectrum: 1024
>>>>>Begin Spectral Data<<<<<
801.071	22082
801.214	21941
801.356	21701
801.499	21644
801.641	21435
801.783	21370
801.926	21431
802.068	21313
802.211	21359
802.353	21211
802.496	20994
802.638	20910
802.78	20948
802.923	20739
803.065	20712
803.208	20609
803.35	20796
803.492	20887
803.635	20952
803.777	20819
803.919	20872
804.061	21173
804.204	20861
804.346	20750
804.488	20678
804.63	20750
804.773	20625
804.915	20640
805.057	20746
805.199	20602
805.341	20720
805.483	20739
805.626	20674
805.768	20609
805.91	20674
806.052	20579
806.194	20678
806.336	20781
806.478	20670
806.62	20552
806.762	20807
806.904	20864
807.046	21116
807.188	21036
807.33	21081
807.472	21024
807.614	20937
807.756	21005
807.898	20720
808.04	20621
808.182	20807
808.324	20758
808.465	20830
808.607	20857
808.749	21161
808.891	21237
809.033	21203
809.174	21222
809.316	20944
809.458	21043
809.6	21146
809.741	21123
809.883	21039
810.025	21077
810.166	21184
810.308	21256
810.45	21184
810.591	21165
810.733	21009
810.875	20868
811.016	20796
811.158	20743
811.299	20925
811.441	21017
811.582	20937
811.724	20857
811.865	20731
812.007	20727
812.148	20842
812.29	20891
812.431	20979
812.573	21176
812.714	21325
812.855	21321
812.997	21553
813.138	21530
813.279	21545
813.421	21275
813.562	21264
813.703	21020
813.845	21005
813.986	20648
814.127	20552
814.268	20427
814.41	20400
814.551	20278
814.692	20393
814.833	20381
814.974	20419
815.115	20275
815.256	20195
815.397	20317
815.539	20218
815.68	20263
815.821	20073
815.962	20191
816.103	20107
816.244	19963
816.385	19871
816.526	19852
816.666	19685
816.807	19518
816.948	19693
817.089	19662
817.23	19590
817.371	19521
817.512	19441
817.653	19537
817.793	19483
817.934	19434
818.075	19468
818.216	19422
818.356	19464
818.497	19335
818.638	19190
818.778	19148
818.919	19168
819.06	19232
819.2	19377
819.341	19392
819.481	19483
819.622	19537
819.762	19647
819.903	19696
820.043	19510
820.184	19453
820.324	19369
820.465	19506
820.605	19502
820.746	19441
820.886	19320
821.026	19480
821.167	19472
821.307	19578
821.447	19449
821.588	19289
821.728	19244
821.868	19050
822.008	18863
822.149	18871
822.289	18837
822.429	18593
822.569	18509
822.709	18673
822.849	18517
822.99	18361
823.13	18361
823.27	18350
823.41	18194
823.55	18209
823.69	18224
823.83	18254
823.97	18148
824.11	17908
824.25	18007
824.389	18007
824.529	18129
824.669	17908
824.809	18030
824.949	18057
825.089	17931
825.228	18015
825.368	17707
825.508	17741
825.648	17794
825.787	17764
825.927	17729
826.067	17657
826.206	17786
826.346	17756
826.485	17840
826.625	17684
826.765	17863
826.904	17737
827.044	17535
827.183	17448
827.323	17436
827.462	17558
827.601	17482
827.741	17417
827.88	17360
828.02	17353
828.159	17376
828.298	17452
828.437	17471
828.577	17349
828.716	17543
828.855	17452
828.994	17189
829.134	17178
829.273	17242
829.412	17075
829.551	17155
829.69	17124
829.829	17220
829.968	17307
830.107	17277
830.246	17227
830.385	17197
830.524	17090
830.663	16987
830.802	16835
830.941	16850
831.08	16740
831.219	16854
831.357	16847
831.496	16995
831.635	16843
831.774	16653
831.913	16698
832.051	16653
832.19	16516
832.329	16706
832.467	16558
832.606	16436
832.744	16478
832.883	16615
833.022	16398
833.16	16462
833.299	16504
833.437	16440
833.576	16558
833.714	16561
833.852	16516
833.991	16535
834.129	16607
834.267	16508
834.406	16493
834.544	16573
834.682	16584
834.821	16497
834.959	16721
835.097	16428
835.235	16622
835.373	16584
835.511	16527
835.65	16390
835.788	16409
835.926	16421
836.064	16223
836.202	16295
836.34	16523
836.478	16516
836.615	16356
836.753	16531
836.891	16500
837.029	16474
837.167	16375
837.305	16455
837.443	16413
837.58	16230
837.718	16409
837.856	16360
837.993	16253
838.131	16280
838.269	16276
838.406	16246
838.544	16185
838.681	16013
838.819	16006
838.956	15861
839.094	15915
839.231	15922
839.369	15994
839.506	16291
839.643	16135
839.781	15857
839.918	15797
840.055	15960
840.193	15835
840.33	15739
840.467	15930
840.604	15888
840.742	15994
840.879	15789
841.016	15785
841.153	15751
841.29	16044
841.427	15930
841.564	15918
841.701	15895
841.838	15720
841.975	15694
842.112	15808
842.249	15671
842.385	15656
842.522	15823
842.659	15679
842.796	15701
842.933	15652
843.069	15587
843.206	15599
843.343	15728
843.479	15679
843.616	15701
843.752	15454
843.889	15492
844.025	15485
844.162	15382
844.298	15549
844.435	15545
844.571	15363
844.708	15496
844.844	15629
844.98	15614
845.117	15591
845.253	15431
845.389	15340
845.525	15298
845.661	15272
845.798	15192
845.934	15302
846.07	15192
846.206	15252
846.342	15359
846.478	15252
846.614	15066
846.75	14975
846.886	14929
847.022	15119
847.158	15047
847.294	15062
847.429	15055
847.565	15039
847.701	15211
847.837	14800
847.972	14739
848.108	14902
848.244	14811
848.379	14575
848.515	14606
848.65	14583
848.786	14617
848.921	14564
849.057	14636
849.192	14590
849.328	14617
849.463	14507
849.598	14507
849.734	14632
849.869	14476
850.004	14381
850.14	14404
850.275	14419
850.41	14286
850.545	14317
850.68	14343
850.815	14400
850.95	14393
851.085	14518
851.22	14434
851.355	14362
851.49	14381
851.625	14366
851.76	14301
851.895	14290
852.03	14176
852.165	14278
852.299	14377
852.434	14556
852.569	14450
852.703	14431
852.838	14537
852.973	14617
853.107	14533
853.242	14355
853.376	14305
853.511	14138
853.645	14298
853.78	14412
853.914	14347
854.048	14271
854.183	14244
854.317	14259
854.451	14488
854.585	14225
854.72	14240
854.854	14404
854.988	14161
855.122	14225
855.256	14138
855.39	14259
855.524	14404
855.658	14320
855.792	14313
855.926	14267
856.06	14366
856.194	14351
856.327	14225
856.461	14301
856.595	14229
856.729	14275
856.862	14278
856.996	14317
857.13	14278
857.263	14442
857.397	14362
857.53	14237
857.664	14434
857.797	14313
857.931	14393
858.064	14286
858.197	14404
858.331	14347
858.464	14244
858.597	14157
858.731	14199
858.864	14271
858.997	14282
859.13	14256
859.263	14355
859.396	14313
859.529	14252
859.662	14218
859.795	14248
859.928	14320
860.061	14476
860.194	14488
860.327	14286
860.46	14244
860.592	14408
860.725	14389
860.858	14412
860.99	14256
861.123	14149
861.256	14218
861.388	14214
861.521	14883
861.653	14210
861.786	14126
861.918	14134
862.05	14225
862.183	14134
862.315	14221
862.447	14355
862.58	14263
862.712	14103
862.844	14008
862.976	14119
863.108	14145
863.24	14400
863.372	14001
863.504	14088
863.636	14115
863.768	14069
863.9	14046
864.032	14008
864.164	14035
864.296	14214
864.428	14248
864.559	14138
864.691	14168
864.823	14199
864.954	14138
865.086	14077
865.217	14005
865.349	13986
865.48	14001
865.612	14100
865.743	14225
865.875	13955
866.006	14050
866.137	14024
866.269	14039
866.4	14054
866.531	13986
866.662	13887
866.793	13986
866.924	14039
867.055	14058
867.186	14069
867.317	13963
867.448	13947
867.579	14035
867.71	13974
867.841	14012
867.972	14054
868.103	14054
868.233	14081
868.364	14062
868.495	14035
868.625	14282
868.756	14240
868.886	14240
869.017	14256
869.147	14408
869.278	14347
869.408	14324
869.539	14309
869.669	14336
869.799	14282
869.929	14366
870.06	14438
870.19	14575
870.32	14575
870.45	14640
870.58	14689
870.71	14720
870.84	14750
870.97	14617
871.1	14648
871.23	14902
871.36	14982
871.489	14823
871.619	14842
871.749	14902
871.879	14891
872.008	15036
872.138	14842
872.267	14914
872.397	14800
872.526	14777
872.656	14644
872.785	14769
872.915	14941
873.044	14952
873.173	14914
873.303	15036
873.432	15017
873.561	15028
873.69	14929
873.819	14929
873.948	14994
874.077	14998
874.206	14967
874.335	14861
874.464	15074
874.593	15195
874.722	15112
874.851	15203
874.979	15218
875.108	15329
875.237	15176
875.365	15203
875.494	15268
875.623	15268
875.751	15184
875.88	15268
876.008	15310
876.136	15492
876.265	15625
876.393	15800
876.521	15743
876.65	15751
876.778	15717
876.906	15618
877.034	15671
877.162	15595
877.29	15629
877.418	15663
877.546	15633
877.674	15633
877.802	15690
877.93	15603
878.058	15606
878.185	15553
878.313	15625
878.441	15686
878.568	15511
878.696	15610
878.824	15637
878.951	15751
879.079	15831
879.206	15945
879.333	15774
879.461	15694
879.588	15892
879.715	15846
879.842	15926
879.97	15759
880.097	15568
880.224	15431
880.351	15622
880.478	15466
880.605	15374
880.732	15454
880.859	15736
880.986	15443
881.112	15584
881.239	15435
881.366	15310
881.493	15176
881.619	15112
881.746	15260
881.872	15192
881.999	15138
882.125	15108
882.252	15195
882.378	15260
882.505	15230
882.631	15173
882.757	14963
882.883	15020
883.01	14956
883.136	14944
883.262	14876
883.388	14861
883.514	15009
883.64	14937
883.766	14937
883.892	14868
884.018	14883
884.143	14872
884.269	14941
884.395	14849
884.52	14788
884.646	14670
884.772	14632
884.897	14587
885.023	14712
885.148	14674
885.274	14769
885.399	14826
885.524	14674
885.65	14773
885.775	14724
885.9	14610
886.025	14800
886.15	14902
886.275	14636
886.4	14518
886.525	14682
886.65	14602
886.775	14663
886.9	14864
887.025	14933
887.149	14689
887.274	14530
887.399	14507
887.523	14526
887.648	14549
887.773	14396
887.897	14632
888.021	14625
888.146	14499
888.27	14552
888.395	14674
888.519	14571
888.643	14602
888.767	14663
888.891	14492
889.015	14320
889.139	14400
889.263	14415
889.387	14518
889.511	14629
889.635	14522
889.759	14427
889.883	14301
890.006	14396
890.13	14488
890.254	14343
890.377	14328
890.501	14267
890.624	14168
890.748	14336
890.871	14130
890.995	14115
891.118	14024
891.241	14054
891.364	14138
891.488	14187
891.611	14039
891.734	14077
891.857	14180
891.98	14081
892.103	14149
892.226	14195
892.349	14050
892.471	13917
892.594	14130
892.717	14111
892.839	14084
892.962	14126
893.085	14100
893.207	14031
893.33	13982
893.452	14084
893.575	14100
893.697	14077
893.819	14267
893.941	14298
894.064	14259
894.186	14069
894.308	14149
894.43	14225
894.552	14278
894.674	14252
894.796	14058
894.918	14092
895.04	14145
895.161	14210
895.283	14180
895.405	14138
895.526	14244
895.648	14138
895.769	14138
895.891	14233
896.012	14267
896.134	14298
896.255	14393
896.376	14180
896.498	14248
896.619	14229
896.74	14214
896.861	14336
896.982	14678
897.103	14811
897.224	14571
897.345	14564
897.466	14488
897.587	14541
897.708	14568
897.828	14469
897.949	14560
898.07	14396
898.19	14552
898.311	14640
898.431	14541
898.552	14625
898.672	14663
898.792	14670
898.913	14686
899.033	14556
899.153	14396
899.273	14457
899.393	14484
899.513	14450
899.633	14469
899.753	14434
899.873	14514
899.993	14457
900.113	14518
900.232	14556
900.352	14461
900.472	14393
900.591	14320
900.711	14351
900.83	14252
900.95	14457
901.069	14431
901.189	14244
901.308	14119
901.427	13898
901.546	13944
901.665	14058
901.784	14077
901.904	13951
902.023	13811
902.141	13636
902.26	13578
902.379	13605
902.498	13575
902.617	13544
902.735	13552
902.854	13563
902.973	13510
903.091	13278
903.21	13289
903.328	13438
903.446	13149
903.565	13019
903.683	13091
903.801	13008
903.919	13149
904.038	13126
904.156	12939
904.274	12947
904.392	12844
904.51	13012
904.627	12909
904.745	13015
904.863	13031
904.981	12814
905.098	12669
905.216	12601
905.334	12688
905.451	12566
905.569	12631
905.686	12646
905.803	12696
905.921	12414
906.038	12582
906.155	12456
906.272	12296
906.389	12380
906.506	12209
906.623	12175
906.74	12281
906.857	12083
906.974	12136
907.091	12205
907.208	12350
907.324	12243
907.441	12140
907.557	12068
907.674	11950
907.79	11893
907.907	11927
908.023	12087
908.139	12011
908.256	11973
908.372	11901
908.488	11813
908.604	11863
908.72	11767
908.836	11733
908.952	11733
909.068	11729
909.184	11836
909.3	11809
909.415	11836
909.531	11733
909.647	11482
909.762	11589
909.878	11486
909.993	11493
910.108	11490
910.224	11478
910.339	11482
910.454	11455
910.57	11349
910.685	11318
910.8	11623
910.915	11547
911.03	11417
911.145	11231
911.259	11197
911.374	11220
911.489	11086
911.604	11140
911.718	11025
911.833	11025
911.947	10873
912.062	10729
912.176	10961
912.291	10942
912.405	10957
912.519	11185
912.633	11113
912.748	11079
912.862	10980
912.976	10778
913.09	10736
913.204	10816
913.318	10873
913.431	10908
913.545	10915
913.659	11014
913.772	10824
913.886	10782
914	10694
914.113	10824
914.226	10847
914.34	10805
914.453	10649
914.566	10831
914.68	10721
914.793	10672
914.906	10462
915.019	10462
915.132	10443
915.245	10405
915.358	10516
915.47	10470
915.583	10504
915.696	10584
915.809	10607
915.921	10664
916.034	10432
916.146	10470
916.259	10375
916.371	10508
916.483	10508
916.595	10398
916.708	10428
916.82	10390
916.932	10424
917.044	10360
917.156	10341
917.268	10371
917.38	10276
917.491	10238
917.603	10356
917.715	10394
917.826	10398
917.938	10188
918.049	10196
918.161	10230
918.272	10485
918.384	10447
918.495	10333
918.606	10238
918.717	10158
918.828	10246
918.939	10341
919.05	10101
919.161	10211
919.272	10074
919.383	10147
919.494	10341
919.604	10440
919.715	10246
919.826	10200
919.936	10207
920.047	10329
920.157	10314
920.267	10436
920.378	10219
920.488	10234
920.598	10409
920.708	10542
920.818	10413
920.928	10443
921.038	10622
921.148	10523
921.258	10329
921.368	10211
921.477	10101
921.587	10082
921.697	9975
921.806	10074
921.916	9987
922.025	9846
922.134	9804
922.244	9808
922.353	9846
922.462	9599
922.571	9625
922.68	9568
922.789	9473
922.898	9477
923.007	9454
923.116	9526
923.224	9477
923.333	9397
923.442	9355
923.55	9367
923.659	9367
923.767	9473
923.876	9382
923.984	9378
924.092	9313
924.201	9401
924.309	9325
924.417	9420
924.525	9245
924.633	9355
924.741	10059
924.849	9047
924.956	9291
925.064	9097
925.172	9097
925.279	9097
925.387	9199
925.494	9119
925.602	9279
925.709	9268
925.816	9203
925.924	9146
926.031	9184
926.138	9188
926.245	9226
926.352	9074
926.459	9233
926.566	9222
926.673	9123
926.779	9039
926.886	8967
926.993	8834
927.099	8849
927.206	8823
927.312	8880
927.419	8891
927.525	8834
927.631	8963
927.737	8777
927.843	8845
927.95	8667
928.056	8746
928.162	8804
928.267	8830
928.373	9378
928.479	8887
928.585	8621
928.69	8754
928.796	8758
928.901	8724
929.007	8522
929.112	8727
929.218	8667
929.323	8545
929.428	8560
929.533	8708
929.638	8511
929.743	8568
929.848	8629
929.953	8648
930.058	8480
930.163	8366
930.267	8347
930.372	8480
930.477	8313
930.581	8575
930.685	8400
930.79	8206
930.894	8313
930.998	8244
931.103	8461
931.207	8138
931.311	8058
931.415	8008
931.519	7776
931.623	7734
