Data from test_V78500241_3514.txt Node
Date: Fri Mar 25 14:58:11 CST 2022
User: usil
Spectrometer: V785-0024
Trigger mode: 0
Integration Time (sec): 4.000000E-1
Scans to average: 1
Nonlinearity correction enabled: false
Boxcar width: 0
Storing dark spectrum: false
XAxis mode: Wavelengths
Number of Pixels in Spectrum: 1024
>>>>>Begin Spectral Data<<<<<
801.071	21842
801.214	21918
801.356	21652
801.499	21435
801.641	21256
801.783	21302
801.926	21302
802.068	21260
802.211	21165
802.353	21058
802.496	20906
802.638	20857
802.78	20602
802.923	20849
803.065	20556
803.208	20526
803.35	20788
803.492	20750
803.635	20693
803.777	20507
803.919	20735
804.061	20921
804.204	20781
804.346	20552
804.488	20476
804.63	20621
804.773	20492
804.915	20617
805.057	20613
805.199	20507
805.341	20526
805.483	20602
805.626	20609
805.768	20446
805.91	20651
806.052	20533
806.194	20473
806.336	20686
806.478	20526
806.62	20400
806.762	20689
806.904	20701
807.046	20952
807.188	20872
807.33	20876
807.472	20807
807.614	20834
807.756	20868
807.898	20560
808.04	20522
808.182	20556
808.324	20533
808.465	20522
808.607	20880
808.749	21024
808.891	21051
809.033	21001
809.174	20853
809.316	20910
809.458	20891
809.6	20777
809.741	20834
809.883	20845
810.025	20994
810.166	21028
810.308	20937
810.45	21043
810.591	20929
810.733	20743
810.875	20651
811.016	20522
811.158	20511
811.299	20617
811.441	20773
811.582	20712
811.724	20552
811.865	20568
812.007	20583
812.148	20613
812.29	20731
812.431	20834
812.573	20982
812.714	20986
812.855	21165
812.997	21218
813.138	21389
813.279	21245
813.421	21123
813.562	21157
813.703	20910
813.845	20842
813.986	20488
814.127	20328
814.268	20343
814.41	20396
814.551	20199
814.692	20225
814.833	20145
814.974	20286
815.115	20153
815.256	20035
815.397	19974
815.539	20050
815.68	19894
815.821	19830
815.962	19921
816.103	19818
816.244	19799
816.385	19620
816.526	19563
816.666	19460
816.807	19228
816.948	19430
817.089	19419
817.23	19388
817.371	19388
817.512	19266
817.653	19198
817.793	19293
817.934	19217
818.075	19343
818.216	19369
818.356	19278
818.497	19110
818.638	19000
818.778	18958
818.919	19053
819.06	19057
819.2	19137
819.341	19145
819.481	19175
819.622	19320
819.762	19483
819.903	19396
820.043	19274
820.184	19263
820.324	19263
820.465	19285
820.605	19160
820.746	19209
820.886	19148
821.026	19152
821.167	19179
821.307	19187
821.447	19095
821.588	19179
821.728	18867
821.868	18852
822.008	18684
822.149	18688
822.289	18700
822.429	18494
822.569	18403
822.709	18380
822.849	18079
822.99	18178
823.13	18087
823.27	18125
823.41	17992
823.55	17882
823.69	17958
823.83	18038
823.97	17958
824.11	17840
824.25	17756
824.389	17684
824.529	17935
824.669	17760
824.809	17874
824.949	17802
825.089	17847
825.228	17824
825.368	17642
825.508	17577
825.648	17490
825.787	17524
825.927	17733
826.067	17570
826.206	17543
826.346	17493
826.485	17486
826.625	17532
826.765	17665
826.904	17646
827.044	17197
827.183	17277
827.323	17265
827.462	17318
827.601	17147
827.741	17303
827.88	17273
828.02	17090
828.159	17235
828.298	17334
828.437	17341
828.577	17261
828.716	17311
828.855	17254
828.994	16938
829.134	16980
829.273	16995
829.412	17006
829.551	16942
829.69	17029
829.829	17025
829.968	17090
830.107	17090
830.246	16911
830.385	16987
830.524	16980
830.663	16812
830.802	16733
830.941	16565
831.08	16466
831.219	16740
831.357	16771
831.496	16820
831.635	16500
831.774	16580
831.913	16596
832.051	16485
832.19	16436
832.329	16409
832.467	16303
832.606	16204
832.744	16253
832.883	16409
833.022	16246
833.16	16382
833.299	16413
833.437	16367
833.576	16443
833.714	16382
833.852	16424
833.991	16512
834.129	16451
834.267	16443
834.406	16367
834.544	16451
834.682	16394
834.821	16398
834.959	16618
835.097	16356
835.235	16432
835.373	16478
835.511	16455
835.65	16398
835.788	16310
835.926	16215
836.064	16173
836.202	16082
836.34	16413
836.478	16493
836.615	16341
836.753	16459
836.891	16432
837.029	16478
837.167	16325
837.305	16204
837.443	16257
837.58	16314
837.718	16257
837.856	16253
837.993	16166
838.131	16192
838.269	16150
838.406	16215
838.544	16109
838.681	15983
838.819	15934
838.956	15850
839.094	15732
839.231	15785
839.369	15972
839.506	16257
839.643	15975
839.781	15751
839.918	15770
840.055	15797
840.193	15747
840.33	15732
840.467	15808
840.604	15873
840.742	16116
840.879	15610
841.016	15671
841.153	15720
841.29	15778
841.427	15785
841.564	15766
841.701	15869
841.838	15728
841.975	15652
842.112	15766
842.249	15591
842.385	15488
842.522	15789
842.659	15629
842.796	15652
842.933	15564
843.069	15534
843.206	15382
843.343	15648
843.479	15542
843.616	15587
843.752	15310
843.889	15378
844.025	15462
844.162	15252
844.298	15477
844.435	15268
844.571	15237
844.708	15462
844.844	15504
844.98	15542
845.117	15462
845.253	15325
845.389	15142
845.525	15291
845.661	15214
845.798	15211
845.934	15138
846.07	15089
846.206	15180
846.342	15298
846.478	15119
846.614	14982
846.75	14800
846.886	14895
847.022	15039
847.158	15005
847.294	14963
847.429	15051
847.565	14914
847.701	15055
847.837	14644
847.972	14727
848.108	14853
848.244	14701
848.379	14431
848.515	14492
848.65	14594
848.786	14469
848.921	14484
849.057	14674
849.192	14606
849.328	14530
849.463	14434
849.598	14442
849.734	14484
849.869	14393
850.004	14347
850.14	14332
850.275	14351
850.41	14263
850.545	14134
850.68	14275
850.815	14248
850.95	14282
851.085	14465
851.22	14431
851.355	14278
851.49	14138
851.625	14278
851.76	14320
851.895	14115
852.03	14172
852.165	14263
852.299	14362
852.434	14412
852.569	14210
852.703	14313
852.838	14442
852.973	14442
853.107	14438
853.242	14221
853.376	14202
853.511	14062
853.645	14115
853.78	14275
853.914	14168
854.048	14077
854.183	14153
854.317	14157
854.451	14301
854.585	14176
854.72	14050
854.854	14210
854.988	14134
855.122	14115
855.256	14039
855.39	14168
855.524	14244
855.658	14263
855.792	14172
855.926	14138
856.06	14221
856.194	14298
856.327	14126
856.461	14145
856.595	14073
856.729	14134
856.862	14218
856.996	14218
857.13	14202
857.263	14294
857.397	14233
857.53	14100
857.664	14244
857.797	14218
857.931	14290
858.064	14199
858.197	14244
858.331	14202
858.464	14096
858.597	14016
858.731	14164
858.864	14161
858.997	14111
859.13	14145
859.263	14172
859.396	14290
859.529	14103
859.662	14077
859.795	14073
859.928	14180
860.061	14221
860.194	14282
860.327	14244
860.46	14138
860.592	14305
860.725	14320
860.858	14221
860.99	14115
861.123	14123
861.256	14199
861.388	14176
861.521	14899
861.653	13989
861.786	14016
861.918	13959
862.05	14054
862.183	14058
862.315	14065
862.447	14134
862.58	14058
862.712	13887
862.844	13944
862.976	13974
863.108	13974
863.24	14408
863.372	13875
863.504	14001
863.636	13947
863.768	13959
863.9	13894
864.032	13909
864.164	13989
864.296	14027
864.428	14039
864.559	14001
864.691	14039
864.823	14008
864.954	13928
865.086	13963
865.217	13913
865.349	13947
865.48	13841
865.612	13913
865.743	14008
865.875	14027
866.006	13837
866.137	13902
866.269	13887
866.4	13868
866.531	13909
866.662	13849
866.793	13818
866.924	13906
867.055	13894
867.186	13845
867.317	13955
867.448	13811
867.579	13875
867.71	13883
867.841	13742
867.972	13887
868.103	13898
868.233	13993
868.364	13944
868.495	13970
868.625	14149
868.756	14271
868.886	14183
869.017	14187
869.147	14259
869.278	14202
869.408	14248
869.539	14168
869.669	14317
869.799	14275
869.929	14313
870.06	14317
870.19	14514
870.32	14545
870.45	14568
870.58	14495
870.71	14708
870.84	14762
870.97	14663
871.1	14621
871.23	14743
871.36	14823
871.489	14727
871.619	14804
871.749	14777
871.879	14686
872.008	14895
872.138	14834
872.267	14705
872.397	14678
872.526	14610
872.656	14552
872.785	14670
872.915	14891
873.044	14925
873.173	14834
873.303	14857
873.432	14845
873.561	14891
873.69	14864
873.819	14762
873.948	14864
874.077	14906
874.206	14731
874.335	14769
874.464	15032
874.593	15146
874.722	14998
874.851	15157
874.979	15161
875.108	15089
875.237	15047
875.365	15020
875.494	15123
875.623	15302
875.751	15104
875.88	15127
876.008	15287
876.136	15348
876.265	15549
876.393	15610
876.521	15606
876.65	15622
876.778	15519
876.906	15553
877.034	15519
877.162	15435
877.29	15492
877.418	15534
877.546	15534
877.674	15618
877.802	15568
877.93	15622
878.058	15492
878.185	15462
878.313	15473
878.441	15492
878.568	15534
878.696	15507
878.824	15637
878.951	15652
879.079	15713
879.206	15797
879.333	15797
879.461	15675
879.588	15732
879.715	15812
879.842	15892
879.97	15682
880.097	15412
880.224	15344
880.351	15359
880.478	15416
880.605	15397
880.732	15344
880.859	15656
880.986	15538
881.112	15466
881.239	15268
881.366	15222
881.493	15070
881.619	15097
881.746	15116
881.872	14941
881.999	15070
882.125	14979
882.252	15127
882.378	15169
882.505	15203
882.631	15024
882.757	14800
882.883	14887
883.01	14956
883.136	14864
883.262	14773
883.388	14746
883.514	14960
883.64	14902
883.766	14845
883.892	14773
884.018	14773
884.143	14876
884.269	14986
884.395	14590
884.52	14606
884.646	14579
884.772	14545
884.897	14484
885.023	14541
885.148	14674
885.274	14781
885.399	14727
885.524	14602
885.65	14507
885.775	14564
885.9	14590
886.025	14727
886.15	14686
886.275	14621
886.4	14537
886.525	14469
886.65	14503
886.775	14476
886.9	14689
887.025	14750
887.149	14613
887.274	14419
887.399	14358
887.523	14362
887.648	14427
887.773	14301
887.897	14514
888.021	14408
888.146	14343
888.27	14518
888.395	14484
888.519	14514
888.643	14499
888.767	14492
888.891	14431
889.015	14275
889.139	14218
889.263	14301
889.387	14408
889.511	14465
889.635	14396
889.759	14233
889.883	14358
890.006	14317
890.13	14358
890.254	14168
890.377	14157
890.501	14027
890.624	14065
890.748	14256
890.871	13967
890.995	13917
891.118	13871
891.241	14001
891.364	13982
891.488	14016
891.611	13993
891.734	13963
891.857	14005
891.98	13982
892.103	13993
892.226	13978
892.349	14069
892.471	13780
892.594	14027
892.717	14069
892.839	13951
892.962	13986
893.085	14046
893.207	14001
893.33	13852
893.452	13894
893.575	13959
893.697	13982
893.819	14134
893.941	14229
894.064	14180
894.186	13959
894.308	13936
894.43	14202
894.552	14240
894.674	14115
894.796	13955
894.918	13928
895.04	14050
895.161	14172
895.283	13997
895.405	14073
895.526	14153
895.648	14111
895.769	14092
895.891	14195
896.012	14187
896.134	14244
896.255	14069
896.376	14123
896.498	14096
896.619	14286
896.74	14103
896.861	14233
896.982	14518
897.103	14541
897.224	14438
897.345	14514
897.466	14248
897.587	14400
897.708	14533
897.828	14568
897.949	14457
898.07	14298
898.19	14450
898.311	14602
898.431	14488
898.552	14408
898.672	14598
898.792	14613
898.913	14549
899.033	14358
899.153	14336
899.273	14275
899.393	14343
899.513	14358
899.633	14366
899.753	14309
899.873	14415
899.993	14469
900.113	14336
900.232	14450
900.352	14393
900.472	14237
900.591	14164
900.711	14111
900.83	14115
900.95	14332
901.069	14240
901.189	14126
901.308	14001
901.427	13803
901.546	13864
901.665	13967
901.784	13849
901.904	13784
902.023	13719
902.141	13487
902.26	13472
902.379	13537
902.498	13567
902.617	13407
902.735	13521
902.854	13430
902.973	13289
903.091	13331
903.21	13137
903.328	13133
903.446	13137
903.565	13038
903.683	13015
903.801	12943
903.919	13004
904.038	13004
904.156	12882
904.274	12913
904.392	12863
904.51	12783
904.627	12844
904.745	12981
904.863	12916
904.981	12711
905.098	12563
905.216	12574
905.334	12532
905.451	12639
905.569	12513
905.686	12551
905.803	12589
905.921	12407
906.038	12441
906.155	12361
906.272	12372
906.389	12254
906.506	12243
906.623	12167
906.74	12083
906.857	12091
906.974	11988
907.091	12194
907.208	12346
907.324	12182
907.441	12148
907.557	11870
907.674	11843
907.79	11843
907.907	11931
908.023	11935
908.139	11958
908.256	11847
908.372	11912
908.488	11870
908.604	11695
908.72	11638
908.836	11821
908.952	11741
909.068	11703
909.184	11756
909.3	11638
909.415	11779
909.531	11665
909.647	11524
909.762	11501
909.878	11345
909.993	11482
910.108	11516
910.224	11478
910.339	11520
910.454	11379
910.57	11307
910.685	11250
910.8	11581
910.915	11528
911.03	11269
911.145	11162
911.259	11189
911.374	11185
911.489	11162
911.604	11113
911.718	10942
911.833	10949
911.947	10721
912.062	10729
912.176	10881
912.291	10957
912.405	10919
912.519	11128
912.633	11109
912.748	11018
912.862	10972
912.976	10824
913.09	10691
913.204	10740
913.318	10824
913.431	10885
913.545	10877
913.659	10896
913.772	10843
913.886	10725
914	10675
914.113	10816
914.226	10854
914.34	10752
914.453	10675
914.566	10801
914.68	10702
914.793	10653
914.906	10443
915.019	10363
915.132	10352
915.245	10459
915.358	10409
915.47	10478
915.583	10424
915.696	10500
915.809	10531
915.921	10558
916.034	10360
916.146	10455
916.259	10333
916.371	10428
916.483	10428
916.595	10333
916.708	10344
916.82	10306
916.932	10356
917.044	10306
917.156	10276
917.268	10204
917.38	10287
917.491	10253
917.603	10276
917.715	10344
917.826	10390
917.938	10295
918.049	10188
918.161	10242
918.272	10421
918.384	10402
918.495	10306
918.606	10150
918.717	10109
918.828	10185
918.939	10109
919.05	10082
919.161	10086
919.272	9918
919.383	10025
919.494	10234
919.604	10363
919.715	10227
919.826	10025
919.936	10158
920.047	10162
920.157	10173
920.267	10390
920.378	10265
920.488	10204
920.598	10402
920.708	10519
920.818	10367
920.928	10382
921.038	10459
921.148	10485
921.258	10257
921.368	10078
921.477	10025
921.587	9945
921.697	9850
921.806	10036
921.916	9960
922.025	9759
922.134	9770
922.244	9637
922.353	9701
922.462	9576
922.571	9530
922.68	9473
922.789	9485
922.898	9439
923.007	9405
923.116	9473
923.224	9458
923.333	9351
923.442	9321
923.55	9275
923.659	9313
923.767	9348
923.876	9302
923.984	9298
924.092	9313
924.201	9313
924.309	9233
924.417	9275
924.525	9253
924.633	9245
924.741	10002
924.849	9051
924.956	9192
925.064	9066
925.172	9036
925.279	9005
925.387	9108
925.494	9085
925.602	9218
925.709	9192
925.816	8963
925.924	9085
926.031	9222
926.138	9112
926.245	9112
926.352	9013
926.459	9154
926.566	9135
926.673	9036
926.779	8941
926.886	8990
926.993	8838
927.099	8834
927.206	8735
927.312	8712
927.419	8864
927.525	8788
927.631	8887
927.737	8693
927.843	8663
927.95	8583
928.056	8693
928.162	8739
928.267	8746
928.373	9359
928.479	8811
928.585	8587
928.69	8697
928.796	8788
928.901	8670
929.007	8522
929.112	8667
929.218	8564
929.323	8511
929.428	8503
929.533	8613
929.638	8446
929.743	8518
929.848	8560
929.953	8537
930.058	8446
930.163	8240
930.267	8339
930.372	8488
930.477	8233
930.581	8484
930.685	8309
930.79	8248
930.894	8252
930.998	8218
931.103	8415
931.207	8035
931.311	7921
931.415	7909
931.519	7742
931.623	7708
