Data from test_V78500241_1088.txt Node
Date: Fri Mar 25 14:41:17 CST 2022
User: usil
Spectrometer: V785-0024
Trigger mode: 0
Integration Time (sec): 4.000000E-1
Scans to average: 1
Nonlinearity correction enabled: false
Boxcar width: 0
Storing dark spectrum: false
XAxis mode: Wavelengths
Number of Pixels in Spectrum: 1024
>>>>>Begin Spectral Data<<<<<
801.071	22721
801.214	22634
801.356	22344
801.499	22242
801.641	22086
801.783	22029
801.926	21991
802.068	21953
802.211	21968
802.353	21774
802.496	21622
802.638	21591
802.78	21488
802.923	21473
803.065	21469
803.208	21401
803.35	21329
803.492	21439
803.635	21420
803.777	21431
803.919	21462
804.061	21827
804.204	21469
804.346	21355
804.488	21329
804.63	21473
804.773	21211
804.915	21260
805.057	21431
805.199	21428
805.341	21424
805.483	21412
805.626	21405
805.768	21214
805.91	21401
806.052	21336
806.194	21211
806.336	21477
806.478	21447
806.62	21458
806.762	21287
806.904	21428
807.046	21812
807.188	21713
807.33	21694
807.472	21846
807.614	21675
807.756	21774
807.898	21663
808.04	21686
808.182	21629
808.324	21644
808.465	21774
808.607	22017
808.749	22192
808.891	22360
809.033	22360
809.174	22238
809.316	21994
809.458	21991
809.6	21972
809.741	22040
809.883	21907
810.025	22105
810.166	21838
810.308	21968
810.45	21945
810.591	21774
810.733	21652
810.875	21572
811.016	21542
811.158	21477
811.299	21583
811.441	21679
811.582	21709
811.724	21595
811.865	21405
812.007	21515
812.148	21485
812.29	21572
812.431	21663
812.573	21880
812.714	21873
812.855	22036
812.997	22048
813.138	22223
813.279	22150
813.421	22147
813.562	22032
813.703	21739
813.845	21720
813.986	21370
814.127	21283
814.268	21058
814.41	21157
814.551	21074
814.692	21264
814.833	21017
814.974	21043
815.115	21070
815.256	21009
815.397	20990
815.539	20929
815.68	20743
815.821	20727
815.962	20880
816.103	20826
816.244	20674
816.385	20636
816.526	20545
816.666	20339
816.807	20202
816.948	20271
817.089	20290
817.23	20339
817.371	20309
817.512	20218
817.653	20275
817.793	20202
817.934	20282
818.075	20286
818.216	20282
818.356	20202
818.497	20069
818.638	19852
818.778	19879
818.919	19989
819.06	19978
819.2	19997
819.341	20103
819.481	20107
819.622	20301
819.762	20374
819.903	20457
820.043	20164
820.184	20320
820.324	20256
820.465	20286
820.605	20313
820.746	20149
820.886	20088
821.026	20115
821.167	20199
821.307	20199
821.447	20103
821.588	20001
821.728	19978
821.868	19830
822.008	19590
822.149	19635
822.289	19590
822.429	19388
822.569	19308
822.709	19282
822.849	19122
822.99	19004
823.13	19053
823.27	19065
823.41	18844
823.55	18928
823.69	18954
823.83	18928
823.97	18875
824.11	18722
824.25	18627
824.389	18707
824.529	18810
824.669	18726
824.809	18776
824.949	18844
825.089	18795
825.228	18696
825.368	18597
825.508	18460
825.648	18582
825.787	18665
825.927	18540
826.067	18448
826.206	18467
826.346	18471
826.485	18612
826.625	18429
826.765	18585
826.904	18547
827.044	18277
827.183	18357
827.323	18224
827.462	18186
827.601	18045
827.741	18228
827.88	18182
828.02	18076
828.159	18117
828.298	18247
828.437	18205
828.577	18129
828.716	18380
828.855	18087
828.994	17920
829.134	17988
829.273	18019
829.412	17939
829.551	17843
829.69	17840
829.829	18026
829.968	17942
830.107	18022
830.246	17870
830.385	17920
830.524	17847
830.663	17840
830.802	17760
830.941	17535
831.08	17615
831.219	17714
831.357	17581
831.496	17824
831.635	17566
831.774	17539
831.913	17414
832.051	17322
832.19	17296
832.329	17410
832.467	17277
832.606	17296
832.744	17273
832.883	17356
833.022	17223
833.16	17212
833.299	17250
833.437	17322
833.576	17280
833.714	17349
833.852	17292
833.991	17402
834.129	17395
834.267	17326
834.406	17337
834.544	17326
834.682	17235
834.821	17372
834.959	17524
835.097	17265
835.235	17391
835.373	17383
835.511	17315
835.65	17178
835.788	17299
835.926	17121
836.064	17071
836.202	17109
836.34	17246
836.478	17284
836.615	17212
836.753	17185
836.891	17364
837.029	17261
837.167	17197
837.305	17121
837.443	17178
837.58	17006
837.718	17185
837.856	17098
837.993	17067
838.131	17094
838.269	17102
838.406	17143
838.544	16984
838.681	16816
838.819	16812
838.956	16626
839.094	16592
839.231	16675
839.369	16649
839.506	16942
839.643	16957
839.781	16618
839.918	16584
840.055	16626
840.193	16626
840.33	16588
840.467	16622
840.604	16698
840.742	16847
840.879	16500
841.016	16550
841.153	16466
841.29	16736
841.427	16710
841.564	16706
841.701	16706
841.838	16512
841.975	16462
842.112	16504
842.249	16402
842.385	16428
842.522	16535
842.659	16398
842.796	16261
842.933	16424
843.069	16371
843.206	16356
843.343	16519
843.479	16379
843.616	16459
843.752	16299
843.889	16257
844.025	16318
844.162	16139
844.298	16276
844.435	16246
844.571	16181
844.708	16333
844.844	16322
844.98	16382
845.117	16367
845.253	16200
845.389	16139
845.525	16188
845.661	16356
845.798	16318
845.934	16508
846.07	16512
846.206	16592
846.342	16516
846.478	16325
846.614	16029
846.75	15842
846.886	15728
847.022	15850
847.158	15816
847.294	15766
847.429	15778
847.565	15732
847.701	15964
847.837	15481
847.972	15530
848.108	15572
848.244	15424
848.379	15393
848.515	15294
848.65	15344
848.786	15302
848.921	15329
849.057	15458
849.192	15416
849.328	15389
849.463	15313
849.598	15237
849.734	15195
849.869	15272
850.004	15150
850.14	15077
850.275	15070
850.41	14963
850.545	15020
850.68	15039
850.815	15135
850.95	15119
851.085	15237
851.22	15138
851.355	14998
851.49	15036
851.625	15127
851.76	15070
851.895	14921
852.03	15074
852.165	15028
852.299	15039
852.434	15077
852.569	15222
852.703	15154
852.838	15180
852.973	15207
853.107	15211
853.242	14979
853.376	14925
853.511	14880
853.645	14868
853.78	15081
853.914	14982
854.048	14933
854.183	15020
854.317	14914
854.451	15173
854.585	14910
854.72	14861
854.854	14994
854.988	14906
855.122	14876
855.256	14804
855.39	14910
855.524	14914
855.658	14910
855.792	14800
855.926	14990
856.06	15020
856.194	15077
856.327	14895
856.461	14956
856.595	14994
856.729	14883
856.862	15066
856.996	14979
857.13	14986
857.263	15214
857.397	15089
857.53	14956
857.664	14994
857.797	14994
857.931	15039
858.064	14956
858.197	15097
858.331	14975
858.464	14929
858.597	14826
858.731	14868
858.864	15017
858.997	14921
859.13	14956
859.263	14914
859.396	15051
859.529	14986
859.662	14990
859.795	14853
859.928	14979
860.061	15062
860.194	15116
860.327	14902
860.46	14986
860.592	15051
860.725	15089
860.858	15066
860.99	14895
861.123	14906
861.256	14868
861.388	14937
861.521	15561
861.653	14941
861.786	14724
861.918	14769
862.05	14815
862.183	14982
862.315	14963
862.447	15017
862.58	14880
862.712	14712
862.844	14625
862.976	14861
863.108	14739
863.24	15116
863.372	14735
863.504	14693
863.636	14644
863.768	14754
863.9	14640
864.032	14686
864.164	14724
864.296	14765
864.428	14872
864.559	14697
864.691	14815
864.823	14735
864.954	14842
865.086	14701
865.217	14708
865.349	14648
865.48	14705
865.612	14701
865.743	14872
865.875	14720
866.006	14651
866.137	14716
866.269	14670
866.4	14743
866.531	14678
866.662	14651
866.793	14602
866.924	14655
867.055	14636
867.186	14743
867.317	14670
867.448	14598
867.579	14750
867.71	14689
867.841	14610
867.972	14800
868.103	14537
868.233	14693
868.364	14701
868.495	14727
868.625	14857
868.756	15047
868.886	14944
869.017	14956
869.147	15028
869.278	15043
869.408	14910
869.539	14887
869.669	15097
869.799	15043
869.929	15051
870.06	15009
870.19	15287
870.32	15272
870.45	15325
870.58	15321
870.71	15412
870.84	15378
870.97	15386
871.1	15272
871.23	15534
871.36	15507
871.489	15431
871.619	15488
871.749	15534
871.879	15549
872.008	15690
872.138	15526
872.267	15435
872.397	15405
872.526	15408
872.656	15298
872.785	15405
872.915	15511
873.044	15584
873.173	15606
873.303	15739
873.432	15576
873.561	15652
873.69	15591
873.819	15644
873.948	15709
874.077	15584
874.206	15568
874.335	15538
874.464	15751
874.593	15842
874.722	15766
874.851	15892
874.979	15892
875.108	15857
875.237	15861
875.365	15774
875.494	15755
875.623	15994
875.751	15865
875.88	15941
876.008	15991
876.136	16090
876.265	16306
876.393	16459
876.521	16500
876.65	16341
876.778	16318
876.906	16253
877.034	16234
877.162	16299
877.29	16242
877.418	16367
877.546	16310
877.674	16299
877.802	16268
877.93	16360
878.058	16344
878.185	16253
878.313	16417
878.441	16390
878.568	16116
878.696	16249
878.824	16500
878.951	16421
879.079	16736
879.206	16752
879.333	16668
879.461	16626
879.588	16687
879.715	16778
879.842	16869
879.97	16660
880.097	16367
880.224	16192
880.351	16303
880.478	16310
880.605	16207
880.732	16238
880.859	16538
880.986	16284
881.112	16280
881.239	15994
881.366	16010
881.493	15918
881.619	15972
881.746	15873
881.872	15953
881.999	15709
882.125	15873
882.252	16013
882.378	15827
882.505	15994
882.631	15842
882.757	15728
882.883	15633
883.01	15663
883.136	15656
883.262	15504
883.388	15648
883.514	15701
883.64	15781
883.766	15663
883.892	15485
884.018	15603
884.143	15667
884.269	15842
884.395	15370
884.52	15351
884.646	15382
884.772	15351
884.897	15291
885.023	15405
885.148	15496
885.274	15500
885.399	15454
885.524	15321
885.65	15519
885.775	15420
885.9	15405
886.025	15519
886.15	15454
886.275	15249
886.4	15291
886.525	15272
886.65	15272
886.775	15241
886.9	15473
887.025	15519
887.149	15256
887.274	15226
887.399	15119
887.523	15085
887.648	14971
887.773	15089
887.897	15222
888.021	15249
888.146	15169
888.27	15283
888.395	15233
888.519	15249
888.643	15260
888.767	15256
888.891	15135
889.015	15036
889.139	15058
889.263	15020
889.387	15192
889.511	15089
889.635	15188
889.759	14986
889.883	15005
890.006	15005
890.13	15055
890.254	14986
890.377	14929
890.501	14819
890.624	14769
890.748	14876
890.871	14750
890.995	14625
891.118	14556
891.241	14731
891.364	14769
891.488	14849
891.611	14667
891.734	14705
891.857	14769
891.98	14712
892.103	14724
892.226	14735
892.349	14697
892.471	14511
892.594	14648
892.717	14651
892.839	14621
892.962	14746
893.085	14606
893.207	14708
893.33	14587
893.452	14686
893.575	14773
893.697	14617
893.819	14880
893.941	14868
894.064	14872
894.186	14610
894.308	14617
894.43	14785
894.552	14743
894.674	14800
894.796	14655
894.918	14746
895.04	14697
895.161	14735
895.283	14765
895.405	14716
895.526	14678
895.648	14807
895.769	14785
895.891	14792
896.012	14823
896.134	14826
896.255	14788
896.376	14724
896.498	14754
896.619	14845
896.74	14872
896.861	14868
896.982	15199
897.103	15332
897.224	15180
897.345	15089
897.466	15039
897.587	15013
897.708	15192
897.828	15169
897.949	15077
898.07	15024
898.19	15009
898.311	15313
898.431	15066
898.552	15184
898.672	15131
898.792	15226
898.913	15135
899.033	15032
899.153	15089
899.273	14918
899.393	14971
899.513	14975
899.633	14956
899.753	15028
899.873	14975
899.993	15062
900.113	14982
900.232	15009
900.352	15085
900.472	14944
900.591	14807
900.711	14960
900.83	14811
900.95	15024
901.069	14975
901.189	14883
901.308	14724
901.427	14492
901.546	14518
901.665	14511
901.784	14575
901.904	14415
902.023	14343
902.141	14130
902.26	14138
902.379	14210
902.498	14005
902.617	14005
902.735	14138
902.854	14092
902.973	14043
903.091	13845
903.21	13784
903.328	13814
903.446	13750
903.565	13643
903.683	13655
903.801	13540
903.919	13571
904.038	13681
904.156	13457
904.274	13510
904.392	13445
904.51	13464
904.627	13419
904.745	13529
904.863	13544
904.981	13270
905.098	13110
905.216	13141
905.334	13152
905.451	13183
905.569	13141
905.686	13339
905.803	13202
905.921	13038
906.038	13053
906.155	12958
906.272	12844
906.389	12859
906.506	12730
906.623	12764
906.74	12612
906.857	12585
906.974	12582
907.091	12806
907.208	12939
907.324	12730
907.441	12635
907.557	12532
907.674	12574
907.79	12403
907.907	12445
908.023	12418
908.139	12369
908.256	12452
908.372	12391
908.488	12353
908.604	12194
908.72	12148
908.836	12182
908.952	12148
909.068	12251
909.184	12270
909.3	12194
909.415	12258
909.531	12224
909.647	12083
909.762	11942
909.878	11965
909.993	12053
910.108	11920
910.224	11954
910.339	11885
910.454	11840
910.57	11863
910.685	11726
910.8	12034
910.915	12045
911.03	11741
911.145	11657
911.259	11680
911.374	11733
911.489	11528
911.604	11608
911.718	11509
911.833	11524
911.947	11299
912.062	11277
912.176	11376
912.291	11452
912.405	11471
912.519	11726
912.633	11554
912.748	11440
912.862	11391
912.976	11292
913.09	11197
913.204	11288
913.318	11345
913.431	11376
913.545	11364
913.659	11383
913.772	11322
913.886	11239
914	11151
914.113	11231
914.226	11292
914.34	11201
914.453	11086
914.566	11265
914.68	11124
914.793	11064
914.906	10927
915.019	10881
915.132	10904
915.245	10885
915.358	10919
915.47	10995
915.583	10980
915.696	10995
915.809	11056
915.921	10991
916.034	10869
916.146	10824
916.259	10828
916.371	10961
916.483	10873
916.595	10790
916.708	10892
916.82	10831
916.932	10809
917.044	10805
917.156	10828
917.268	10801
917.38	10694
917.491	10679
917.603	10805
917.715	10782
917.826	10790
917.938	10729
918.049	10599
918.161	10744
918.272	10839
918.384	10847
918.495	10767
918.606	10660
918.717	10512
918.828	10634
918.939	10637
919.05	10516
919.161	10500
919.272	10451
919.383	10455
919.494	10645
919.604	10866
919.715	10588
919.826	10474
919.936	10569
920.047	10702
920.157	10527
920.267	10805
920.378	10615
920.488	10622
920.598	10824
920.708	10976
920.818	10797
920.928	10755
921.038	10999
921.148	10961
921.258	10565
921.368	10500
921.477	10493
921.587	10493
921.697	10356
921.806	10485
921.916	10421
922.025	10185
922.134	10128
922.244	10154
922.353	10188
922.462	10067
922.571	9922
922.68	9880
922.789	9823
922.898	9762
923.007	9816
923.116	9766
923.224	9873
923.333	9774
923.442	9667
923.55	9724
923.659	9694
923.767	9781
923.876	9694
923.984	9766
924.092	9705
924.201	9599
924.309	9637
924.417	9671
924.525	9633
924.633	9671
924.741	10569
924.849	9496
924.956	9629
925.064	9443
925.172	9428
925.279	9382
925.387	9538
925.494	9386
925.602	9603
925.709	9473
925.816	9435
925.924	9389
926.031	9553
926.138	9443
926.245	9477
926.352	9401
926.459	9523
926.566	9519
926.673	9386
926.779	9325
926.886	9302
926.993	9176
927.099	9207
927.206	9135
927.312	9116
927.419	9226
927.525	9241
927.631	9203
927.737	9036
927.843	9020
927.95	8925
928.056	9066
928.162	8979
928.267	9070
928.373	9720
928.479	9085
928.585	8918
928.69	9085
928.796	9039
928.901	8937
929.007	8807
929.112	9024
929.218	8979
929.323	8925
929.428	8857
929.533	9020
929.638	8830
929.743	8899
929.848	8861
929.953	8910
930.058	8766
930.163	8511
930.267	8644
930.372	8819
930.477	8575
930.581	8758
930.685	8716
930.79	8587
930.894	8610
930.998	8610
931.103	8663
931.207	8351
931.311	8240
931.415	8267
931.519	8126
931.623	8092
