Data from test_V78500241_1719.txt Node
Date: Fri Mar 25 14:45:41 CST 2022
User: usil
Spectrometer: V785-0024
Trigger mode: 0
Integration Time (sec): 4.000000E-1
Scans to average: 1
Nonlinearity correction enabled: false
Boxcar width: 0
Storing dark spectrum: false
XAxis mode: Wavelengths
Number of Pixels in Spectrum: 1024
>>>>>Begin Spectral Data<<<<<
801.071	22322
801.214	22215
801.356	21804
801.499	21766
801.641	21713
801.783	21603
801.926	21675
802.068	21583
802.211	21466
802.353	21359
802.496	21192
802.638	21165
802.78	21001
802.923	20937
803.065	20975
803.208	20967
803.35	20883
803.492	21013
803.635	21081
803.777	21055
803.919	21157
804.061	21294
804.204	20990
804.346	20960
804.488	20800
804.63	20941
804.773	20838
804.915	21005
805.057	21036
805.199	20815
805.341	20910
805.483	21005
805.626	21013
805.768	20914
805.91	20933
806.052	20925
806.194	20963
806.336	21024
806.478	20880
806.62	20781
806.762	20864
806.904	21127
807.046	21287
807.188	21291
807.33	21218
807.472	21291
807.614	21100
807.756	21192
807.898	20887
808.04	20944
808.182	21028
808.324	20933
808.465	21001
808.607	21272
808.749	21203
808.891	21351
809.033	21466
809.174	21329
809.316	21279
809.458	21302
809.6	21283
809.741	21336
809.883	21397
810.025	21412
810.166	21454
810.308	21420
810.45	21302
810.591	21180
810.733	21096
810.875	21017
811.016	20994
811.158	20918
811.299	21077
811.441	21226
811.582	21161
811.724	21066
811.865	20986
812.007	21081
812.148	21108
812.29	21116
812.431	21218
812.573	21439
812.714	21466
812.855	21686
812.997	21641
813.138	21625
813.279	21599
813.421	21542
813.562	21348
813.703	21291
813.845	21211
813.986	20933
814.127	20746
814.268	20590
814.41	20598
814.551	20549
814.692	20667
814.833	20568
814.974	20454
815.115	20602
815.256	20514
815.397	20381
815.539	20419
815.68	20423
815.821	20328
815.962	20271
816.103	20374
816.244	20130
816.385	20035
816.526	20016
816.666	19906
816.807	19811
816.948	19890
817.089	19852
817.23	19765
817.371	19731
817.512	19765
817.653	19632
817.793	19674
817.934	19784
818.075	19753
818.216	19708
818.356	19731
818.497	19628
818.638	19419
818.778	19499
818.919	19377
819.06	19339
819.2	19601
819.341	19563
819.481	19533
819.622	19655
819.762	19879
819.903	19837
820.043	19757
820.184	19708
820.324	19765
820.465	19708
820.605	19662
820.746	19662
820.886	19499
821.026	19712
821.167	19696
821.307	19655
821.447	19655
821.588	19495
821.728	19487
821.868	19282
822.008	19129
822.149	19069
822.289	18958
822.429	18897
822.569	18772
822.709	18913
822.849	18650
822.99	18597
823.13	18490
823.27	18551
823.41	18422
823.55	18433
823.69	18525
823.83	18429
823.97	18365
824.11	18220
824.25	18087
824.389	18243
824.529	18254
824.669	18239
824.809	18327
824.949	18289
825.089	18266
825.228	18285
825.368	18057
825.508	18182
825.648	18060
825.787	17980
825.927	18079
826.067	17980
826.206	18053
826.346	17965
826.485	17958
826.625	18015
826.765	18068
826.904	18022
827.044	17752
827.183	17767
827.323	17657
827.462	17714
827.601	17733
827.741	17676
827.88	17817
828.02	17577
828.159	17680
828.298	17764
828.437	17798
828.577	17687
828.716	17813
828.855	17653
828.994	17467
829.134	17383
829.273	17611
829.412	17376
829.551	17364
829.69	17376
829.829	17532
829.968	17680
830.107	17482
830.246	17444
830.385	17410
830.524	17280
830.663	17296
830.802	17178
830.941	17075
831.08	17079
831.219	17193
831.357	17162
831.496	17250
831.635	17090
831.774	16942
831.913	16953
832.051	16786
832.19	16831
832.329	16866
832.467	16698
832.606	16672
832.744	16748
832.883	16691
833.022	16763
833.16	16835
833.299	16687
833.437	16694
833.576	16805
833.714	16877
833.852	16850
833.991	16892
834.129	16843
834.267	16862
834.406	16828
834.544	16816
834.682	16809
834.821	16744
834.959	16881
835.097	16778
835.235	16911
835.373	16748
835.511	16713
835.65	16694
835.788	16790
835.926	16622
836.064	16455
836.202	16561
836.34	16774
836.478	16687
836.615	16615
836.753	16755
836.891	16812
837.029	16812
837.167	16771
837.305	16573
837.443	16588
837.58	16489
837.718	16516
837.856	16538
837.993	16462
838.131	16512
838.269	16466
838.406	16523
838.544	16455
838.681	16276
838.819	16303
838.956	16082
839.094	16109
839.231	16032
839.369	16166
839.506	16531
839.643	16325
839.781	16116
839.918	15991
840.055	16074
840.193	16112
840.33	16032
840.467	16021
840.604	16048
840.742	16333
840.879	15968
841.016	15956
841.153	15991
841.29	16287
841.427	16166
841.564	16105
841.701	16158
841.838	16090
841.975	15975
842.112	16021
842.249	15907
842.385	15888
842.522	16055
842.659	15979
842.796	15831
842.933	15953
843.069	15873
843.206	15846
843.343	15842
843.479	15918
843.616	15930
843.752	15610
843.889	15622
844.025	15808
844.162	15656
844.298	15732
844.435	15694
844.571	15549
844.708	15675
844.844	15835
844.98	15770
845.117	15766
845.253	15747
845.389	15557
845.525	15587
845.661	15462
845.798	15466
845.934	15500
846.07	15389
846.206	15557
846.342	15568
846.478	15469
846.614	15294
846.75	15157
846.886	15188
847.022	15367
847.158	15287
847.294	15169
847.429	15230
847.565	15252
847.701	15466
847.837	14975
847.972	14933
848.108	15127
848.244	15123
848.379	14899
848.515	14735
848.65	14883
848.786	14872
848.921	14807
849.057	14994
849.192	14876
849.328	14834
849.463	14834
849.598	14834
849.734	14811
849.869	14697
850.004	14689
850.14	14610
850.275	14667
850.41	14579
850.545	14492
850.68	14499
850.815	14621
850.95	14499
851.085	14819
851.22	14636
851.355	14613
851.49	14629
851.625	14499
851.76	14564
851.895	14377
852.03	14419
852.165	14583
852.299	14610
852.434	14670
852.569	14670
852.703	14697
852.838	14712
852.973	14724
853.107	14678
853.242	14613
853.376	14377
853.511	14377
853.645	14499
853.78	14556
853.914	14457
854.048	14404
854.183	14450
854.317	14518
854.451	14564
854.585	14366
854.72	14465
854.854	14412
854.988	14301
855.122	14484
855.256	14358
855.39	14476
855.524	14648
855.658	14480
855.792	14503
855.926	14438
856.06	14545
856.194	14514
856.327	14549
856.461	14294
856.595	14393
856.729	14427
856.862	14427
856.996	14488
857.13	14552
857.263	14454
857.397	14610
857.53	14503
857.664	14549
857.797	14522
857.931	14587
858.064	14454
858.197	14488
858.331	14492
858.464	14442
858.597	14317
858.731	14450
858.864	14423
858.997	14408
859.13	14423
859.263	14518
859.396	14537
859.529	14431
859.662	14438
859.795	14415
859.928	14427
860.061	14613
860.194	14583
860.327	14564
860.46	14457
860.592	14552
860.725	14651
860.858	14674
860.99	14465
861.123	14427
861.256	14389
861.388	14450
861.521	15116
861.653	14278
861.786	14324
861.918	14377
862.05	14465
862.183	14423
862.315	14396
862.447	14499
862.58	14393
862.712	14233
862.844	14153
862.976	14313
863.108	14328
863.24	14621
863.372	14149
863.504	14187
863.636	14278
863.768	14176
863.9	14244
864.032	14043
864.164	14164
864.296	14229
864.428	14240
864.559	14278
864.691	14317
864.823	14244
864.954	14278
865.086	14252
865.217	14103
865.349	14161
865.48	14142
865.612	14206
865.743	14362
865.875	14233
866.006	14153
866.137	14142
866.269	14256
866.4	14240
866.531	14183
866.662	14214
866.793	14199
866.924	14252
867.055	14199
867.186	14187
867.317	14164
867.448	14081
867.579	14168
867.71	14134
867.841	14164
867.972	14218
868.103	14145
868.233	14176
868.364	14248
868.495	14290
868.625	14389
868.756	14556
868.886	14336
869.017	14465
869.147	14594
869.278	14522
869.408	14617
869.539	14415
869.669	14503
869.799	14484
869.929	14556
870.06	14575
870.19	14750
870.32	14762
870.45	14842
870.58	14880
870.71	15036
870.84	14899
870.97	14773
871.1	14773
871.23	15005
871.36	15066
871.489	15013
871.619	14986
871.749	14971
871.879	14994
872.008	15218
872.138	15089
872.267	15028
872.397	14899
872.526	14895
872.656	14918
872.785	14895
872.915	15173
873.044	15245
873.173	15085
873.303	15142
873.432	15123
873.561	15230
873.69	15108
873.819	15119
873.948	15192
874.077	15097
874.206	15104
874.335	15108
874.464	15310
874.593	15439
874.722	15435
874.851	15412
874.979	15431
875.108	15492
875.237	15389
875.365	15416
875.494	15355
875.623	15481
875.751	15401
875.88	15477
876.008	15549
876.136	15679
876.265	15819
876.393	15911
876.521	15953
876.65	15876
876.778	15888
876.906	15793
877.034	15835
877.162	15892
877.29	15861
877.418	15861
877.546	15781
877.674	15819
877.802	15865
877.93	15762
878.058	15819
878.185	15671
878.313	15781
878.441	15816
878.568	15675
878.696	15675
878.824	15873
878.951	15812
879.079	16017
879.206	16177
879.333	16063
879.461	15907
879.588	15994
879.715	15998
879.842	16166
879.97	15937
880.097	15827
880.224	15660
880.351	15701
880.478	15656
880.605	15736
880.732	15652
880.859	15880
880.986	15610
881.112	15778
881.239	15572
881.366	15447
881.493	15454
881.619	15317
881.746	15382
881.872	15245
881.999	15291
882.125	15302
882.252	15443
882.378	15260
882.505	15458
882.631	15268
882.757	15222
882.883	15241
883.01	15161
883.136	15233
883.262	14952
883.388	14948
883.514	15157
883.64	15097
883.766	15104
883.892	14998
884.018	14941
884.143	15195
884.269	15310
884.395	14975
884.52	14823
884.646	14777
884.772	14743
884.897	14705
885.023	14914
885.148	15036
885.274	15032
885.399	14956
885.524	14842
885.65	14773
885.775	14895
885.9	14830
886.025	14998
886.15	14925
886.275	14895
886.4	14773
886.525	14804
886.65	14773
886.775	14880
886.9	14971
887.025	15161
887.149	14861
887.274	14720
887.399	14678
887.523	14644
887.648	14697
887.773	14556
887.897	14765
888.021	14758
888.146	14701
888.27	14861
888.395	14773
888.519	14746
888.643	14678
888.767	14796
888.891	14598
889.015	14385
889.139	14613
889.263	14461
889.387	14594
889.511	14746
889.635	14720
889.759	14526
889.883	14549
890.006	14564
890.13	14644
890.254	14503
890.377	14465
890.501	14434
890.624	14370
890.748	14434
890.871	14370
890.995	14153
891.118	14088
891.241	14294
891.364	14233
891.488	14294
891.611	14214
891.734	14157
891.857	14313
891.98	14237
892.103	14377
892.226	14317
892.349	14282
892.471	14149
892.594	14187
892.717	14313
892.839	14187
892.962	14214
893.085	14206
893.207	14195
893.33	14176
893.452	14187
893.575	14343
893.697	14237
893.819	14389
893.941	14431
894.064	14457
894.186	14088
894.308	14187
894.43	14305
894.552	14461
894.674	14454
894.796	14149
894.918	14221
895.04	14233
895.161	14408
895.283	14286
895.405	14240
895.526	14347
895.648	14355
895.769	14332
895.891	14389
896.012	14503
896.134	14492
896.255	14267
896.376	14317
896.498	14347
896.619	14415
896.74	14400
896.861	14484
896.982	14773
897.103	14887
897.224	14678
897.345	14579
897.466	14594
897.587	14663
897.708	14823
897.828	14777
897.949	14629
898.07	14621
898.19	14674
898.311	14826
898.431	14705
898.552	14705
898.672	14796
898.792	14819
898.913	14644
899.033	14640
899.153	14590
899.273	14545
899.393	14537
899.513	14613
899.633	14556
899.753	14651
899.873	14571
899.993	14674
900.113	14621
900.232	14625
900.352	14648
900.472	14381
900.591	14427
900.711	14537
900.83	14393
900.95	14636
901.069	14583
901.189	14415
901.308	14210
901.427	14153
901.546	14130
901.665	14161
901.784	14142
901.904	14008
902.023	13940
902.141	13689
902.26	13803
902.379	13837
902.498	13776
902.617	13616
902.735	13738
902.854	13700
902.973	13552
903.091	13457
903.21	13438
903.328	13514
903.446	13346
903.565	13285
903.683	13308
903.801	13091
903.919	13244
904.038	13255
904.156	13080
904.274	13190
904.392	13118
904.51	13069
904.627	13088
904.745	13133
904.863	13175
904.981	12859
905.098	12795
905.216	12817
905.334	12802
905.451	12791
905.569	12791
905.686	12764
905.803	12772
905.921	12604
906.038	12620
906.155	12589
906.272	12521
906.389	12547
906.506	12426
906.623	12330
906.74	12346
906.857	12190
906.974	12273
907.091	12475
907.208	12448
907.324	12346
907.441	12228
907.557	12102
907.674	12114
907.79	12041
907.907	12030
908.023	12136
908.139	12117
908.256	12106
908.372	12045
908.488	12072
908.604	11969
908.72	11870
908.836	11824
908.952	11840
909.068	11855
909.184	12015
909.3	11828
909.415	11920
909.531	11847
909.647	11657
909.762	11684
909.878	11627
909.993	11661
910.108	11680
910.224	11703
910.339	11619
910.454	11581
910.57	11455
910.685	11402
910.8	11665
910.915	11577
911.03	11452
911.145	11315
911.259	11265
911.374	11406
911.489	11216
911.604	11254
911.718	11204
911.833	11052
911.947	10980
912.062	10995
912.176	11086
912.291	11071
912.405	11147
912.519	11345
912.633	11307
912.748	11124
912.862	11155
912.976	11003
913.09	10877
913.204	10934
913.318	10881
913.431	11052
913.545	11083
913.659	11045
913.772	11029
913.886	10801
914	10828
914.113	10927
914.226	10976
914.34	10942
914.453	10790
914.566	10911
914.68	10801
914.793	10862
914.906	10580
915.019	10599
915.132	10500
915.245	10626
915.358	10683
915.47	10622
915.583	10630
915.696	10603
915.809	10729
915.921	10744
916.034	10584
916.146	10527
916.259	10413
916.371	10588
916.483	10580
916.595	10558
916.708	10607
916.82	10554
916.932	10459
917.044	10512
917.156	10527
917.268	10367
917.38	10417
917.491	10432
917.603	10417
917.715	10443
917.826	10592
917.938	10356
918.049	10352
918.161	10409
918.272	10512
918.384	10459
918.495	10447
918.606	10318
918.717	10204
918.828	10268
918.939	10303
919.05	10196
919.161	10268
919.272	10063
919.383	10105
919.494	10318
919.604	10523
919.715	10360
919.826	10162
919.936	10272
920.047	10402
920.157	10295
920.267	10478
920.378	10322
920.488	10299
920.598	10417
920.708	10649
920.818	10485
920.928	10451
921.038	10618
921.148	10592
921.258	10379
921.368	10268
921.477	10166
921.587	10223
921.697	10017
921.806	10166
921.916	10082
922.025	9911
922.134	9884
922.244	9842
922.353	9922
922.462	9724
922.571	9656
922.68	9549
922.789	9519
922.898	9572
923.007	9492
923.116	9667
923.224	9580
923.333	9542
923.442	9397
923.55	9370
923.659	9469
923.767	9477
923.876	9428
923.984	9504
924.092	9439
924.201	9420
924.309	9553
924.417	9428
924.525	9302
924.633	9424
924.741	10295
924.849	9222
924.956	9302
925.064	9188
925.172	9058
925.279	9176
925.387	9329
925.494	9173
925.602	9348
925.709	9287
925.816	9138
925.924	9195
926.031	9241
926.138	9214
926.245	9306
926.352	9199
926.459	9287
926.566	9355
926.673	9180
926.779	9119
926.886	9028
926.993	8944
927.099	8910
927.206	8804
927.312	8864
927.419	8994
927.525	8853
927.631	8929
927.737	8830
927.843	8785
927.95	8731
928.056	8785
928.162	8819
928.267	8826
928.373	9458
928.479	8929
928.585	8689
928.69	8819
928.796	8880
928.901	8838
929.007	8530
929.112	8750
929.218	8746
929.323	8682
929.428	8533
929.533	8769
929.638	8556
929.743	8621
929.848	8606
929.953	8549
930.058	8541
930.163	8381
930.267	8412
930.372	8533
930.477	8370
930.581	8583
930.685	8507
930.79	8332
930.894	8351
930.998	8317
931.103	8450
931.207	8149
931.311	8088
931.415	7978
931.519	7772
931.623	7871
