Data from test_V78500241_1248.txt Node
Date: Fri Mar 25 14:42:24 CST 2022
User: usil
Spectrometer: V785-0024
Trigger mode: 0
Integration Time (sec): 4.000000E-1
Scans to average: 1
Nonlinearity correction enabled: false
Boxcar width: 0
Storing dark spectrum: false
XAxis mode: Wavelengths
Number of Pixels in Spectrum: 1024
>>>>>Begin Spectral Data<<<<<
801.071	22261
801.214	22390
801.356	21987
801.499	21994
801.641	21705
801.783	21793
801.926	21770
802.068	21656
802.211	21583
802.353	21435
802.496	21272
802.638	21169
802.78	21157
802.923	21074
803.065	21074
803.208	21180
803.35	21005
803.492	21161
803.635	21131
803.777	21070
803.919	21165
804.061	21481
804.204	21127
804.346	21005
804.488	21043
804.63	21066
804.773	20918
804.915	20933
805.057	21199
805.199	21039
805.341	21051
805.483	21089
805.626	21093
805.768	21051
805.91	21009
806.052	20937
806.194	20994
806.336	21154
806.478	20910
806.62	21043
806.762	21074
806.904	21260
807.046	21420
807.188	21317
807.33	21363
807.472	21488
807.614	21264
807.756	21332
807.898	21214
808.04	21051
808.182	21184
808.324	21039
808.465	21245
808.607	21412
808.749	21447
808.891	21633
809.033	21599
809.174	21583
809.316	21504
809.458	21393
809.6	21530
809.741	21485
809.883	21526
810.025	21610
810.166	21507
810.308	21477
810.45	21564
810.591	21458
810.733	21313
810.875	21169
811.016	21112
811.158	21157
811.299	21241
811.441	21473
811.582	21359
811.724	21230
811.865	21207
812.007	21157
812.148	21123
812.29	21237
812.431	21325
812.573	21370
812.714	21526
812.855	21709
812.997	21720
813.138	21876
813.279	21686
813.421	21838
813.562	21580
813.703	21420
813.845	21298
813.986	21100
814.127	20864
814.268	20773
814.41	20674
814.551	20678
814.692	20800
814.833	20689
814.974	20663
815.115	20678
815.256	20575
815.397	20492
815.539	20507
815.68	20389
815.821	20343
815.962	20446
816.103	20332
816.244	20248
816.385	20309
816.526	20202
816.666	20069
816.807	19849
816.948	20088
817.089	20016
817.23	19959
817.371	19875
817.512	19879
817.653	19845
817.793	19845
817.934	19799
818.075	19986
818.216	19917
818.356	19841
818.497	19666
818.638	19559
818.778	19529
818.919	19575
819.06	19575
819.2	19693
819.341	19776
819.481	19799
819.622	19925
819.762	20107
819.903	20157
820.043	19932
820.184	19967
820.324	19913
820.465	19917
820.605	19860
820.746	19894
820.886	19708
821.026	19772
821.167	19837
821.307	19921
821.447	19750
821.588	19807
821.728	19548
821.868	19422
822.008	19278
822.149	19244
822.289	19171
822.429	18973
822.569	19019
822.709	18890
822.849	18798
822.99	18875
823.13	18730
823.27	18631
823.41	18673
823.55	18563
823.69	18566
823.83	18502
823.97	18433
824.11	18289
824.25	18350
824.389	18296
824.529	18452
824.669	18334
824.809	18475
824.949	18445
825.089	18483
825.228	18414
825.368	18190
825.508	18117
825.648	18232
825.787	18277
825.927	18209
826.067	18133
826.206	18079
826.346	18167
826.485	18015
826.625	18098
826.765	18136
826.904	18133
827.044	17882
827.183	17927
827.323	17821
827.462	17923
827.601	17805
827.741	17882
827.88	17870
828.02	17653
828.159	17790
828.298	17904
828.437	17821
828.577	17805
828.716	17901
828.855	17809
828.994	17589
829.134	17623
829.273	17604
829.412	17577
829.551	17467
829.69	17672
829.829	17634
829.968	17653
830.107	17653
830.246	17539
830.385	17585
830.524	17577
830.663	17444
830.802	17318
830.941	17269
831.08	17269
831.219	17360
831.357	17307
831.496	17337
831.635	17231
831.774	17143
831.913	17132
832.051	17003
832.19	17033
832.329	17060
832.467	16900
832.606	16980
832.744	16873
832.883	16877
833.022	16942
833.16	16854
833.299	16957
833.437	16919
833.576	17022
833.714	16930
833.852	16991
833.991	16980
834.129	17079
834.267	17029
834.406	17048
834.544	17155
834.682	17025
834.821	16991
834.959	17136
835.097	17045
835.235	17132
835.373	16949
835.511	17022
835.65	16843
835.788	16953
835.926	16675
836.064	16683
836.202	16740
836.34	16831
836.478	16987
836.615	16908
836.753	16862
836.891	16976
837.029	16972
837.167	16911
837.305	16824
837.443	16805
837.58	16691
837.718	16866
837.856	16801
837.993	16729
838.131	16748
838.269	16713
838.406	16790
838.544	16660
838.681	16424
838.819	16417
838.956	16287
839.094	16352
839.231	16268
839.369	16367
839.506	16767
839.643	16455
839.781	16329
839.918	16261
840.055	16363
840.193	16344
840.33	16352
840.467	16238
840.604	16329
840.742	16558
840.879	16162
841.016	16135
841.153	16112
841.29	16409
841.427	16295
841.564	16333
841.701	16333
841.838	16291
841.975	16272
842.112	16287
842.249	15994
842.385	16059
842.522	16230
842.659	16131
842.796	16055
842.933	16105
843.069	16010
843.206	15960
843.343	16124
843.479	16078
843.616	16112
843.752	15899
843.889	15903
844.025	16048
844.162	15827
844.298	15979
844.435	15770
844.571	15922
844.708	15842
844.844	15998
844.98	16131
845.117	15956
845.253	15770
845.389	15732
845.525	15937
845.661	15717
845.798	15808
845.934	15838
846.07	15743
846.206	15743
846.342	15873
846.478	15759
846.614	15542
846.75	15454
846.886	15336
847.022	15428
847.158	15397
847.294	15378
847.429	15481
847.565	15443
847.701	15637
847.837	15157
847.972	15180
848.108	15283
848.244	15165
848.379	15062
848.515	14990
848.65	14952
848.786	15043
848.921	15074
849.057	15104
849.192	15195
849.328	15097
849.463	15055
849.598	14823
849.734	14944
849.869	14796
850.004	14826
850.14	14929
850.275	14762
850.41	14754
850.545	14693
850.68	14739
850.815	14731
850.95	14762
851.085	14921
851.22	14906
851.355	14781
851.49	14807
851.625	14815
851.76	14762
851.895	14644
852.03	14606
852.165	14830
852.299	14743
852.434	14815
852.569	14830
852.703	14834
852.838	14754
852.973	14944
853.107	14960
853.242	14796
853.376	14716
853.511	14617
853.645	14617
853.78	14872
853.914	14712
854.048	14610
854.183	14613
854.317	14731
854.451	14861
854.585	14648
854.72	14716
854.854	14632
854.988	14663
855.122	14560
855.256	14549
855.39	14648
855.524	14689
855.658	14754
855.792	14632
855.926	14663
856.06	14765
856.194	14708
856.327	14667
856.461	14552
856.595	14571
856.729	14667
856.862	14762
856.996	14708
857.13	14701
857.263	14731
857.397	14834
857.53	14629
857.664	14670
857.797	14815
857.931	14754
858.064	14659
858.197	14727
858.331	14739
858.464	14640
858.597	14526
858.731	14537
858.864	14686
858.997	14670
859.13	14644
859.263	14777
859.396	14674
859.529	14537
859.662	14560
859.795	14579
859.928	14735
860.061	14834
860.194	14743
860.327	14701
860.46	14689
860.592	14891
860.725	14750
860.858	14754
860.99	14598
861.123	14659
861.256	14564
861.388	14648
861.521	15363
861.653	14473
861.786	14541
861.918	14434
862.05	14545
862.183	14583
862.315	14712
862.447	14781
862.58	14556
862.712	14473
862.844	14332
862.976	14408
863.108	14514
863.24	14921
863.372	14343
863.504	14450
863.636	14438
863.768	14537
863.9	14473
864.032	14389
864.164	14347
864.296	14408
864.428	14484
864.559	14602
864.691	14545
864.823	14450
864.954	14374
865.086	14564
865.217	14381
865.349	14366
865.48	14431
865.612	14343
865.743	14537
865.875	14381
866.006	14450
866.137	14434
866.269	14355
866.4	14461
866.531	14324
866.662	14286
866.793	14358
866.924	14347
867.055	14415
867.186	14423
867.317	14278
867.448	14290
867.579	14343
867.71	14385
867.841	14332
867.972	14446
868.103	14355
868.233	14434
868.364	14385
868.495	14522
868.625	14587
868.756	14792
868.886	14640
869.017	14659
869.147	14697
869.278	14655
869.408	14659
869.539	14686
869.669	14670
869.799	14651
869.929	14811
870.06	14716
870.19	14899
870.32	14910
870.45	14975
870.58	15005
870.71	15169
870.84	15146
870.97	15108
871.1	15135
871.23	15245
871.36	15100
871.489	15100
871.619	15237
871.749	15321
871.879	15287
872.008	15348
872.138	15176
872.267	15203
872.397	15081
872.526	15089
872.656	15074
872.785	15104
872.915	15321
873.044	15310
873.173	15207
873.303	15355
873.432	15332
873.561	15279
873.69	15287
873.819	15241
873.948	15389
874.077	15241
874.206	15226
874.335	15329
874.464	15496
874.593	15652
874.722	15648
874.851	15599
874.979	15682
875.108	15698
875.237	15568
875.365	15473
875.494	15622
875.623	15682
875.751	15591
875.88	15622
876.008	15770
876.136	15804
876.265	16090
876.393	16112
876.521	16090
876.65	16021
876.778	16101
876.906	16006
877.034	15880
877.162	16013
877.29	16010
877.418	16055
877.546	16059
877.674	16051
877.802	16013
877.93	16059
878.058	16128
878.185	15937
878.313	15983
878.441	15956
878.568	15937
878.696	15915
878.824	16131
878.951	16055
879.079	16299
879.206	16318
879.333	16375
879.461	16101
879.588	16261
879.715	16261
879.842	16402
879.97	16223
880.097	15937
880.224	15930
880.351	15991
880.478	15968
880.605	15926
880.732	15915
880.859	16105
880.986	15934
881.112	15934
881.239	15827
881.366	15656
881.493	15660
881.619	15431
881.746	15545
881.872	15675
881.999	15515
882.125	15523
882.252	15633
882.378	15648
882.505	15698
882.631	15591
882.757	15431
882.883	15420
883.01	15473
883.136	15431
883.262	15252
883.388	15298
883.514	15485
883.64	15534
883.766	15321
883.892	15195
884.018	15249
884.143	15355
884.269	15454
884.395	15154
884.52	15131
884.646	15146
884.772	15024
884.897	14990
885.023	15108
885.148	15211
885.274	15237
885.399	15108
885.524	15089
885.65	15142
885.775	15192
885.9	15036
886.025	15199
886.15	15230
886.275	15009
886.4	14899
886.525	15028
886.65	14994
886.775	15047
886.9	15218
887.025	15408
887.149	15047
887.274	14887
887.399	14937
887.523	14887
887.648	14834
887.773	14758
887.897	15005
888.021	15097
888.146	14857
888.27	14937
888.395	14986
888.519	14952
888.643	15051
888.767	14952
888.891	14891
889.015	14712
889.139	14655
889.263	14727
889.387	14929
889.511	14990
889.635	14857
889.759	14800
889.883	14750
890.006	14735
890.13	14861
890.254	14705
890.377	14785
890.501	14552
890.624	14461
890.748	14636
890.871	14590
890.995	14343
891.118	14286
891.241	14461
891.364	14423
891.488	14541
891.611	14465
891.734	14412
891.857	14492
891.98	14518
892.103	14549
892.226	14412
892.349	14355
892.471	14252
892.594	14454
892.717	14381
892.839	14336
892.962	14465
893.085	14522
893.207	14511
893.33	14290
893.452	14294
893.575	14473
893.697	14465
893.819	14636
893.941	14621
894.064	14594
894.186	14374
894.308	14305
894.43	14533
894.552	14686
894.674	14533
894.796	14423
894.918	14484
895.04	14358
895.161	14579
895.283	14454
895.405	14389
895.526	14431
895.648	14465
895.769	14587
895.891	14571
896.012	14625
896.134	14606
896.255	14735
896.376	14621
896.498	14518
896.619	14659
896.74	14571
896.861	14663
896.982	14982
897.103	15104
897.224	15001
897.345	14933
897.466	14883
897.587	14834
897.708	14941
897.828	14883
897.949	14838
898.07	14769
898.19	14826
898.311	14876
898.431	14921
898.552	14918
898.672	14948
898.792	15043
898.913	15009
899.033	14906
899.153	14857
899.273	14651
899.393	14678
899.513	14830
899.633	14853
899.753	14777
899.873	14811
899.993	14838
900.113	14777
900.232	14895
900.352	14701
900.472	14644
900.591	14743
900.711	14610
900.83	14575
900.95	14785
901.069	14800
901.189	14526
901.308	14427
901.427	14328
901.546	14290
901.665	14309
901.784	14358
901.904	14161
902.023	14058
902.141	13959
902.26	13841
902.379	13978
902.498	13890
902.617	13818
902.735	13989
902.854	13868
902.973	13769
903.091	13616
903.21	13582
903.328	13620
903.446	13514
903.565	13445
903.683	13457
903.801	13335
903.919	13373
904.038	13438
904.156	13187
904.274	13278
904.392	13274
904.51	13190
904.627	13240
904.745	13202
904.863	13346
904.981	13122
905.098	12977
905.216	12973
905.334	13015
905.451	12958
905.569	12909
905.686	13027
905.803	12947
905.921	12734
906.038	12890
906.155	12840
906.272	12673
906.389	12665
906.506	12642
906.623	12486
906.74	12555
906.857	12445
906.974	12479
907.091	12612
907.208	12779
907.324	12623
907.441	12388
907.557	12254
907.674	12365
907.79	12194
907.907	12247
908.023	12270
908.139	12251
908.256	12342
908.372	12232
908.488	12239
908.604	12091
908.72	11992
908.836	12034
908.952	11973
909.068	12030
909.184	12125
909.3	12030
909.415	12079
909.531	12091
909.647	11805
909.762	11790
909.878	11790
909.993	11821
910.108	11783
910.224	11821
910.339	11813
910.454	11737
910.57	11646
910.685	11585
910.8	11950
910.915	11832
911.03	11745
911.145	11478
911.259	11638
911.374	11486
911.489	11448
911.604	11425
911.718	11235
911.833	11239
911.947	11090
912.062	11109
912.176	11239
912.291	11269
912.405	11166
912.519	11433
912.633	11414
912.748	11326
912.862	11258
912.976	11124
913.09	11006
913.204	11037
913.318	11109
913.431	11227
913.545	11292
913.659	11326
913.772	11124
913.886	11048
914	11067
914.113	11079
914.226	11185
914.34	11136
914.453	10953
914.566	11109
914.68	11041
914.793	10938
914.906	10801
915.019	10687
915.132	10660
915.245	10679
915.358	10729
915.47	10793
915.583	10809
915.696	10801
915.809	10896
915.921	10858
916.034	10691
916.146	10668
916.259	10675
916.371	10820
916.483	10816
916.595	10706
916.708	10664
916.82	10694
916.932	10721
917.044	10546
917.156	10656
917.268	10561
917.38	10607
917.491	10538
917.603	10558
917.715	10645
917.826	10592
917.938	10588
918.049	10500
918.161	10500
918.272	10717
918.384	10611
918.495	10561
918.606	10436
918.717	10417
918.828	10485
918.939	10443
919.05	10424
919.161	10402
919.272	10280
919.383	10333
919.494	10478
919.604	10637
919.715	10466
919.826	10417
919.936	10474
920.047	10493
920.157	10508
920.267	10656
920.378	10519
920.488	10455
920.598	10592
920.708	10793
920.818	10603
920.928	10607
921.038	10843
921.148	10812
921.258	10554
921.368	10371
921.477	10265
921.587	10253
921.697	10162
921.806	10363
921.916	10158
922.025	10036
922.134	9987
922.244	9968
922.353	10010
922.462	9838
922.571	9812
922.68	9679
922.789	9701
922.898	9724
923.007	9633
923.116	9740
923.224	9660
923.333	9671
923.442	9576
923.55	9568
923.659	9606
923.767	9633
923.876	9500
923.984	9625
924.092	9530
924.201	9568
924.309	9553
924.417	9561
924.525	9454
924.633	9511
924.741	10211
924.849	9294
924.956	9454
925.064	9279
925.172	9237
925.279	9359
925.387	9389
925.494	9382
925.602	9420
925.709	9469
925.816	9291
925.924	9287
926.031	9393
926.138	9382
926.245	9466
926.352	9211
926.459	9389
926.566	9439
926.673	9283
926.779	9237
926.886	9146
926.993	9039
927.099	9039
927.206	8979
927.312	8918
927.419	9176
927.525	9070
927.631	9074
927.737	9036
927.843	8929
927.95	8834
928.056	8960
928.162	9001
928.267	8994
928.373	9690
928.479	9017
928.585	8857
928.69	8944
928.796	8979
928.901	8861
929.007	8674
929.112	8838
929.218	8796
929.323	8697
929.428	8807
929.533	8861
929.638	8686
929.743	8746
929.848	8785
929.953	8693
930.058	8617
930.163	8473
930.267	8522
930.372	8712
930.477	8431
930.581	8739
930.685	8625
930.79	8492
930.894	8431
930.998	8442
931.103	8579
931.207	8244
931.311	8221
931.415	8126
931.519	7944
931.623	7913
