Data from test_V78500241_1892.txt Node
Date: Fri Mar 25 14:46:53 CST 2022
User: usil
Spectrometer: V785-0024
Trigger mode: 0
Integration Time (sec): 4.000000E-1
Scans to average: 1
Nonlinearity correction enabled: false
Boxcar width: 0
Storing dark spectrum: false
XAxis mode: Wavelengths
Number of Pixels in Spectrum: 1024
>>>>>Begin Spectral Data<<<<<
801.071	22078
801.214	21899
801.356	21713
801.499	21682
801.641	21355
801.783	21355
801.926	21397
802.068	21431
802.211	21340
802.353	21252
802.496	21051
802.638	20982
802.78	21009
802.923	20861
803.065	20743
803.208	20746
803.35	20853
803.492	20929
803.635	20944
803.777	20785
803.919	20819
804.061	21112
804.204	20895
804.346	20807
804.488	20568
804.63	20834
804.773	20708
804.915	20781
805.057	20807
805.199	20792
805.341	20739
805.483	20895
805.626	20838
805.768	20670
805.91	20796
806.052	20750
806.194	20724
806.336	20804
806.478	20720
806.62	20667
806.762	20731
806.904	20872
807.046	21066
807.188	20982
807.33	21028
807.472	21039
807.614	20982
807.756	20910
807.898	20925
808.04	20781
808.182	20689
808.324	20750
808.465	20815
808.607	20967
808.749	21020
808.891	21287
809.033	21230
809.174	21085
809.316	21058
809.458	21135
809.6	21047
809.741	21188
809.883	21279
810.025	21268
810.166	21237
810.308	21268
810.45	21226
810.591	21047
810.733	21020
810.875	20834
811.016	20792
811.158	20807
811.299	20762
811.441	20952
811.582	21005
811.724	20720
811.865	20864
812.007	20864
812.148	20769
812.29	20891
812.431	21055
812.573	21058
812.714	21157
812.855	21389
812.997	21405
813.138	21599
813.279	21485
813.421	21389
813.562	21237
813.703	21142
813.845	20986
813.986	20758
814.127	20465
814.268	20431
814.41	20400
814.551	20454
814.692	20438
814.833	20351
814.974	20393
815.115	20423
815.256	20256
815.397	20271
815.539	20240
815.68	20126
815.821	20145
815.962	20122
816.103	20191
816.244	19989
816.385	19879
816.526	19906
816.666	19822
816.807	19635
816.948	19670
817.089	19704
817.23	19533
817.371	19495
817.512	19548
817.653	19613
817.793	19483
817.934	19533
818.075	19609
818.216	19578
818.356	19483
818.497	19301
818.638	19247
818.778	19183
818.919	19217
819.06	19274
819.2	19327
819.341	19369
819.481	19346
819.622	19628
819.762	19689
819.903	19651
820.043	19567
820.184	19658
820.324	19468
820.465	19578
820.605	19620
820.746	19464
820.886	19362
821.026	19483
821.167	19441
821.307	19525
821.447	19358
821.588	19358
821.728	19240
821.868	19088
822.008	18856
822.149	18863
822.289	18916
822.429	18787
822.569	18578
822.709	18612
822.849	18483
822.99	18471
823.13	18490
823.27	18422
823.41	18281
823.55	18095
823.69	18296
823.83	18254
823.97	18155
824.11	17939
824.25	18034
824.389	18087
824.529	18125
824.669	17969
824.809	18079
824.949	18034
825.089	18026
825.228	17980
825.368	17832
825.508	17863
825.648	17855
825.787	17748
825.927	17870
826.067	17779
826.206	17649
826.346	17722
826.485	17779
826.625	17802
826.765	17843
826.904	17764
827.044	17570
827.183	17509
827.323	17455
827.462	17478
827.601	17474
827.741	17467
827.88	17543
828.02	17429
828.159	17497
828.298	17463
828.437	17497
828.577	17524
828.716	17592
828.855	17497
828.994	17197
829.134	17162
829.273	17273
829.412	17223
829.551	17193
829.69	17132
829.829	17337
829.968	17231
830.107	17303
830.246	17280
830.385	17185
830.524	17155
830.663	17102
830.802	16949
830.941	16896
831.08	16843
831.219	16961
831.357	16911
831.496	16995
831.635	16835
831.774	16801
831.913	16717
832.051	16706
832.19	16717
832.329	16706
832.467	16626
832.606	16542
832.744	16611
832.883	16565
833.022	16535
833.16	16535
833.299	16577
833.437	16656
833.576	16649
833.714	16649
833.852	16637
833.991	16611
834.129	16698
834.267	16588
834.406	16558
834.544	16710
834.682	16599
834.821	16668
834.959	16881
835.097	16546
835.235	16656
835.373	16679
835.511	16660
835.65	16474
835.788	16565
835.926	16295
836.064	16451
836.202	16371
836.34	16603
836.478	16626
836.615	16535
836.753	16592
836.891	16641
837.029	16561
837.167	16569
837.305	16428
837.443	16523
837.58	16310
837.718	16382
837.856	16489
837.993	16398
838.131	16394
838.269	16375
838.406	16379
838.544	16424
838.681	16185
838.819	16116
838.956	15926
839.094	15911
839.231	16112
839.369	16150
839.506	16325
839.643	16116
839.781	16021
839.918	15888
840.055	15964
840.193	16017
840.33	15899
840.467	15915
840.604	15937
840.742	16177
840.879	15797
841.016	15937
841.153	15873
841.29	16059
841.427	16029
841.564	16036
841.701	16002
841.838	15899
841.975	15850
842.112	15865
842.249	15781
842.385	15774
842.522	15838
842.659	15789
842.796	15755
842.933	15682
843.069	15705
843.206	15660
843.343	15831
843.479	15701
843.616	15797
843.752	15580
843.889	15610
844.025	15732
844.162	15504
844.298	15557
844.435	15549
844.571	15492
844.708	15561
844.844	15568
844.98	15739
845.117	15618
845.253	15367
845.389	15458
845.525	15435
845.661	15428
845.798	15252
845.934	15351
846.07	15264
846.206	15466
846.342	15500
846.478	15340
846.614	15203
846.75	15085
846.886	15097
847.022	15112
847.158	15108
847.294	15119
847.429	15074
847.565	15123
847.701	15382
847.837	14842
847.972	14807
848.108	14826
848.244	14948
848.379	14815
848.515	14720
848.65	14636
848.786	14686
848.921	14705
849.057	14842
849.192	14792
849.328	14792
849.463	14693
849.598	14689
849.734	14682
849.869	14583
850.004	14495
850.14	14499
850.275	14404
850.41	14446
850.545	14423
850.68	14457
850.815	14427
850.95	14568
851.085	14724
851.22	14537
851.355	14503
851.49	14434
851.625	14518
851.76	14450
851.895	14499
852.03	14355
852.165	14461
852.299	14522
852.434	14507
852.569	14568
852.703	14381
852.838	14492
852.973	14556
853.107	14587
853.242	14396
853.376	14366
853.511	14229
853.645	14301
853.78	14503
853.914	14396
854.048	14199
854.183	14377
854.317	14324
854.451	14442
854.585	14320
854.72	14267
854.854	14301
854.988	14161
855.122	14339
855.256	14084
855.39	14389
855.524	14393
855.658	14381
855.792	14385
855.926	14347
856.06	14461
856.194	14412
856.327	14259
856.461	14313
856.595	14259
856.729	14278
856.862	14450
856.996	14457
857.13	14484
857.263	14530
857.397	14457
857.53	14366
857.664	14438
857.797	14492
857.931	14446
858.064	14454
858.197	14465
858.331	14374
858.464	14309
858.597	14183
858.731	14301
858.864	14389
858.997	14301
859.13	14393
859.263	14404
859.396	14450
859.529	14332
859.662	14248
859.795	14286
859.928	14404
860.061	14503
860.194	14499
860.327	14347
860.46	14347
860.592	14507
860.725	14488
860.858	14549
860.99	14328
861.123	14309
861.256	14275
861.388	14240
861.521	14899
861.653	14161
861.786	14176
861.918	14153
862.05	14286
862.183	14317
862.315	14263
862.447	14377
862.58	14240
862.712	14187
862.844	14172
862.976	14164
863.108	14096
863.24	14461
863.372	14084
863.504	14092
863.636	14111
863.768	14138
863.9	14123
864.032	14077
864.164	14077
864.296	14092
864.428	14240
864.559	14271
864.691	14214
864.823	14210
864.954	14100
865.086	14244
865.217	14164
865.349	14138
865.48	14107
865.612	14191
865.743	14229
865.875	14168
866.006	13982
866.137	14077
866.269	14142
866.4	14058
866.531	14001
866.662	13955
866.793	14062
866.924	14016
867.055	14103
867.186	14058
867.317	13974
867.448	14008
867.579	14088
867.71	14031
867.841	14054
867.972	14054
868.103	14088
868.233	14153
868.364	14145
868.495	14180
868.625	14450
868.756	14465
868.886	14149
869.017	14317
869.147	14503
869.278	14454
869.408	14339
869.539	14396
869.669	14454
869.799	14377
869.929	14499
870.06	14518
870.19	14632
870.32	14514
870.45	14716
870.58	14727
870.71	14826
870.84	14800
870.97	14720
871.1	14754
871.23	14929
871.36	14883
871.489	14948
871.619	14895
871.749	14899
871.879	14998
872.008	15093
872.138	14975
872.267	15013
872.397	14804
872.526	14655
872.656	14815
872.785	14716
872.915	15009
873.044	15066
873.173	15028
873.303	14986
873.432	14952
873.561	15150
873.69	15047
873.819	15066
873.948	14990
874.077	15047
874.206	14956
874.335	15032
874.464	15211
874.593	15363
874.722	15226
874.851	15256
874.979	15310
875.108	15359
875.237	15283
875.365	15332
875.494	15302
875.623	15397
875.751	15378
875.88	15363
876.008	15515
876.136	15469
876.265	15739
876.393	15842
876.521	15808
876.65	15785
876.778	15812
876.906	15755
877.034	15766
877.162	15800
877.29	15580
877.418	15644
877.546	15686
877.674	15625
877.802	15743
877.93	15648
878.058	15720
878.185	15656
878.313	15618
878.441	15686
878.568	15500
878.696	15660
878.824	15869
878.951	15819
879.079	15953
879.206	16105
879.333	15899
879.461	15770
879.588	15861
879.715	15903
879.842	16021
879.97	15816
880.097	15629
880.224	15584
880.351	15739
880.478	15584
880.605	15564
880.732	15584
880.859	15747
880.986	15580
881.112	15656
881.239	15458
881.366	15283
881.493	15226
881.619	15207
881.746	15218
881.872	15222
881.999	15161
882.125	15142
882.252	15230
882.378	15249
882.505	15310
882.631	15245
882.757	15089
882.883	15081
883.01	15013
883.136	14998
883.262	14895
883.388	14876
883.514	15138
883.64	15135
883.766	14956
883.892	14899
884.018	14895
884.143	15043
884.269	15013
884.395	14861
884.52	14670
884.646	14720
884.772	14640
884.897	14571
885.023	14777
885.148	14811
885.274	14902
885.399	14872
885.524	14708
885.65	14804
885.775	14853
885.9	14682
886.025	14849
886.15	14781
886.275	14720
886.4	14629
886.525	14773
886.65	14720
886.775	14689
886.9	14758
887.025	15070
887.149	14720
887.274	14602
887.399	14579
887.523	14640
887.648	14530
887.773	14560
887.897	14613
888.021	14583
888.146	14537
888.27	14697
888.395	14811
888.519	14644
888.643	14583
888.767	14739
888.891	14473
889.015	14408
889.139	14488
889.263	14412
889.387	14537
889.511	14697
889.635	14564
889.759	14454
889.883	14427
890.006	14587
890.13	14522
890.254	14438
890.377	14469
890.501	14210
890.624	14229
890.748	14370
890.871	14183
890.995	14214
891.118	14138
891.241	14100
891.364	14126
891.488	14176
891.611	14069
891.734	14100
891.857	14191
891.98	14138
892.103	14294
892.226	14195
892.349	14183
892.471	13974
892.594	14164
892.717	14123
892.839	14092
892.962	14096
893.085	14233
893.207	14115
893.33	14092
893.452	14043
893.575	14237
893.697	14161
893.819	14317
893.941	14389
894.064	14282
894.186	14084
894.308	14084
894.43	14278
894.552	14313
894.674	14240
894.796	14100
894.918	14233
895.04	14183
895.161	14309
895.283	14347
895.405	14206
895.526	14256
895.648	14252
895.769	14278
895.891	14275
896.012	14256
896.134	14355
896.255	14290
896.376	14309
896.498	14313
896.619	14313
896.74	14320
896.861	14374
896.982	14674
897.103	14739
897.224	14663
897.345	14492
897.466	14469
897.587	14587
897.708	14819
897.828	14606
897.949	14514
898.07	14526
898.19	14549
898.311	14758
898.431	14602
898.552	14625
898.672	14762
898.792	14918
898.913	14602
899.033	14598
899.153	14526
899.273	14389
899.393	14560
899.513	14495
899.633	14552
899.753	14457
899.873	14552
899.993	14564
900.113	14499
900.232	14621
900.352	14457
900.472	14499
900.591	14400
900.711	14370
900.83	14358
900.95	14495
901.069	14476
901.189	14305
901.308	14157
901.427	14027
901.546	14119
901.665	14145
901.784	14077
901.904	13890
902.023	13902
902.141	13715
902.26	13636
902.379	13670
902.498	13582
902.617	13548
902.735	13696
902.854	13605
902.973	13594
903.091	13362
903.21	13324
903.328	13362
903.446	13221
903.565	13247
903.683	13266
903.801	13133
903.919	13164
904.038	13209
904.156	12996
904.274	13088
904.392	12935
904.51	12924
904.627	12932
904.745	13118
904.863	13091
904.981	12814
905.098	12620
905.216	12821
905.334	12665
905.451	12757
905.569	12654
905.686	12669
905.803	12681
905.921	12547
906.038	12612
906.155	12517
906.272	12456
906.389	12494
906.506	12258
906.623	12357
906.74	12300
906.857	12201
906.974	12258
907.091	12369
907.208	12399
907.324	12334
907.441	12323
907.557	12015
907.674	12114
907.79	12007
907.907	11973
908.023	12079
908.139	12064
908.256	12019
908.372	11969
908.488	11927
908.604	11813
908.72	11748
908.836	11764
908.952	11802
909.068	11790
909.184	11897
909.3	11760
909.415	11824
909.531	11855
909.647	11611
909.762	11551
909.878	11532
909.993	11615
910.108	11505
910.224	11509
910.339	11604
910.454	11516
910.57	11402
910.685	11444
910.8	11680
910.915	11577
911.03	11383
911.145	11254
911.259	11239
911.374	11212
911.489	11261
911.604	11242
911.718	11033
911.833	11098
911.947	10987
912.062	10805
912.176	10873
912.291	10972
912.405	11079
912.519	11155
912.633	11178
912.748	11143
912.862	10976
912.976	10942
913.09	10812
913.204	10892
913.318	10980
913.431	10976
913.545	10976
913.659	11018
913.772	10896
913.886	10748
914	10759
914.113	10793
914.226	10938
914.34	10911
914.453	10721
914.566	10889
914.68	10683
914.793	10786
914.906	10550
915.019	10523
915.132	10500
915.245	10531
915.358	10542
915.47	10527
915.583	10554
915.696	10489
915.809	10698
915.921	10622
916.034	10561
916.146	10451
916.259	10489
916.371	10508
916.483	10516
916.595	10466
916.708	10455
916.82	10440
916.932	10481
917.044	10474
917.156	10417
917.268	10306
917.38	10295
917.491	10352
917.603	10363
917.715	10485
917.826	10466
917.938	10284
918.049	10257
918.161	10455
918.272	10531
918.384	10519
918.495	10409
918.606	10249
918.717	10154
918.828	10223
918.939	10207
919.05	10185
919.161	10234
919.272	10017
919.383	10082
919.494	10272
919.604	10485
919.715	10272
919.826	10188
919.936	10284
920.047	10310
920.157	10318
920.267	10451
920.378	10230
920.488	10238
920.598	10382
920.708	10637
920.818	10451
920.928	10421
921.038	10615
921.148	10531
921.258	10284
921.368	10109
921.477	10204
921.587	10059
921.697	9975
921.806	10105
921.916	10013
922.025	9842
922.134	9850
922.244	9838
922.353	9903
922.462	9770
922.571	9633
922.68	9469
922.789	9462
922.898	9545
923.007	9473
923.116	9454
923.224	9542
923.333	9507
923.442	9340
923.55	9416
923.659	9450
923.767	9420
923.876	9386
923.984	9382
924.092	9249
924.201	9355
924.309	9401
924.417	9329
924.525	9367
924.633	9321
924.741	10287
924.849	9161
924.956	9340
925.064	9138
925.172	9055
925.279	9097
925.387	9112
925.494	9138
925.602	9268
925.709	9211
925.816	9085
925.924	9150
926.031	9253
926.138	9123
926.245	9146
926.352	9024
926.459	9214
926.566	9287
926.673	9081
926.779	8982
926.886	8982
926.993	8880
927.099	8857
927.206	8800
927.312	8788
927.419	8902
927.525	8872
927.631	8948
927.737	8773
927.843	8781
927.95	8686
928.056	8716
928.162	8804
928.267	8819
928.373	9329
928.479	8845
928.585	8613
928.69	8750
928.796	8773
928.901	8640
929.007	8495
929.112	8674
929.218	8640
929.323	8571
929.428	8560
929.533	8670
929.638	8499
929.743	8564
929.848	8587
929.953	8499
930.058	8507
930.163	8298
930.267	8377
930.372	8450
930.477	8313
930.581	8568
930.685	8454
930.79	8298
930.894	8298
930.998	8317
931.103	8393
931.207	8111
931.311	8046
931.415	7967
931.519	7780
931.623	7807
