Data from test_V78500241_3477.txt Node
Date: Fri Mar 25 14:57:55 CST 2022
User: usil
Spectrometer: V785-0024
Trigger mode: 0
Integration Time (sec): 4.000000E-1
Scans to average: 1
Nonlinearity correction enabled: false
Boxcar width: 0
Storing dark spectrum: false
XAxis mode: Wavelengths
Number of Pixels in Spectrum: 1024
>>>>>Begin Spectral Data<<<<<
801.071	21975
801.214	21759
801.356	21587
801.499	21367
801.641	21393
801.783	21367
801.926	21275
802.068	21294
802.211	21104
802.353	20979
802.496	20895
802.638	20823
802.78	20735
802.923	20648
803.065	20533
803.208	20503
803.35	20667
803.492	20796
803.635	20743
803.777	20644
803.919	20609
804.061	20861
804.204	20697
804.346	20522
804.488	20450
804.63	20632
804.773	20454
804.915	20583
805.057	20625
805.199	20408
805.341	20480
805.483	20587
805.626	20590
805.768	20571
805.91	20541
806.052	20590
806.194	20514
806.336	20644
806.478	20461
806.62	20549
806.762	20594
806.904	20769
807.046	20944
807.188	20845
807.33	20773
807.472	20781
807.614	20804
807.756	20769
807.898	20621
808.04	20457
808.182	20552
808.324	20701
808.465	20514
808.607	20792
808.749	20842
808.891	20891
809.033	21032
809.174	21024
809.316	20811
809.458	20918
809.6	20724
809.741	20944
809.883	20971
810.025	21131
810.166	21005
810.308	20918
810.45	20979
810.591	20880
810.733	20773
810.875	20564
811.016	20640
811.158	20507
811.299	20663
811.441	20769
811.582	20792
811.724	20651
811.865	20648
812.007	20564
812.148	20648
812.29	20602
812.431	20868
812.573	20925
812.714	20998
812.855	21032
812.997	21249
813.138	21382
813.279	21192
813.421	21161
813.562	20986
813.703	20990
813.845	20743
813.986	20438
814.127	20290
814.268	20195
814.41	20122
814.551	20176
814.692	20164
814.833	20153
814.974	20077
815.115	20077
815.256	19959
815.397	20050
815.539	20035
815.68	19898
815.821	19746
815.962	19955
816.103	19830
816.244	19757
816.385	19533
816.526	19601
816.666	19529
816.807	19422
816.948	19407
817.089	19460
817.23	19373
817.371	19335
817.512	19354
817.653	19339
817.793	19202
817.934	19377
818.075	19460
818.216	19316
818.356	19187
818.497	19145
818.638	19088
818.778	18985
818.919	18958
819.06	18943
819.2	19179
819.341	19198
819.481	19190
819.622	19320
819.762	19499
819.903	19362
820.043	19354
820.184	19335
820.324	19285
820.465	19312
820.605	19285
820.746	19114
820.886	19084
821.026	19259
821.167	19228
821.307	19282
821.447	19206
821.588	19145
821.728	18867
821.868	18806
822.008	18738
822.149	18654
822.289	18631
822.429	18551
822.569	18308
822.709	18403
822.849	18213
822.99	18205
823.13	18136
823.27	18057
823.41	17969
823.55	18019
823.69	18121
823.83	18057
823.97	17939
824.11	17779
824.25	17714
824.389	17821
824.529	17980
824.669	17710
824.809	17984
824.949	17733
825.089	17817
825.228	17672
825.368	17543
825.508	17668
825.648	17528
825.787	17493
825.927	17524
826.067	17505
826.206	17535
826.346	17592
826.485	17528
826.625	17615
826.765	17600
826.904	17532
827.044	17181
827.183	17258
827.323	17258
827.462	17334
827.601	17273
827.741	17136
827.88	17220
828.02	17147
828.159	17193
828.298	17208
828.437	17265
828.577	17159
828.716	17368
828.855	17231
828.994	17075
829.134	17014
829.273	17048
829.412	17075
829.551	16812
829.69	16995
829.829	16915
829.968	17083
830.107	17090
830.246	16957
830.385	16976
830.524	16847
830.663	16858
830.802	16744
830.941	16637
831.08	16687
831.219	16790
831.357	16710
831.496	16869
831.635	16599
831.774	16459
831.913	16516
832.051	16466
832.19	16413
832.329	16519
832.467	16291
832.606	16181
832.744	16341
832.883	16409
833.022	16314
833.16	16287
833.299	16379
833.437	16280
833.576	16371
833.714	16363
833.852	16409
833.991	16375
834.129	16386
834.267	16382
834.406	16382
834.544	16417
834.682	16303
834.821	16535
834.959	16519
835.097	16341
835.235	16409
835.373	16405
835.511	16417
835.65	16306
835.788	16185
835.926	16181
836.064	16150
836.202	16097
836.34	16299
836.478	16352
836.615	16211
836.753	16261
836.891	16344
837.029	16394
837.167	16303
837.305	16223
837.443	16246
837.58	16215
837.718	16200
837.856	16139
837.993	16238
838.131	16211
838.269	16032
838.406	16226
838.544	16097
838.681	15994
838.819	15930
838.956	15682
839.094	15732
839.231	15838
839.369	15854
839.506	16177
839.643	15907
839.781	15778
839.918	15690
840.055	15876
840.193	15739
840.33	15736
840.467	15629
840.604	15682
840.742	16048
840.879	15625
841.016	15587
841.153	15557
841.29	15759
841.427	15717
841.564	15679
841.701	15732
841.838	15770
841.975	15720
842.112	15724
842.249	15515
842.385	15507
842.522	15713
842.659	15473
842.796	15405
842.933	15576
843.069	15542
843.206	15473
843.343	15595
843.479	15572
843.616	15504
843.752	15306
843.889	15233
844.025	15363
844.162	15176
844.298	15435
844.435	15298
844.571	15329
844.708	15374
844.844	15492
844.98	15466
845.117	15382
845.253	15306
845.389	15180
845.525	15195
845.661	15157
845.798	15039
845.934	15142
846.07	15135
846.206	15142
846.342	15291
846.478	15039
846.614	14899
846.75	14811
846.886	14792
847.022	14990
847.158	14891
847.294	14876
847.429	14944
847.565	14845
847.701	15176
847.837	14712
847.972	14598
848.108	14724
848.244	14682
848.379	14518
848.515	14461
848.65	14469
848.786	14450
848.921	14484
849.057	14670
849.192	14583
849.328	14560
849.463	14454
849.598	14568
849.734	14351
849.869	14358
850.004	14199
850.14	14347
850.275	14290
850.41	14180
850.545	14202
850.68	14275
850.815	14313
850.95	14225
851.085	14396
851.22	14317
851.355	14248
851.49	14202
851.625	14259
851.76	14187
851.895	14115
852.03	14096
852.165	14176
852.299	14256
852.434	14339
852.569	14298
852.703	14301
852.838	14214
852.973	14446
853.107	14457
853.242	14191
853.376	14153
853.511	14054
853.645	14058
853.78	14176
853.914	14199
854.048	14107
854.183	14100
854.317	14191
854.451	14294
854.585	14134
854.72	14062
854.854	14183
854.988	14103
855.122	14153
855.256	14043
855.39	14130
855.524	14191
855.658	14233
855.792	14176
855.926	14187
856.06	14153
856.194	14233
856.327	14183
856.461	14077
856.595	14027
856.729	14088
856.862	14138
856.996	14180
857.13	14180
857.263	14183
857.397	14195
857.53	14168
857.664	14119
857.797	14202
857.931	14221
858.064	14115
858.197	14183
858.331	14058
858.464	14058
858.597	13970
858.731	14062
858.864	14058
858.997	14092
859.13	14157
859.263	14214
859.396	14275
859.529	14138
859.662	13989
859.795	14031
859.928	14077
860.061	14336
860.194	14259
860.327	14225
860.46	14123
860.592	14229
860.725	14237
860.858	14202
860.99	14138
861.123	14134
861.256	14058
861.388	14123
861.521	14834
861.653	13989
861.786	14008
861.918	14050
862.05	14103
862.183	14107
862.315	14123
862.447	14119
862.58	14046
862.712	13871
862.844	13822
862.976	14005
863.108	14020
863.24	14317
863.372	13841
863.504	13883
863.636	13936
863.768	13906
863.9	13978
864.032	13860
864.164	13879
864.296	13898
864.428	13974
864.559	13978
864.691	13959
864.823	13986
864.954	13947
865.086	13944
865.217	13902
865.349	13780
865.48	13913
865.612	13913
865.743	14058
865.875	13811
866.006	13822
866.137	13917
866.269	13951
866.4	13875
866.531	13791
866.662	13769
866.793	13776
866.924	13879
867.055	13860
867.186	13917
867.317	13799
867.448	13807
867.579	13852
867.71	13780
867.841	13830
867.972	13936
868.103	13837
868.233	13868
868.364	13883
868.495	13978
868.625	14084
868.756	14187
868.886	14073
869.017	14111
869.147	14286
869.278	14317
869.408	14252
869.539	14058
869.669	14221
869.799	14267
869.929	14256
870.06	14313
870.19	14488
870.32	14484
870.45	14442
870.58	14629
870.71	14655
870.84	14598
870.97	14545
871.1	14507
871.23	14769
871.36	14739
871.489	14716
871.619	14686
871.749	14667
871.879	14785
872.008	14849
872.138	14758
872.267	14716
872.397	14568
872.526	14659
872.656	14552
872.785	14518
872.915	14712
873.044	14785
873.173	14762
873.303	14842
873.432	14785
873.561	14773
873.69	14792
873.819	14842
873.948	14830
874.077	14815
874.206	14765
874.335	14861
874.464	15036
874.593	15001
874.722	15036
874.851	15203
874.979	15157
875.108	15154
875.237	15119
875.365	15081
875.494	15104
875.623	15184
875.751	15020
875.88	15131
876.008	15275
876.136	15302
876.265	15625
876.393	15686
876.521	15663
876.65	15561
876.778	15675
876.906	15591
877.034	15469
877.162	15572
877.29	15416
877.418	15557
877.546	15530
877.674	15564
877.802	15462
877.93	15473
878.058	15401
878.185	15485
878.313	15557
878.441	15534
878.568	15382
878.696	15454
878.824	15561
878.951	15705
879.079	15622
879.206	15926
879.333	15564
879.461	15534
879.588	15584
879.715	15705
879.842	15819
879.97	15599
880.097	15439
880.224	15310
880.351	15348
880.478	15321
880.605	15367
880.732	15348
880.859	15576
880.986	15405
881.112	15416
881.239	15249
881.366	15138
881.493	15058
881.619	14971
881.746	15024
881.872	15058
881.999	14952
882.125	15005
882.252	15047
882.378	15097
882.505	15176
882.631	14986
882.757	14857
882.883	14952
883.01	14845
883.136	14849
883.262	14769
883.388	14682
883.514	14998
883.64	14960
883.766	14777
883.892	14648
884.018	14598
884.143	14971
884.269	14887
884.395	14651
884.52	14549
884.646	14587
884.772	14488
884.897	14476
885.023	14492
885.148	14644
885.274	14708
885.399	14655
885.524	14678
885.65	14480
885.775	14632
885.9	14518
886.025	14667
886.15	14598
886.275	14530
886.4	14427
886.525	14355
886.65	14575
886.775	14446
886.9	14632
887.025	14712
887.149	14602
887.274	14427
887.399	14332
887.523	14457
887.648	14347
887.773	14267
887.897	14465
888.021	14514
888.146	14339
888.27	14526
888.395	14514
888.519	14530
888.643	14434
888.767	14488
888.891	14351
889.015	14240
889.139	14275
889.263	14298
889.387	14492
889.511	14431
889.635	14400
889.759	14252
889.883	14309
890.006	14374
890.13	14393
890.254	14210
890.377	14183
890.501	14065
890.624	13967
890.748	14142
890.871	14008
890.995	14027
891.118	13887
891.241	14092
891.364	13887
891.488	14043
891.611	13860
891.734	13917
891.857	14153
891.98	14035
892.103	14096
892.226	13944
892.349	14065
892.471	13818
892.594	13932
892.717	13871
892.839	13993
892.962	14005
893.085	14012
893.207	13944
893.33	13776
893.452	13936
893.575	13993
893.697	13997
893.819	14145
893.941	14191
894.064	14062
894.186	13997
894.308	13925
894.43	14069
894.552	14168
894.674	14161
894.796	14016
894.918	14001
895.04	13955
895.161	14062
895.283	14073
895.405	13947
895.526	13986
895.648	14035
895.769	14081
895.891	14187
896.012	14218
896.134	14191
896.255	14183
896.376	14084
896.498	14134
896.619	14168
896.74	14088
896.861	14301
896.982	14431
897.103	14545
897.224	14484
897.345	14286
897.466	14457
897.587	14412
897.708	14526
897.828	14499
897.949	14408
898.07	14328
898.19	14366
898.311	14545
898.431	14404
898.552	14575
898.672	14533
898.792	14697
898.913	14571
899.033	14385
899.153	14400
899.273	14256
899.393	14275
899.513	14404
899.633	14389
899.753	14434
899.873	14332
899.993	14385
900.113	14286
900.232	14488
900.352	14286
900.472	14271
900.591	14172
900.711	14252
900.83	14176
900.95	14408
901.069	14305
901.189	14202
901.308	14024
901.427	13894
901.546	13955
901.665	13879
901.784	13887
901.904	13818
902.023	13719
902.141	13487
902.26	13449
902.379	13457
902.498	13438
902.617	13464
902.735	13472
902.854	13525
902.973	13419
903.091	13217
903.21	13179
903.328	13187
903.446	13122
903.565	13080
903.683	13129
903.801	13008
903.919	13046
904.038	13038
904.156	12939
904.274	12920
904.392	12810
904.51	12894
904.627	12821
904.745	12973
904.863	12905
904.981	12711
905.098	12623
905.216	12597
905.334	12623
905.451	12631
905.569	12593
905.686	12616
905.803	12532
905.921	12376
906.038	12563
906.155	12429
906.272	12270
906.389	12330
906.506	12144
906.623	12235
906.74	12178
906.857	12079
906.974	12163
907.091	12258
907.208	12270
907.324	12216
907.441	12034
907.557	11882
907.674	11893
907.79	11901
907.907	11999
908.023	11954
908.139	11916
908.256	11897
908.372	11874
908.488	11802
908.604	11771
908.72	11638
908.836	11764
908.952	11665
909.068	11722
909.184	11760
909.3	11710
909.415	11619
909.531	11756
909.647	11478
909.762	11509
909.878	11429
909.993	11425
910.108	11471
910.224	11459
910.339	11486
910.454	11296
910.57	11292
910.685	11197
910.8	11467
910.915	11444
911.03	11280
911.145	11162
911.259	11220
911.374	11166
911.489	11121
911.604	11090
911.718	10820
911.833	10930
911.947	10805
912.062	10767
912.176	10896
912.291	10881
912.405	10980
912.519	11109
912.633	11094
912.748	10984
912.862	10904
912.976	10801
913.09	10691
913.204	10698
913.318	10793
913.431	10904
913.545	10843
913.659	10904
913.772	10858
913.886	10714
914	10573
914.113	10733
914.226	10763
914.34	10748
914.453	10558
914.566	10778
914.68	10618
914.793	10687
914.906	10436
915.019	10352
915.132	10295
915.245	10447
915.358	10466
915.47	10375
915.583	10398
915.696	10493
915.809	10573
915.921	10630
916.034	10459
916.146	10375
916.259	10333
916.371	10428
916.483	10405
916.595	10310
916.708	10344
916.82	10367
916.932	10356
917.044	10348
917.156	10337
917.268	10280
917.38	10299
917.491	10287
917.603	10322
917.715	10344
917.826	10375
917.938	10287
918.049	10150
918.161	10306
918.272	10363
918.384	10428
918.495	10287
918.606	10120
918.717	10040
918.828	10101
918.939	10120
919.05	10074
919.161	10101
919.272	9911
919.383	10048
919.494	10185
919.604	10390
919.715	10192
919.826	10063
919.936	10078
920.047	10261
920.157	10093
920.267	10360
920.378	10211
920.488	10135
920.598	10367
920.708	10550
920.818	10344
920.928	10268
921.038	10630
921.148	10436
921.258	10215
921.368	10128
921.477	10006
921.587	9994
921.697	9842
921.806	10006
921.916	9945
922.025	9698
922.134	9740
922.244	9648
922.353	9747
922.462	9485
922.571	9473
922.68	9431
922.789	9336
922.898	9454
923.007	9382
923.116	9469
923.224	9416
923.333	9405
923.442	9367
923.55	9226
923.659	9310
923.767	9374
923.876	9264
923.984	9374
924.092	9138
924.201	9283
924.309	9363
924.417	9317
924.525	9157
924.633	9287
924.741	10177
924.849	9028
924.956	9241
925.064	9093
925.172	9017
925.279	9017
925.387	9032
925.494	9081
925.602	9157
925.709	9192
925.816	9047
925.924	9093
926.031	9218
926.138	9112
926.245	9127
926.352	8967
926.459	9165
926.566	9108
926.673	9077
926.779	8941
926.886	8861
926.993	8899
927.099	8819
927.206	8731
927.312	8769
927.419	8838
927.525	8823
927.631	8902
927.737	8727
927.843	8731
927.95	8606
928.056	8705
928.162	8720
928.267	8689
928.373	9272
928.479	8769
928.585	8537
928.69	8712
928.796	8724
928.901	8590
929.007	8518
929.112	8579
929.218	8552
929.323	8499
929.428	8530
929.533	8621
929.638	8408
929.743	8423
929.848	8560
929.953	8560
930.058	8419
930.163	8248
930.267	8282
930.372	8427
930.477	8248
930.581	8408
930.685	8362
930.79	8244
930.894	8233
930.998	8237
931.103	8298
931.207	7993
931.311	7921
931.415	7936
931.519	7769
931.623	7746
