Data from test_V78500241_475.txt Node
Date: Fri Mar 25 14:37:01 CST 2022
User: usil
Spectrometer: V785-0024
Trigger mode: 0
Integration Time (sec): 4.000000E-1
Scans to average: 1
Nonlinearity correction enabled: false
Boxcar width: 0
Storing dark spectrum: false
XAxis mode: Wavelengths
Number of Pixels in Spectrum: 1024
>>>>>Begin Spectral Data<<<<<
801.071	26556
801.214	26488
801.356	26168
801.499	26195
801.641	26111
801.783	26016
801.926	26039
802.068	25849
802.211	25917
802.353	25765
802.496	25696
802.638	25590
802.78	25556
802.923	25502
803.065	25362
803.208	25365
803.35	25438
803.492	25582
803.635	25651
803.777	25411
803.919	25647
804.061	25940
804.204	25647
804.346	25400
804.488	25407
804.63	25620
804.773	25297
804.915	25297
805.057	25575
805.199	25476
805.341	25483
805.483	25609
805.626	25407
805.768	25320
805.91	25441
806.052	25499
806.194	25392
806.336	25586
806.478	25559
806.62	25472
806.762	25742
806.904	25696
807.046	25909
807.188	25791
807.33	25833
807.472	25993
807.614	25685
807.756	25894
807.898	25693
808.04	25601
808.182	25628
808.324	25708
808.465	25761
808.607	25913
808.749	25849
808.891	26119
809.033	26199
809.174	26073
809.316	26005
809.458	26100
809.6	26103
809.741	26077
809.883	26062
810.025	26103
810.166	26183
810.308	26187
810.45	26092
810.591	26069
810.733	25970
810.875	25852
811.016	25727
811.158	25613
811.299	25909
811.441	26020
811.582	25860
811.724	25879
811.865	25712
812.007	25788
812.148	25723
812.29	25715
812.431	25830
812.573	26126
812.714	26130
812.855	26183
812.997	26537
813.138	26423
813.279	26362
813.421	26290
813.562	26176
813.703	25940
813.845	25989
813.986	25628
814.127	25632
814.268	25426
814.41	25540
814.551	25251
814.692	25445
814.833	25225
814.974	25282
815.115	25377
815.256	25190
815.397	25103
815.539	25107
815.68	25107
815.821	24985
815.962	25091
816.103	25110
816.244	24924
816.385	24894
816.526	24852
816.666	24563
816.807	24464
816.948	24585
817.089	24612
817.23	24494
817.371	24452
817.512	24422
817.653	24395
817.793	24464
817.934	24437
818.075	24494
818.216	24388
818.356	24414
818.497	24361
818.638	24235
818.778	24144
818.919	24159
819.06	24167
819.2	24239
819.341	24441
819.481	24407
819.622	24566
819.762	24779
819.903	24570
820.043	24536
820.184	24585
820.324	24467
820.465	24551
820.605	24376
820.746	24483
820.886	24483
821.026	24330
821.167	24407
821.307	24490
821.447	24330
821.588	24110
821.728	24106
821.868	23935
822.008	23874
822.149	23786
822.289	23851
822.429	23592
822.569	23493
822.709	23406
822.849	23311
822.99	23242
823.13	23231
823.27	23299
823.41	23075
823.55	23003
823.69	23094
823.83	23075
823.97	23075
824.11	22782
824.25	22809
824.389	22801
824.529	22881
824.669	22892
824.809	22889
824.949	22991
825.089	22881
825.228	22771
825.368	22694
825.508	22497
825.648	22679
825.787	22759
825.927	22588
826.067	22748
826.206	22687
826.346	22580
826.485	22653
826.625	22592
826.765	22599
826.904	22573
827.044	22341
827.183	22360
827.323	22242
827.462	22325
827.601	22295
827.741	22386
827.88	22310
828.02	22169
828.159	22253
828.298	22280
828.437	22310
828.577	22253
828.716	22257
828.855	22158
828.994	22070
829.134	21956
829.273	22051
829.412	21915
829.551	22017
829.69	21968
829.829	21983
829.968	22082
830.107	22036
830.246	21911
830.385	21857
830.524	21895
830.663	21728
830.802	21629
830.941	21549
831.08	21515
831.219	21667
831.357	21686
831.496	21720
831.635	21576
831.774	21500
831.913	21408
832.051	21348
832.19	21344
832.329	21291
832.467	21332
832.606	21249
832.744	21150
832.883	21226
833.022	21214
833.16	21146
833.299	21108
833.437	21321
833.576	21283
833.714	21256
833.852	21329
833.991	21218
834.129	21344
834.267	21298
834.406	21233
834.544	21325
834.682	21272
834.821	21233
834.959	21287
835.097	21104
835.235	21154
835.373	21218
835.511	21173
835.65	20982
835.788	21009
835.926	20967
836.064	20849
836.202	20975
836.34	21085
836.478	21169
836.615	21020
836.753	21055
836.891	21169
837.029	21032
837.167	20929
837.305	20944
837.443	20941
837.58	20929
837.718	20982
837.856	20921
837.993	20902
838.131	20899
838.269	20830
838.406	20864
838.544	20724
838.681	20476
838.819	20575
838.956	20434
839.094	20339
839.231	20385
839.369	20541
839.506	20735
839.643	20579
839.781	20450
839.918	20263
840.055	20320
840.193	20362
840.33	20328
840.467	20408
840.604	20294
840.742	20530
840.879	20164
841.016	20271
841.153	20168
841.29	20442
841.427	20195
841.564	20336
841.701	20225
841.838	20275
841.975	20088
842.112	20134
842.249	20058
842.385	19925
842.522	20157
842.659	20142
842.796	19955
842.933	19944
843.069	19913
843.206	19947
843.343	20088
843.479	20153
843.616	19986
843.752	19807
843.889	19738
844.025	19830
844.162	19715
844.298	19917
844.435	19708
844.571	19742
844.708	19772
844.844	19928
844.98	19902
845.117	19784
845.253	19693
845.389	19700
845.525	19734
845.661	19575
845.798	19651
845.934	19632
846.07	19533
846.206	19666
846.342	19742
846.478	19552
846.614	19339
846.75	19362
846.886	19301
847.022	19350
847.158	19289
847.294	19183
847.429	19304
847.565	19171
847.701	19422
847.837	19095
847.972	18932
848.108	19103
848.244	19046
848.379	18966
848.515	18700
848.65	18749
848.786	18856
848.921	18829
849.057	18825
849.192	18901
849.328	18848
849.463	18844
849.598	18692
849.734	18749
849.869	18604
850.004	18563
850.14	18650
850.275	18566
850.41	18410
850.545	18509
850.68	18502
850.815	18532
850.95	18540
851.085	18734
851.22	18658
851.355	18536
851.49	18536
851.625	18490
851.76	18464
851.895	18490
852.03	18456
852.165	18486
852.299	18654
852.434	18631
852.569	18604
852.703	18585
852.838	18631
852.973	18578
853.107	18601
853.242	18441
853.376	18418
853.511	18224
853.645	18205
853.78	18441
853.914	18506
854.048	18407
854.183	18273
854.317	18308
854.451	18521
854.585	18232
854.72	18296
854.854	18399
854.988	18247
855.122	18327
855.256	18125
855.39	18391
855.524	18327
855.658	18388
855.792	18281
855.926	18361
856.06	18407
856.194	18494
856.327	18357
856.461	18342
856.595	18323
856.729	18277
856.862	18418
856.996	18479
857.13	18323
857.263	18437
857.397	18437
857.53	18270
857.664	18277
857.797	18342
857.931	18521
858.064	18422
858.197	18429
858.331	18243
858.464	18281
858.597	18186
858.731	18300
858.864	18281
858.997	18235
859.13	18186
859.263	18410
859.396	18410
859.529	18296
859.662	18292
859.795	18338
859.928	18315
860.061	18441
860.194	18395
860.327	18403
860.46	18369
860.592	18357
860.725	18399
860.858	18486
860.99	18254
861.123	18125
861.256	18216
861.388	18437
861.521	18928
861.653	18133
861.786	18057
861.918	18292
862.05	18228
862.183	18315
862.315	18410
862.447	18388
862.58	18300
862.712	18224
862.844	18083
862.976	18159
863.108	18076
863.24	18292
863.372	17908
863.504	17931
863.636	17904
863.768	18087
863.9	18007
864.032	17851
864.164	18015
864.296	18079
864.428	18072
864.559	18167
864.691	18087
864.823	18064
864.954	18022
865.086	17942
865.217	17920
865.349	17901
865.48	17901
865.612	17874
865.743	18186
865.875	17927
866.006	17847
866.137	18079
866.269	17939
866.4	17950
866.531	17927
866.662	17775
866.793	17912
866.924	17901
867.055	17973
867.186	17805
867.317	17874
867.448	17771
867.579	17745
867.71	17878
867.841	17832
867.972	17870
868.103	17904
868.233	17908
868.364	17878
868.495	17931
868.625	18030
868.756	18148
868.886	18083
869.017	18098
869.147	18106
869.278	18197
869.408	18125
869.539	18159
869.669	18174
869.799	18110
869.929	18220
870.06	18243
870.19	18399
870.32	18266
870.45	18414
870.58	18441
870.71	18726
870.84	18578
870.97	18475
871.1	18559
871.23	18631
871.36	18764
871.489	18658
871.619	18593
871.749	18703
871.879	18711
872.008	18776
872.138	18639
872.267	18749
872.397	18509
872.526	18521
872.656	18517
872.785	18429
872.915	18726
873.044	18772
873.173	18719
873.303	18867
873.432	18783
873.561	18779
873.69	18787
873.819	18730
873.948	18890
874.077	18783
874.206	18517
874.335	18673
874.464	18863
874.593	18973
874.722	18981
874.851	18935
874.979	19099
875.108	19050
875.237	18943
875.365	18951
875.494	18913
875.623	18966
875.751	19004
875.88	18962
876.008	19179
876.136	19179
876.265	19457
876.393	19537
876.521	19476
876.65	19548
876.778	19445
876.906	19350
877.034	19365
877.162	19358
877.29	19236
877.418	19365
877.546	19472
877.674	19377
877.802	19411
877.93	19381
878.058	19411
878.185	19301
878.313	19445
878.441	19472
878.568	19221
878.696	19331
878.824	19491
878.951	19377
879.079	19578
879.206	19700
879.333	19586
879.461	19491
879.588	19502
879.715	19605
879.842	19799
879.97	19616
880.097	19297
880.224	19183
880.351	19221
880.478	19278
880.605	19225
880.732	19316
880.859	19525
880.986	19247
881.112	19282
881.239	19194
881.366	19133
881.493	19015
881.619	18814
881.746	19015
881.872	18894
881.999	18783
882.125	18852
882.252	18810
882.378	18844
882.505	19034
882.631	18772
882.757	18642
882.883	18757
883.01	18646
883.136	18635
883.262	18536
883.388	18471
883.514	18650
883.64	18730
883.766	18525
883.892	18486
884.018	18479
884.143	18582
884.269	18654
884.395	18369
884.52	18311
884.646	18323
884.772	18266
884.897	18273
885.023	18369
885.148	18388
885.274	18399
885.399	18433
885.524	18270
885.65	18300
885.775	18323
885.9	18308
886.025	18513
886.15	18380
886.275	18209
886.4	18114
886.525	18399
886.65	18148
886.775	18228
886.9	18277
887.025	18574
887.149	18273
887.274	18129
887.399	18026
887.523	18057
887.648	18087
887.773	17969
887.897	18087
888.021	18152
888.146	18095
888.27	18167
888.395	18167
888.519	18053
888.643	18125
888.767	18114
888.891	18015
889.015	17882
889.139	17798
889.263	17920
889.387	18007
889.511	17920
889.635	18068
889.759	17870
889.883	17870
890.006	18038
890.13	17984
890.254	17741
890.377	17836
890.501	17611
890.624	17589
890.748	17783
890.871	17630
890.995	17463
891.118	17391
891.241	17539
891.364	17516
891.488	17608
891.611	17577
891.734	17547
891.857	17581
891.98	17524
892.103	17627
892.226	17406
892.349	17478
892.471	17292
892.594	17505
892.717	17414
892.839	17402
892.962	17372
893.085	17547
893.207	17551
893.33	17296
893.452	17417
893.575	17474
893.697	17459
893.819	17539
893.941	17665
894.064	17509
894.186	17379
894.308	17402
894.43	17474
894.552	17589
894.674	17558
894.796	17341
894.918	17391
895.04	17353
895.161	17425
895.283	17535
895.405	17315
895.526	17455
895.648	17421
895.769	17493
895.891	17623
896.012	17551
896.134	17619
896.255	17566
896.376	17436
896.498	17566
896.619	17501
896.74	17585
896.861	17532
896.982	17889
897.103	18034
897.224	17828
897.345	17802
897.466	17748
897.587	17691
897.708	17923
897.828	17813
897.949	17707
898.07	17646
898.19	17707
898.311	17855
898.431	17836
898.552	17851
898.672	17939
898.792	17786
898.913	17687
899.033	17684
899.153	17551
899.273	17520
899.393	17516
899.513	17672
899.633	17558
899.753	17524
899.873	17543
899.993	17551
900.113	17600
900.232	17630
900.352	17459
900.472	17448
900.591	17364
900.711	17364
900.83	17292
900.95	17455
901.069	17455
901.189	17261
901.308	16991
901.427	17075
901.546	17033
901.665	17003
901.784	17086
901.904	16805
902.023	16763
902.141	16660
902.26	16580
902.379	16645
902.498	16527
902.617	16504
902.735	16535
902.854	16478
902.973	16405
903.091	16215
903.21	16177
903.328	16268
903.446	16196
903.565	16086
903.683	16090
903.801	15907
903.919	16105
904.038	16169
904.156	15934
904.274	15937
904.392	15857
904.51	15835
904.627	15808
904.745	15865
904.863	15819
904.981	15576
905.098	15610
905.216	15576
905.334	15523
905.451	15397
905.569	15572
905.686	15519
905.803	15488
905.921	15363
906.038	15370
906.155	15363
906.272	15169
906.389	15310
906.506	14952
906.623	15074
906.74	15036
906.857	14982
906.974	14842
907.091	15135
907.208	15119
907.324	15108
907.441	14933
907.557	14758
907.674	14735
907.79	14655
907.907	14724
908.023	14777
908.139	14670
908.256	14655
908.372	14686
908.488	14629
908.604	14415
908.72	14454
908.836	14396
908.952	14450
909.068	14495
909.184	14667
909.3	14457
909.415	14564
909.531	14442
909.647	14233
909.762	14145
909.878	14142
909.993	14138
910.108	14130
910.224	14172
910.339	14199
910.454	14077
910.57	13997
910.685	13833
910.8	14195
910.915	14157
911.03	14043
911.145	13883
911.259	13856
911.374	13822
911.489	13677
911.604	13624
911.718	13727
911.833	13510
911.947	13518
912.062	13419
912.176	13594
912.291	13578
912.405	13616
912.519	13704
912.633	13791
912.748	13537
912.862	13590
912.976	13354
913.09	13373
913.204	13422
913.318	13426
913.431	13438
913.545	13476
913.659	13502
913.772	13331
913.886	13358
914	13198
914.113	13316
914.226	13403
914.34	13362
914.453	13152
914.566	13331
914.68	13126
914.793	13194
914.906	13034
915.019	12909
915.132	12916
915.245	12875
915.358	13023
915.47	12905
915.583	12993
915.696	12962
915.809	13072
915.921	13103
916.034	12939
916.146	12814
916.259	12924
916.371	12973
916.483	12947
916.595	12852
916.708	12916
916.82	12814
916.932	12817
917.044	12856
917.156	12707
917.268	12639
917.38	12658
917.491	12593
917.603	12650
917.715	12825
917.826	12806
917.938	12631
918.049	12627
918.161	12776
918.272	12825
918.384	12795
918.495	12608
918.606	12509
918.717	12483
918.828	12494
918.939	12445
919.05	12391
919.161	12502
919.272	12327
919.383	12258
919.494	12540
919.604	12662
919.715	12479
919.826	12422
919.936	12388
920.047	12464
920.157	12486
920.267	12707
920.378	12509
920.488	12422
920.598	12658
920.708	12719
920.818	12536
920.928	12627
921.038	12734
921.148	12677
921.258	12494
921.368	12391
921.477	12296
921.587	12190
921.697	12133
921.806	12182
921.916	12102
922.025	11996
922.134	12007
922.244	11824
922.353	11946
922.462	11821
922.571	11729
922.68	11589
922.789	11554
922.898	11600
923.007	11509
923.116	11558
923.224	11604
923.333	11532
923.442	11478
923.55	11406
923.659	11410
923.767	11505
923.876	11391
923.984	11376
924.092	11303
924.201	11395
924.309	11353
924.417	11353
924.525	11349
924.633	11258
924.741	12186
924.849	11124
924.956	11254
925.064	11105
925.172	10999
925.279	11033
925.387	11159
925.494	11117
925.602	11250
925.709	11147
925.816	10984
925.924	11018
926.031	11109
926.138	11105
926.245	11105
926.352	10980
926.459	11121
926.566	11143
926.673	11018
926.779	10881
926.886	10843
926.993	10831
927.099	10694
927.206	10637
927.312	10645
927.419	10786
927.525	10710
927.631	10816
927.737	10592
927.843	10546
927.95	10516
928.056	10561
928.162	10599
928.267	10611
928.373	11124
928.479	10603
928.585	10398
928.69	10500
928.796	10512
928.901	10462
929.007	10314
929.112	10489
929.218	10325
929.323	10447
929.428	10257
929.533	10508
929.638	10200
929.743	10276
929.848	10303
929.953	10284
930.058	10147
930.163	10036
930.267	10063
930.372	10162
930.477	10048
930.581	10284
930.685	10105
930.79	9983
930.894	10002
930.998	9922
931.103	10074
931.207	9759
931.311	9595
931.415	9648
931.519	9481
931.623	9458
