Data from test_V78500241_3037.txt Node
Date: Fri Mar 25 14:54:51 CST 2022
User: usil
Spectrometer: V785-0024
Trigger mode: 0
Integration Time (sec): 4.000000E-1
Scans to average: 1
Nonlinearity correction enabled: false
Boxcar width: 0
Storing dark spectrum: false
XAxis mode: Wavelengths
Number of Pixels in Spectrum: 1024
>>>>>Begin Spectral Data<<<<<
801.071	22105
801.214	22010
801.356	21739
801.499	21633
801.641	21416
801.783	21462
801.926	21447
802.068	21386
802.211	21351
802.353	21245
802.496	21085
802.638	20971
802.78	20925
802.923	20899
803.065	20830
803.208	20895
803.35	20750
803.492	20899
803.635	20895
803.777	20910
803.919	20975
804.061	21138
804.204	20785
804.346	20716
804.488	20804
804.63	20864
804.773	20689
804.915	20743
805.057	20750
805.199	20590
805.341	20739
805.483	20754
805.626	20750
805.768	20788
805.91	20682
806.052	20644
806.194	20632
806.336	20823
806.478	20708
806.62	20697
806.762	20769
806.904	20845
807.046	21241
807.188	21100
807.33	21028
807.472	21116
807.614	20880
807.756	20975
807.898	20929
808.04	20739
808.182	20746
808.324	20727
808.465	20754
808.607	20910
808.749	21116
808.891	21249
809.033	21279
809.174	21085
809.316	21085
809.458	21176
809.6	21055
809.741	21214
809.883	21104
810.025	21214
810.166	21214
810.308	21302
810.45	21104
810.591	21108
810.733	21066
810.875	20914
811.016	20686
811.158	20781
811.299	20914
811.441	20960
811.582	21032
811.724	20910
811.865	20765
812.007	20720
812.148	20853
812.29	20910
812.431	21039
812.573	21165
812.714	21241
812.855	21408
812.997	21401
813.138	21610
813.279	21439
813.421	21348
813.562	21348
813.703	21165
813.845	21093
813.986	20659
814.127	20579
814.268	20503
814.41	20347
814.551	20374
814.692	20518
814.833	20301
814.974	20317
815.115	20423
815.256	20286
815.397	20240
815.539	20267
815.68	20142
815.821	20126
815.962	20092
816.103	20043
816.244	19879
816.385	19833
816.526	19811
816.666	19814
816.807	19491
816.948	19643
817.089	19567
817.23	19677
817.371	19552
817.512	19521
817.653	19571
817.793	19529
817.934	19495
818.075	19540
818.216	19510
818.356	19495
818.497	19320
818.638	19164
818.778	19190
818.919	19190
819.06	19259
819.2	19373
819.341	19339
819.481	19190
819.622	19540
819.762	19738
819.903	19635
820.043	19670
820.184	19457
820.324	19457
820.465	19571
820.605	19529
820.746	19392
820.886	19324
821.026	19449
821.167	19426
821.307	19510
821.447	19369
821.588	19320
821.728	19190
821.868	18993
822.008	18738
822.149	18935
822.289	18897
822.429	18604
822.569	18646
822.709	18616
822.849	18300
822.99	18422
823.13	18376
823.27	18410
823.41	18254
823.55	18098
823.69	18232
823.83	18136
823.97	18220
824.11	17984
824.25	17927
824.389	17935
824.529	18098
824.669	18003
824.809	18019
824.949	18011
825.089	18133
825.228	17969
825.368	17756
825.508	17760
825.648	17722
825.787	17798
825.927	17771
826.067	17680
826.206	17748
826.346	17767
826.485	17756
826.625	17684
826.765	17935
826.904	17798
827.044	17493
827.183	17455
827.323	17455
827.462	17573
827.601	17493
827.741	17421
827.88	17509
828.02	17242
828.159	17376
828.298	17455
828.437	17493
828.577	17376
828.716	17452
828.855	17376
828.994	17231
829.134	17197
829.273	17284
829.412	17128
829.551	17075
829.69	17109
829.829	17166
829.968	17383
830.107	17246
830.246	17197
830.385	17052
830.524	17071
830.663	16972
830.802	16877
830.941	16698
831.08	16744
831.219	16847
831.357	16904
831.496	16919
831.635	16809
831.774	16713
831.913	16679
832.051	16626
832.19	16584
832.329	16531
832.467	16523
832.606	16470
832.744	16394
832.883	16516
833.022	16512
833.16	16523
833.299	16462
833.437	16451
833.576	16516
833.714	16535
833.852	16470
833.991	16622
834.129	16607
834.267	16645
834.406	16527
834.544	16580
834.682	16531
834.821	16485
834.959	16736
835.097	16443
835.235	16611
835.373	16504
835.511	16538
835.65	16459
835.788	16363
835.926	16276
836.064	16211
836.202	16192
836.34	16478
836.478	16462
836.615	16409
836.753	16390
836.891	16470
837.029	16394
837.167	16421
837.305	16314
837.443	16280
837.58	16299
837.718	16337
837.856	16306
837.993	16219
838.131	16211
838.269	16249
838.406	16200
838.544	16097
838.681	15983
838.819	15987
838.956	15949
839.094	15667
839.231	15926
839.369	15991
839.506	16169
839.643	16029
839.781	15808
839.918	15762
840.055	15812
840.193	15781
840.33	15831
840.467	15717
840.604	15797
840.742	16093
840.879	15770
841.016	15747
841.153	15728
841.29	15987
841.427	15819
841.564	15960
841.701	15816
841.838	15762
841.975	15766
842.112	15747
842.249	15682
842.385	15553
842.522	15808
842.659	15648
842.796	15595
842.933	15648
843.069	15584
843.206	15618
843.343	15629
843.479	15523
843.616	15656
843.752	15481
843.889	15397
844.025	15485
844.162	15424
844.298	15530
844.435	15443
844.571	15313
844.708	15595
844.844	15591
844.98	15610
845.117	15416
845.253	15469
845.389	15291
845.525	15332
845.661	15344
845.798	15112
845.934	15302
846.07	15241
846.206	15283
846.342	15268
846.478	15317
846.614	15062
846.75	14921
846.886	14921
847.022	15146
847.158	14960
847.294	15043
847.429	14998
847.565	15028
847.701	15214
847.837	14754
847.972	14678
848.108	14838
848.244	14883
848.379	14598
848.515	14590
848.65	14530
848.786	14598
848.921	14541
849.057	14602
849.192	14697
849.328	14552
849.463	14678
849.598	14590
849.734	14499
849.869	14457
850.004	14423
850.14	14415
850.275	14393
850.41	14259
850.545	14259
850.68	14454
850.815	14366
850.95	14317
851.085	14610
851.22	14377
851.355	14324
851.49	14317
851.625	14282
851.76	14221
851.895	14278
852.03	14138
852.165	14301
852.299	14336
852.434	14446
852.569	14396
852.703	14446
852.838	14484
852.973	14503
853.107	14499
853.242	14339
853.376	14301
853.511	14065
853.645	14237
853.78	14282
853.914	14237
854.048	14168
854.183	14210
854.317	14145
854.451	14374
854.585	14271
854.72	14115
854.854	14298
854.988	14134
855.122	14180
855.256	14088
855.39	14138
855.524	14282
855.658	14267
855.792	14237
855.926	14218
856.06	14199
856.194	14259
856.327	14210
856.461	14187
856.595	14202
856.729	14229
856.862	14290
856.996	14294
857.13	14206
857.263	14256
857.397	14309
857.53	14225
857.664	14351
857.797	14157
857.931	14301
858.064	14195
858.197	14434
858.331	14176
858.464	14157
858.597	14065
858.731	14199
858.864	14195
858.997	14145
859.13	14252
859.263	14278
859.396	14214
859.529	14191
859.662	14206
859.795	14142
859.928	14237
860.061	14278
860.194	14499
860.327	14286
860.46	14145
860.592	14355
860.725	14278
860.858	14301
860.99	14153
861.123	14161
861.256	14157
861.388	14157
861.521	14933
861.653	14168
861.786	13947
861.918	14084
862.05	14180
862.183	14103
862.315	14225
862.447	14301
862.58	14142
862.712	13967
862.844	13849
862.976	14027
863.108	14001
863.24	14499
863.372	13940
863.504	13959
863.636	13993
863.768	14050
863.9	13868
864.032	13951
864.164	14008
864.296	13928
864.428	14130
864.559	14123
864.691	14134
864.823	14084
864.954	14024
865.086	14046
865.217	13845
865.349	13947
865.48	13898
865.612	13928
865.743	14134
865.875	13921
866.006	13986
866.137	13993
866.269	13925
866.4	14027
866.531	14012
866.662	13902
866.793	13902
866.924	13940
867.055	14031
867.186	14054
867.317	13936
867.448	13826
867.579	13993
867.71	13902
867.841	13860
867.972	13993
868.103	14005
868.233	14001
868.364	14005
868.495	14043
868.625	14202
868.756	14385
868.886	14088
869.017	14134
869.147	14259
869.278	14309
869.408	14244
869.539	14168
869.669	14339
869.799	14271
869.929	14339
870.06	14339
870.19	14537
870.32	14533
870.45	14526
870.58	14552
870.71	14712
870.84	14621
870.97	14556
871.1	14560
871.23	14773
871.36	14731
871.489	14686
871.619	14750
871.749	14811
871.879	14845
872.008	14826
872.138	14819
872.267	14914
872.397	14644
872.526	14708
872.656	14678
872.785	14705
872.915	14857
873.044	14986
873.173	14899
873.303	14769
873.432	14853
873.561	14952
873.69	14762
873.819	14807
873.948	15043
874.077	14910
874.206	14807
874.335	14910
874.464	15081
874.593	15112
874.722	15032
874.851	15112
874.979	15203
875.108	15199
875.237	15165
875.365	15138
875.494	15077
875.623	15222
875.751	15123
875.88	15298
876.008	15332
876.136	15443
876.265	15694
876.393	15759
876.521	15732
876.65	15671
876.778	15644
876.906	15637
877.034	15511
877.162	15572
877.29	15542
877.418	15553
877.546	15675
877.674	15625
877.802	15625
877.93	15538
878.058	15648
878.185	15462
878.313	15526
878.441	15595
878.568	15431
878.696	15629
878.824	15580
878.951	15622
879.079	15827
879.206	15876
879.333	15751
879.461	15690
879.588	15717
879.715	15759
879.842	15865
879.97	15603
880.097	15450
880.224	15443
880.351	15462
880.478	15447
880.605	15393
880.732	15420
880.859	15587
880.986	15473
881.112	15580
881.239	15344
881.366	15291
881.493	15116
881.619	15157
881.746	15051
881.872	15081
881.999	15135
882.125	15024
882.252	15161
882.378	15150
882.505	15306
882.631	14998
882.757	14914
882.883	14895
883.01	14895
883.136	14891
883.262	14720
883.388	14800
883.514	15024
883.64	14861
883.766	14941
883.892	14708
884.018	14750
884.143	14857
884.269	15013
884.395	14701
884.52	14571
884.646	14625
884.772	14564
884.897	14545
885.023	14571
885.148	14648
885.274	14727
885.399	14765
885.524	14606
885.65	14613
885.775	14549
885.9	14617
886.025	14773
886.15	14682
886.275	14541
886.4	14511
886.525	14583
886.65	14495
886.775	14526
886.9	14689
887.025	14883
887.149	14575
887.274	14431
887.399	14339
887.523	14370
887.648	14317
887.773	14343
887.897	14552
888.021	14495
888.146	14389
888.27	14552
888.395	14663
888.519	14617
888.643	14537
888.767	14606
888.891	14317
889.015	14396
889.139	14469
889.263	14298
889.387	14332
889.511	14514
889.635	14377
889.759	14282
889.883	14278
890.006	14381
890.13	14396
890.254	14271
890.377	14240
890.501	14123
890.624	14172
890.748	14210
890.871	14149
890.995	14054
891.118	13925
891.241	13963
891.364	14050
891.488	14081
891.611	14050
891.734	13982
891.857	14111
891.98	14107
892.103	14100
892.226	14005
892.349	13959
892.471	13883
892.594	13963
892.717	14024
892.839	14081
892.962	14111
893.085	14069
893.207	14035
893.33	13894
893.452	13940
893.575	13997
893.697	13947
893.819	14138
893.941	14252
894.064	14244
894.186	14046
894.308	14008
894.43	14157
894.552	14256
894.674	14195
894.796	14008
894.918	14027
895.04	14065
895.161	14233
895.283	14142
895.405	14115
895.526	14191
895.648	14126
895.769	14218
895.891	14218
896.012	14259
896.134	14187
896.255	14240
896.376	14164
896.498	14244
896.619	14195
896.74	14290
896.861	14240
896.982	14617
897.103	14610
897.224	14370
897.345	14503
897.466	14446
897.587	14442
897.708	14617
897.828	14511
897.949	14396
898.07	14423
898.19	14404
898.311	14644
898.431	14575
898.552	14587
898.672	14659
898.792	14632
898.913	14632
899.033	14556
899.153	14465
899.273	14313
899.393	14290
899.513	14457
899.633	14457
899.753	14549
899.873	14305
899.993	14427
900.113	14438
900.232	14473
900.352	14389
900.472	14298
900.591	14168
900.711	14225
900.83	14221
900.95	14377
901.069	14419
901.189	14191
901.308	13986
901.427	13951
901.546	14024
901.665	14050
901.784	13989
901.904	13750
902.023	13700
902.141	13605
902.26	13616
902.379	13655
902.498	13499
902.617	13510
902.735	13624
902.854	13521
902.973	13506
903.091	13274
903.21	13320
903.328	13297
903.446	13160
903.565	13076
903.683	13107
903.801	13012
903.919	13103
904.038	13057
904.156	12913
904.274	13038
904.392	12863
904.51	12894
904.627	12939
904.745	13015
904.863	12966
904.981	12741
905.098	12566
905.216	12559
905.334	12673
905.451	12589
905.569	12582
905.686	12757
905.803	12544
905.921	12456
906.038	12486
906.155	12498
906.272	12372
906.389	12296
906.506	12125
906.623	12155
906.74	12209
906.857	12068
906.974	12163
907.091	12213
907.208	12285
907.324	12144
907.441	12030
907.557	12022
907.674	11927
907.79	11889
907.907	11901
908.023	11874
908.139	11984
908.256	11805
908.372	11878
908.488	11813
908.604	11691
908.72	11600
908.836	11615
908.952	11627
909.068	11798
909.184	11824
909.3	11748
909.415	11722
909.531	11733
909.647	11459
909.762	11421
909.878	11486
909.993	11490
910.108	11444
910.224	11387
910.339	11463
910.454	11315
910.57	11364
910.685	11231
910.8	11547
910.915	11410
911.03	11356
911.145	11231
911.259	11098
911.374	11220
911.489	11155
911.604	11094
911.718	10957
911.833	10892
911.947	10824
912.062	10786
912.176	10896
912.291	10854
912.405	10877
912.519	11117
912.633	11151
912.748	10980
912.862	10934
912.976	10839
913.09	10675
913.204	10839
913.318	10759
913.431	10866
913.545	10896
913.659	10927
913.772	10793
913.886	10668
914	10721
914.113	10740
914.226	10771
914.34	10763
914.453	10561
914.566	10733
914.68	10596
914.793	10611
914.906	10379
915.019	10428
915.132	10402
915.245	10409
915.358	10424
915.47	10497
915.583	10459
915.696	10436
915.809	10573
915.921	10577
916.034	10428
916.146	10405
916.259	10428
916.371	10500
916.483	10398
916.595	10325
916.708	10432
916.82	10379
916.932	10360
917.044	10386
917.156	10276
917.268	10238
917.38	10265
917.491	10169
917.603	10249
917.715	10272
917.826	10402
917.938	10287
918.049	10131
918.161	10219
918.272	10352
918.384	10352
918.495	10299
918.606	10169
918.717	10112
918.828	10185
918.939	10200
919.05	10063
919.161	10131
919.272	9922
919.383	9953
919.494	10211
919.604	10402
919.715	10246
919.826	10101
919.936	10109
920.047	10158
920.157	10162
920.267	10360
920.378	10219
920.488	10105
920.598	10337
920.708	10497
920.818	10382
920.928	10272
921.038	10508
921.148	10500
921.258	10158
921.368	10105
921.477	10090
921.587	10006
921.697	9907
921.806	10078
921.916	10006
922.025	9789
922.134	9648
922.244	9701
922.353	9747
922.462	9606
922.571	9580
922.68	9477
922.789	9435
922.898	9435
923.007	9386
923.116	9428
923.224	9378
923.333	9340
923.442	9370
923.55	9249
923.659	9382
923.767	9397
923.876	9272
923.984	9336
924.092	9180
924.201	9294
924.309	9336
924.417	9329
924.525	9176
924.633	9253
924.741	10093
924.849	9039
924.956	9218
925.064	9062
925.172	8918
925.279	8990
925.387	9089
925.494	9077
925.602	9199
925.709	9119
925.816	8994
925.924	9055
926.031	9119
926.138	9032
926.245	9093
926.352	9032
926.459	9112
926.566	9199
926.673	9009
926.779	9036
926.886	8902
926.993	8864
927.099	8815
927.206	8758
927.312	8758
927.419	8823
927.525	8781
927.631	8773
927.737	8712
927.843	8667
927.95	8545
928.056	8701
928.162	8750
928.267	8750
928.373	9245
928.479	8739
928.585	8587
928.69	8705
928.796	8644
928.901	8594
929.007	8476
929.112	8606
929.218	8564
929.323	8514
929.428	8484
929.533	8644
929.638	8408
929.743	8476
929.848	8492
929.953	8583
930.058	8442
930.163	8259
930.267	8263
930.372	8427
930.477	8275
930.581	8511
930.685	8370
930.79	8225
930.894	8305
930.998	8206
931.103	8377
931.207	8084
931.311	7959
931.415	7913
931.519	7647
931.623	7693
