Data from test_V78500241_1711.txt Node
Date: Fri Mar 25 14:45:37 CST 2022
User: usil
Spectrometer: V785-0024
Trigger mode: 0
Integration Time (sec): 4.000000E-1
Scans to average: 1
Nonlinearity correction enabled: false
Boxcar width: 0
Storing dark spectrum: false
XAxis mode: Wavelengths
Number of Pixels in Spectrum: 1024
>>>>>Begin Spectral Data<<<<<
801.071	22211
801.214	22139
801.356	21884
801.499	21663
801.641	21736
801.783	21644
801.926	21629
802.068	21561
802.211	21397
802.353	21469
802.496	21367
802.638	21104
802.78	21036
802.923	20921
803.065	20956
803.208	20921
803.35	20876
803.492	21043
803.635	21028
803.777	21077
803.919	21112
804.061	21336
804.204	21051
804.346	20769
804.488	20925
804.63	20857
804.773	20769
804.915	20849
805.057	21024
805.199	20830
805.341	20960
805.483	20963
805.626	20891
805.768	20754
805.91	20765
806.052	20880
806.194	20716
806.336	20975
806.478	20990
806.62	20811
806.762	20830
806.904	21089
807.046	21302
807.188	21207
807.33	21096
807.472	21230
807.614	21024
807.756	21093
807.898	20921
808.04	20880
808.182	20899
808.324	20960
808.465	21024
808.607	21161
808.749	21184
808.891	21397
809.033	21450
809.174	21355
809.316	21214
809.458	21252
809.6	21218
809.741	21298
809.883	21370
810.025	21420
810.166	21245
810.308	21458
810.45	21370
810.591	21222
810.733	21123
810.875	21116
811.016	20891
811.158	20956
811.299	21100
811.441	21233
811.582	21184
811.724	21062
811.865	20933
812.007	21184
812.148	21017
812.29	21077
812.431	21199
812.573	21443
812.714	21469
812.855	21496
812.997	21690
813.138	21804
813.279	21587
813.421	21580
813.562	21386
813.703	21154
813.845	21230
813.986	20887
814.127	20819
814.268	20583
814.41	20678
814.551	20579
814.692	20629
814.833	20442
814.974	20476
815.115	20636
815.256	20396
815.397	20473
815.539	20480
815.68	20339
815.821	20309
815.962	20366
816.103	20309
816.244	20195
816.385	20100
816.526	20092
816.666	19868
816.807	19784
816.948	19742
817.089	19795
817.23	19776
817.371	19731
817.512	19814
817.653	19689
817.793	19700
817.934	19753
818.075	19776
818.216	19723
818.356	19632
818.497	19358
818.638	19335
818.778	19403
818.919	19472
819.06	19316
819.2	19571
819.341	19521
819.481	19563
819.622	19712
819.762	19944
819.903	19879
820.043	19837
820.184	19715
820.324	19670
820.465	19753
820.605	19791
820.746	19715
820.886	19510
821.026	19746
821.167	19544
821.307	19719
821.447	19662
821.588	19384
821.728	19392
821.868	19320
822.008	19072
822.149	19065
822.289	19023
822.429	18825
822.569	18669
822.709	18616
822.849	18589
822.99	18589
823.13	18593
823.27	18627
823.41	18372
823.55	18296
823.69	18376
823.83	18429
823.97	18304
824.11	18194
824.25	18216
824.389	18190
824.529	18194
824.669	18163
824.809	18247
824.949	18235
825.089	18311
825.228	18209
825.368	18064
825.508	17931
825.648	17927
825.787	17999
825.927	17954
826.067	17954
826.206	17832
826.346	17988
826.485	17965
826.625	17821
826.765	18106
826.904	17984
827.044	17737
827.183	17722
827.323	17623
827.462	17790
827.601	17695
827.741	17623
827.88	17668
828.02	17596
828.159	17532
828.298	17638
828.437	17665
828.577	17646
828.716	17687
828.855	17547
828.994	17410
829.134	17383
829.273	17463
829.412	17341
829.551	17410
829.69	17372
829.829	17376
829.968	17471
830.107	17353
830.246	17356
830.385	17296
830.524	17227
830.663	17136
830.802	17075
830.941	16995
831.08	17041
831.219	17003
831.357	17143
831.496	17227
831.635	17045
831.774	17025
831.913	16881
832.051	16729
832.19	16725
832.329	16862
832.467	16744
832.606	16599
832.744	16687
832.883	16706
833.022	16607
833.16	16675
833.299	16729
833.437	16702
833.576	16733
833.714	16877
833.852	16820
833.991	16774
834.129	16797
834.267	16763
834.406	16710
834.544	16721
834.682	16767
834.821	16828
834.959	16980
835.097	16645
835.235	16767
835.373	16786
835.511	16778
835.65	16599
835.788	16577
835.926	16428
836.064	16470
836.202	16409
836.34	16637
836.478	16706
836.615	16725
836.753	16698
836.891	16656
837.029	16683
837.167	16615
837.305	16569
837.443	16455
837.58	16402
837.718	16584
837.856	16516
837.993	16447
838.131	16485
838.269	16363
838.406	16443
838.544	16348
838.681	16154
838.819	16284
838.956	16048
839.094	16048
839.231	16116
839.369	16215
839.506	16405
839.643	16371
839.781	16112
839.918	16006
840.055	16040
840.193	16036
840.33	16090
840.467	16071
840.604	16040
840.742	16246
840.879	15884
841.016	16021
841.153	15975
841.29	16109
841.427	16097
841.564	16040
841.701	16006
841.838	16021
841.975	15903
842.112	15945
842.249	15827
842.385	15743
842.522	15960
842.659	15865
842.796	15812
842.933	15804
843.069	15800
843.206	15743
843.343	15816
843.479	15903
843.616	15827
843.752	15603
843.889	15663
844.025	15781
844.162	15587
844.298	15759
844.435	15610
844.571	15614
844.708	15603
844.844	15641
844.98	15705
845.117	15675
845.253	15500
845.389	15469
845.525	15473
845.661	15603
845.798	15340
845.934	15504
846.07	15355
846.206	15447
846.342	15637
846.478	15401
846.614	15207
846.75	15081
846.886	15173
847.022	15230
847.158	15245
847.294	15184
847.429	15123
847.565	15169
847.701	15313
847.837	14861
847.972	14941
848.108	15024
848.244	15077
848.379	14720
848.515	14727
848.65	14785
848.786	14697
848.921	14800
849.057	14826
849.192	14880
849.328	14785
849.463	14826
849.598	14644
849.734	14724
849.869	14663
850.004	14644
850.14	14560
850.275	14518
850.41	14446
850.545	14465
850.68	14537
850.815	14606
850.95	14545
851.085	14678
851.22	14655
851.355	14537
851.49	14537
851.625	14560
851.76	14533
851.895	14511
852.03	14381
852.165	14415
852.299	14575
852.434	14598
852.569	14583
852.703	14499
852.838	14625
852.973	14659
853.107	14788
853.242	14571
853.376	14488
853.511	14259
853.645	14248
853.78	14587
853.914	14450
854.048	14450
854.183	14393
854.317	14343
854.451	14492
854.585	14419
854.72	14370
854.854	14427
854.988	14328
855.122	14400
855.256	14199
855.39	14298
855.524	14514
855.658	14446
855.792	14412
855.926	14507
856.06	14518
856.194	14564
856.327	14415
856.461	14336
856.595	14381
856.729	14393
856.862	14499
856.996	14465
857.13	14507
857.263	14488
857.397	14560
857.53	14355
857.664	14465
857.797	14514
857.931	14610
858.064	14446
858.197	14507
858.331	14389
858.464	14404
858.597	14225
858.731	14473
858.864	14393
858.997	14427
859.13	14465
859.263	14465
859.396	14511
859.529	14389
859.662	14317
859.795	14294
859.928	14404
860.061	14587
860.194	14644
860.327	14427
860.46	14374
860.592	14621
860.725	14583
860.858	14587
860.99	14412
861.123	14374
861.256	14396
861.388	14400
861.521	15058
861.653	14408
861.786	14332
861.918	14199
862.05	14454
862.183	14347
862.315	14434
862.447	14446
862.58	14415
862.712	14214
862.844	14149
862.976	14282
863.108	14233
863.24	14735
863.372	14145
863.504	14298
863.636	14168
863.768	14229
863.9	14309
864.032	14119
864.164	14229
864.296	14351
864.428	14282
864.559	14347
864.691	14313
864.823	14282
864.954	14275
865.086	14195
865.217	14199
865.349	14111
865.48	14214
865.612	14202
865.743	14381
865.875	14282
866.006	14210
866.137	14168
866.269	14286
866.4	14164
866.531	14123
866.662	14176
866.793	14138
866.924	14142
867.055	14149
867.186	14244
867.317	14172
867.448	14096
867.579	14069
867.71	14138
867.841	14084
867.972	14172
868.103	14168
868.233	14157
868.364	14195
868.495	14328
868.625	14454
868.756	14514
868.886	14339
869.017	14442
869.147	14511
869.278	14552
869.408	14446
869.539	14473
869.669	14545
869.799	14556
869.929	14598
870.06	14454
870.19	14815
870.32	14838
870.45	14804
870.58	14880
870.71	15005
870.84	14937
870.97	14834
871.1	14845
871.23	15013
871.36	15085
871.489	15089
871.619	15116
871.749	15055
871.879	15157
872.008	15131
872.138	15119
872.267	14986
872.397	14925
872.526	14918
872.656	14887
872.785	15009
872.915	15043
873.044	15245
873.173	15028
873.303	15173
873.432	15138
873.561	15192
873.69	15131
873.819	15116
873.948	15146
874.077	15074
874.206	15028
874.335	15119
874.464	15222
874.593	15416
874.722	15386
874.851	15424
874.979	15466
875.108	15401
875.237	15344
875.365	15218
875.494	15340
875.623	15412
875.751	15378
875.88	15420
876.008	15553
876.136	15705
876.265	15800
876.393	15869
876.521	15983
876.65	15850
876.778	15797
876.906	15846
877.034	15778
877.162	15774
877.29	15660
877.418	15743
877.546	15804
877.674	15842
877.802	15804
877.93	15907
878.058	15732
878.185	15713
878.313	15869
878.441	15922
878.568	15614
878.696	15804
878.824	15831
878.951	15915
879.079	16040
879.206	16093
879.333	15884
879.461	15846
879.588	16006
879.715	16002
879.842	16051
879.97	15953
880.097	15622
880.224	15648
880.351	15709
880.478	15743
880.605	15694
880.732	15618
880.859	16010
880.986	15736
881.112	15709
881.239	15614
881.366	15454
881.493	15374
881.619	15329
881.746	15424
881.872	15321
881.999	15268
882.125	15245
882.252	15298
882.378	15504
882.505	15424
882.631	15321
882.757	15058
882.883	15161
883.01	15146
883.136	15230
883.262	14994
883.388	15093
883.514	15264
883.64	15150
883.766	15241
883.892	14933
884.018	14998
884.143	15214
884.269	15230
884.395	14876
884.52	14819
884.646	14834
884.772	14765
884.897	14788
885.023	14891
885.148	14960
885.274	14982
885.399	14944
885.524	14819
885.65	14899
885.775	14811
885.9	14872
886.025	15032
886.15	14971
886.275	14918
886.4	14705
886.525	14906
886.65	14796
886.775	14754
886.9	14963
887.025	15055
887.149	14842
887.274	14754
887.399	14697
887.523	14689
887.648	14518
887.773	14583
887.897	14754
888.021	14720
888.146	14564
888.27	14785
888.395	14796
888.519	14750
888.643	14743
888.767	14731
888.891	14621
889.015	14530
889.139	14560
889.263	14465
889.387	14648
889.511	14754
889.635	14686
889.759	14606
889.883	14484
890.006	14613
890.13	14651
890.254	14549
890.377	14492
890.501	14461
890.624	14393
890.748	14454
890.871	14305
890.995	14233
891.118	14077
891.241	14267
891.364	14187
891.488	14389
891.611	14126
891.734	14233
891.857	14290
891.98	14355
892.103	14320
892.226	14195
892.349	14233
892.471	14126
892.594	14282
892.717	14237
892.839	14153
892.962	14123
893.085	14161
893.207	14206
893.33	14077
893.452	14221
893.575	14259
893.697	14138
893.819	14450
893.941	14404
894.064	14362
894.186	14187
894.308	14214
894.43	14400
894.552	14526
894.674	14404
894.796	14168
894.918	14263
895.04	14355
895.161	14431
895.283	14389
895.405	14294
895.526	14298
895.648	14278
895.769	14358
895.891	14355
896.012	14434
896.134	14442
896.255	14347
896.376	14396
896.498	14389
896.619	14469
896.74	14366
896.861	14381
896.982	14785
897.103	14944
897.224	14720
897.345	14651
897.466	14644
897.587	14610
897.708	14823
897.828	14629
897.949	14564
898.07	14526
898.19	14693
898.311	14796
898.431	14670
898.552	14773
898.672	14796
898.792	14868
898.913	14746
899.033	14701
899.153	14625
899.273	14450
899.393	14701
899.513	14674
899.633	14655
899.753	14629
899.873	14587
899.993	14667
900.113	14621
900.232	14720
900.352	14499
900.472	14488
900.591	14427
900.711	14480
900.83	14530
900.95	14587
901.069	14511
901.189	14412
901.308	14210
901.427	14081
901.546	14134
901.665	14149
901.784	14183
901.904	14027
902.023	13963
902.141	13830
902.26	13769
902.379	13803
902.498	13761
902.617	13586
902.735	13761
902.854	13708
902.973	13639
903.091	13419
903.21	13388
903.328	13487
903.446	13339
903.565	13293
903.683	13324
903.801	13209
903.919	13225
904.038	13335
904.156	13164
904.274	13149
904.392	13031
904.51	13034
904.627	13069
904.745	13202
904.863	13061
904.981	12882
905.098	12760
905.216	12829
905.334	12810
905.451	12791
905.569	12776
905.686	12768
905.803	12856
905.921	12627
906.038	12616
906.155	12574
906.272	12509
906.389	12445
906.506	12388
906.623	12384
906.74	12380
906.857	12270
906.974	12330
907.091	12441
907.208	12486
907.324	12327
907.441	12254
907.557	12186
907.674	12144
907.79	12068
907.907	12049
908.023	12121
908.139	12053
908.256	12030
908.372	11969
908.488	11992
908.604	11916
908.72	11874
908.836	11836
908.952	11866
909.068	11847
909.184	11961
909.3	11866
909.415	11897
909.531	11790
909.647	11589
909.762	11737
909.878	11627
909.993	11585
910.108	11684
910.224	11615
910.339	11649
910.454	11501
910.57	11474
910.685	11459
910.8	11703
910.915	11657
911.03	11566
911.145	11353
911.259	11341
911.374	11277
911.489	11246
911.604	11170
911.718	11071
911.833	11109
911.947	10919
912.062	10904
912.176	11037
912.291	11098
912.405	10972
912.519	11242
912.633	11261
912.748	11212
912.862	11014
912.976	10995
913.09	10877
913.204	11014
913.318	10976
913.431	11075
913.545	11094
913.659	10987
913.772	10980
913.886	10812
914	10866
914.113	10908
914.226	11025
914.34	10923
914.453	10805
914.566	10843
914.68	10809
914.793	10763
914.906	10558
915.019	10512
915.132	10527
915.245	10561
915.358	10527
915.47	10618
915.583	10512
915.696	10626
915.809	10744
915.921	10752
916.034	10641
916.146	10565
916.259	10546
916.371	10596
916.483	10630
916.595	10516
916.708	10558
916.82	10527
916.932	10504
917.044	10489
917.156	10451
917.268	10386
917.38	10333
917.491	10440
917.603	10440
917.715	10516
917.826	10436
917.938	10466
918.049	10306
918.161	10424
918.272	10535
918.384	10489
918.495	10474
918.606	10322
918.717	10200
918.828	10295
918.939	10322
919.05	10173
919.161	10223
919.272	10162
919.383	10131
919.494	10306
919.604	10592
919.715	10325
919.826	10272
919.936	10344
920.047	10436
920.157	10303
920.267	10523
920.378	10436
920.488	10325
920.598	10535
920.708	10744
920.818	10489
920.928	10523
921.038	10626
921.148	10546
921.258	10386
921.368	10265
921.477	10196
921.587	10139
921.697	9949
921.806	10177
921.916	10044
922.025	9949
922.134	9865
922.244	9865
922.353	9918
922.462	9797
922.571	9644
922.68	9561
922.789	9561
922.898	9538
923.007	9473
923.116	9572
923.224	9485
923.333	9519
923.442	9412
923.55	9420
923.659	9500
923.767	9496
923.876	9405
923.984	9523
924.092	9344
924.201	9462
924.309	9397
924.417	9492
924.525	9389
924.633	9397
924.741	10318
924.849	9146
924.956	9374
925.064	9154
925.172	9116
925.279	9203
925.387	9207
925.494	9230
925.602	9348
925.709	9351
925.816	9123
925.924	9245
926.031	9332
926.138	9237
926.245	9199
926.352	9104
926.459	9268
926.566	9321
926.673	9154
926.779	9100
926.886	9066
926.993	8902
927.099	8921
927.206	8872
927.312	8982
927.419	9001
927.525	8845
927.631	9005
927.737	8933
927.843	8864
927.95	8773
928.056	8807
928.162	8842
928.267	8864
928.373	9496
928.479	8952
928.585	8655
928.69	8880
928.796	8876
928.901	8750
929.007	8613
929.112	8826
929.218	8773
929.323	8678
929.428	8636
929.533	8838
929.638	8606
929.743	8606
929.848	8686
929.953	8678
930.058	8564
930.163	8415
930.267	8355
930.372	8632
930.477	8427
930.581	8610
930.685	8507
930.79	8351
930.894	8400
930.998	8374
931.103	8545
931.207	8187
931.311	8123
931.415	8046
931.519	7906
931.623	7864
