Data from test_V78500241_2169.txt Node
Date: Fri Mar 25 14:48:48 CST 2022
User: usil
Spectrometer: V785-0024
Trigger mode: 0
Integration Time (sec): 4.000000E-1
Scans to average: 1
Nonlinearity correction enabled: false
Boxcar width: 0
Storing dark spectrum: false
XAxis mode: Wavelengths
Number of Pixels in Spectrum: 1024
>>>>>Begin Spectral Data<<<<<
801.071	22169
801.214	22048
801.356	21797
801.499	21671
801.641	21583
801.783	21374
801.926	21435
802.068	21485
802.211	21458
802.353	21336
802.496	21051
802.638	21089
802.78	20994
802.923	20967
803.065	20807
803.208	20743
803.35	20872
803.492	21081
803.635	20975
803.777	20872
803.919	20948
804.061	21188
804.204	20864
804.346	20788
804.488	20769
804.63	20811
804.773	20724
804.915	20819
805.057	20819
805.199	20705
805.341	20754
805.483	20876
805.626	20830
805.768	20754
805.91	20872
806.052	20876
806.194	20670
806.336	20941
806.478	20575
806.62	20724
806.762	20804
806.904	20971
807.046	21211
807.188	21150
807.33	21108
807.472	21131
807.614	21024
807.756	20975
807.898	21074
808.04	20811
808.182	20727
808.324	20891
808.465	20963
808.607	20933
808.749	21176
808.891	21203
809.033	21302
809.174	21161
809.316	21039
809.458	21104
809.6	21119
809.741	21211
809.883	21230
810.025	21374
810.166	21233
810.308	21211
810.45	21211
810.591	21161
810.733	21017
810.875	21032
811.016	20800
811.158	20682
811.299	20967
811.441	21043
811.582	20929
811.724	20902
811.865	20880
812.007	20906
812.148	20982
812.29	20941
812.431	21089
812.573	21192
812.714	21397
812.855	21287
812.997	21450
813.138	21644
813.279	21511
813.421	21340
813.562	21313
813.703	21272
813.845	21108
813.986	20765
814.127	20598
814.268	20590
814.41	20598
814.551	20549
814.692	20568
814.833	20473
814.974	20450
815.115	20434
815.256	20328
815.397	20366
815.539	20301
815.68	20259
815.821	20134
815.962	20103
816.103	20100
816.244	19932
816.385	19917
816.526	20054
816.666	19753
816.807	19635
816.948	19696
817.089	19723
817.23	19651
817.371	19616
817.512	19613
817.653	19552
817.793	19597
817.934	19559
818.075	19696
818.216	19662
818.356	19544
818.497	19457
818.638	19168
818.778	19365
818.919	19278
819.06	19331
819.2	19449
819.341	19510
819.481	19426
819.622	19666
819.762	19757
819.903	19719
820.043	19700
820.184	19601
820.324	19552
820.465	19609
820.605	19635
820.746	19620
820.886	19609
821.026	19567
821.167	19586
821.307	19647
821.447	19510
821.588	19384
821.728	19396
821.868	19225
822.008	19152
822.149	18973
822.289	18947
822.429	18673
822.569	18612
822.709	18623
822.849	18429
822.99	18506
823.13	18414
823.27	18369
823.41	18296
823.55	18106
823.69	18247
823.83	18289
823.97	18300
824.11	18110
824.25	18015
824.389	17958
824.529	18095
824.669	18068
824.809	18095
824.949	18136
825.089	18121
825.228	18228
825.368	17923
825.508	17767
825.648	17794
825.787	17908
825.927	17916
826.067	17790
826.206	17847
826.346	17931
826.485	17821
826.625	17790
826.765	17885
826.904	17889
827.044	17630
827.183	17554
827.323	17490
827.462	17630
827.601	17596
827.741	17471
827.88	17528
828.02	17459
828.159	17436
828.298	17497
828.437	17566
828.577	17360
828.716	17570
828.855	17600
828.994	17349
829.134	17311
829.273	17330
829.412	17250
829.551	17178
829.69	17250
829.829	17341
829.968	17341
830.107	17360
830.246	17254
830.385	17303
830.524	17155
830.663	17136
830.802	16987
830.941	16885
831.08	16972
831.219	17010
831.357	16915
831.496	17086
831.635	16911
831.774	16740
831.913	16683
832.051	16618
832.19	16706
832.329	16706
832.467	16637
832.606	16504
832.744	16531
832.883	16596
833.022	16558
833.16	16637
833.299	16675
833.437	16607
833.576	16672
833.714	16516
833.852	16603
833.991	16653
834.129	16740
834.267	16717
834.406	16588
834.544	16565
834.682	16558
834.821	16603
834.959	16710
835.097	16634
835.235	16698
835.373	16683
835.511	16622
835.65	16512
835.788	16455
835.926	16379
836.064	16325
836.202	16394
836.34	16440
836.478	16653
836.615	16440
836.753	16451
836.891	16558
837.029	16504
837.167	16504
837.305	16470
837.443	16413
837.58	16356
837.718	16607
837.856	16497
837.993	16394
838.131	16462
838.269	16249
838.406	16394
838.544	16230
838.681	16105
838.819	16200
838.956	16032
839.094	15861
839.231	15926
839.369	16082
839.506	16348
839.643	16223
839.781	15899
839.918	15846
840.055	16082
840.193	15960
840.33	15941
840.467	15895
840.604	16086
840.742	16246
840.879	15816
841.016	15865
841.153	15842
841.29	16124
841.427	15960
841.564	15972
841.701	15979
841.838	15983
841.975	15968
842.112	15956
842.249	15808
842.385	15732
842.522	15899
842.659	15755
842.796	15622
842.933	15736
843.069	15690
843.206	15717
843.343	15842
843.479	15675
843.616	15774
843.752	15599
843.889	15439
844.025	15679
844.162	15504
844.298	15595
844.435	15519
844.571	15450
844.708	15595
844.844	15679
844.98	15717
845.117	15606
845.253	15485
845.389	15405
845.525	15458
845.661	15469
845.798	15382
845.934	15496
846.07	15374
846.206	15389
846.342	15397
846.478	15275
846.614	15272
846.75	15112
846.886	15100
847.022	15272
847.158	15135
847.294	15173
847.429	15203
847.565	15062
847.701	15359
847.837	14944
847.972	14979
848.108	14887
848.244	14956
848.379	14746
848.515	14739
848.65	14739
848.786	14689
848.921	14762
849.057	14750
849.192	14804
849.328	14758
849.463	14754
849.598	14758
849.734	14659
849.869	14556
850.004	14488
850.14	14522
850.275	14461
850.41	14476
850.545	14412
850.68	14469
850.815	14454
850.95	14469
851.085	14606
851.22	14583
851.355	14522
851.49	14545
851.625	14408
851.76	14362
851.895	14385
852.03	14294
852.165	14549
852.299	14381
852.434	14541
852.569	14514
852.703	14461
852.838	14533
852.973	14670
853.107	14552
853.242	14457
853.376	14278
853.511	14313
853.645	14248
853.78	14533
853.914	14339
854.048	14263
854.183	14301
854.317	14286
854.451	14522
854.585	14370
854.72	14358
854.854	14385
854.988	14256
855.122	14305
855.256	14187
855.39	14320
855.524	14320
855.658	14355
855.792	14328
855.926	14271
856.06	14374
856.194	14492
856.327	14313
856.461	14347
856.595	14183
856.729	14343
856.862	14480
856.996	14355
857.13	14476
857.263	14434
857.397	14438
857.53	14370
857.664	14389
857.797	14400
857.931	14438
858.064	14396
858.197	14450
858.331	14370
858.464	14286
858.597	14298
858.731	14286
858.864	14320
858.997	14324
859.13	14366
859.263	14434
859.396	14484
859.529	14355
859.662	14408
859.795	14343
859.928	14328
860.061	14495
860.194	14488
860.327	14332
860.46	14347
860.592	14476
860.725	14465
860.858	14530
860.99	14370
861.123	14267
861.256	14286
861.388	14404
861.521	15009
861.653	14214
861.786	14111
861.918	14237
862.05	14332
862.183	14320
862.315	14267
862.447	14419
862.58	14263
862.712	14050
862.844	14008
862.976	14168
863.108	14088
863.24	14549
863.372	14024
863.504	14199
863.636	14130
863.768	14202
863.9	14065
864.032	14012
864.164	14149
864.296	14149
864.428	14218
864.559	14161
864.691	14271
864.823	14221
864.954	14103
865.086	14065
865.217	14107
865.349	14008
865.48	14062
865.612	14092
865.743	14343
865.875	14138
866.006	14031
866.137	14103
866.269	14157
866.4	14092
866.531	14096
866.662	14107
866.793	14050
866.924	14119
867.055	14176
867.186	14046
867.317	14058
867.448	13959
867.579	14119
867.71	14001
867.841	14046
867.972	14111
868.103	14046
868.233	14229
868.364	14115
868.495	14263
868.625	14294
868.756	14465
868.886	14309
869.017	14263
869.147	14457
869.278	14400
869.408	14351
869.539	14355
869.669	14393
869.799	14301
869.929	14488
870.06	14492
870.19	14746
870.32	14640
870.45	14571
870.58	14735
870.71	14834
870.84	14857
870.97	14648
871.1	14781
871.23	14921
871.36	14788
871.489	14845
871.619	14902
871.749	14979
871.879	14891
872.008	15032
872.138	14914
872.267	15005
872.397	14804
872.526	14830
872.656	14743
872.785	14838
872.915	15005
873.044	15032
873.173	14971
873.303	15081
873.432	15062
873.561	14994
873.69	15055
873.819	15017
873.948	15142
874.077	15058
874.206	15017
874.335	15112
874.464	15089
874.593	15294
874.722	15317
874.851	15367
874.979	15336
875.108	15291
875.237	15291
875.365	15214
875.494	15199
875.623	15325
875.751	15275
875.88	15275
876.008	15435
876.136	15542
876.265	15759
876.393	15911
876.521	15785
876.65	15743
876.778	15728
876.906	15747
877.034	15584
877.162	15682
877.29	15694
877.418	15686
877.546	15759
877.674	15713
877.802	15755
877.93	15713
878.058	15743
878.185	15580
878.313	15675
878.441	15732
878.568	15603
878.696	15717
878.824	15903
878.951	15812
879.079	15736
879.206	16097
879.333	15865
879.461	15781
879.588	15880
879.715	15956
879.842	15956
879.97	15861
880.097	15599
880.224	15534
880.351	15622
880.478	15587
880.605	15542
880.732	15549
880.859	15869
880.986	15622
881.112	15557
881.239	15511
881.366	15412
881.493	15317
881.619	15214
881.746	15310
881.872	15279
881.999	15214
882.125	15313
882.252	15264
882.378	15279
882.505	15313
882.631	15150
882.757	14998
882.883	15154
883.01	14994
883.136	14971
883.262	14963
883.388	14872
883.514	15043
883.64	15074
883.766	15043
883.892	14845
884.018	14861
884.143	15055
884.269	15150
884.395	14743
884.52	14693
884.646	14746
884.772	14682
884.897	14667
885.023	14739
885.148	14845
885.274	14872
885.399	14906
885.524	14762
885.65	14758
885.775	14724
885.9	14739
886.025	14914
886.15	14811
886.275	14743
886.4	14716
886.525	14758
886.65	14651
886.775	14739
886.9	14944
887.025	14845
887.149	14720
887.274	14507
887.399	14587
887.523	14659
887.648	14499
887.773	14446
887.897	14587
888.021	14655
888.146	14598
888.27	14701
888.395	14678
888.519	14682
888.643	14716
888.767	14610
888.891	14583
889.015	14438
889.139	14480
889.263	14419
889.387	14503
889.511	14590
889.635	14518
889.759	14351
889.883	14374
890.006	14434
890.13	14541
890.254	14366
890.377	14404
890.501	14317
890.624	14164
890.748	14358
890.871	14206
890.995	14005
891.118	14001
891.241	14153
891.364	14138
891.488	14347
891.611	14142
891.734	14134
891.857	14187
891.98	14130
892.103	14240
892.226	14172
892.349	14149
892.471	13951
892.594	14107
892.717	14107
892.839	14218
892.962	14077
893.085	14229
893.207	14081
893.33	14073
893.452	14081
893.575	14244
893.697	14134
893.819	14313
893.941	14381
894.064	14248
894.186	14096
894.308	14138
894.43	14347
894.552	14362
894.674	14229
894.796	14138
894.918	14126
895.04	14084
895.161	14282
895.283	14240
895.405	14202
895.526	14267
895.648	14153
895.769	14286
895.891	14252
896.012	14419
896.134	14381
896.255	14214
896.376	14240
896.498	14317
896.619	14317
896.74	14240
896.861	14355
896.982	14617
897.103	14708
897.224	14590
897.345	14545
897.466	14503
897.587	14556
897.708	14811
897.828	14610
897.949	14541
898.07	14476
898.19	14488
898.311	14636
898.431	14564
898.552	14716
898.672	14735
898.792	14834
898.913	14731
899.033	14545
899.153	14507
899.273	14476
899.393	14537
899.513	14541
899.633	14499
899.753	14560
899.873	14454
899.993	14590
900.113	14503
900.232	14476
900.352	14484
900.472	14389
900.591	14278
900.711	14419
900.83	14374
900.95	14457
901.069	14400
901.189	14332
901.308	14145
901.427	13993
901.546	13989
901.665	14058
901.784	14096
901.904	13925
902.023	13841
902.141	13677
902.26	13616
902.379	13715
902.498	13647
902.617	13548
902.735	13658
902.854	13700
902.973	13563
903.091	13426
903.21	13483
903.328	13263
903.446	13221
903.565	13343
903.683	13278
903.801	13152
903.919	13209
904.038	13244
904.156	13008
904.274	13133
904.392	13053
904.51	13038
904.627	13019
904.745	13065
904.863	13034
904.981	12837
905.098	12707
905.216	12764
905.334	12722
905.451	12658
905.569	12703
905.686	12726
905.803	12681
905.921	12528
906.038	12722
906.155	12532
906.272	12361
906.389	12426
906.506	12308
906.623	12323
906.74	12235
906.857	12270
906.974	12140
907.091	12361
907.208	12433
907.324	12361
907.441	12209
907.557	12072
907.674	12007
907.79	12045
907.907	11980
908.023	12030
908.139	12072
908.256	11996
908.372	11882
908.488	11939
908.604	11779
908.72	11756
908.836	11813
908.952	11714
909.068	11828
909.184	11863
909.3	11748
909.415	11874
909.531	11832
909.647	11501
909.762	11478
909.878	11505
909.993	11638
910.108	11623
910.224	11596
910.339	11551
910.454	11467
910.57	11410
910.685	11353
910.8	11581
910.915	11573
911.03	11406
911.145	11269
911.259	11303
911.374	11280
911.489	11181
911.604	11162
911.718	11109
911.833	11056
911.947	10911
912.062	10866
912.176	10976
912.291	11090
912.405	10953
912.519	11231
912.633	11261
912.748	11025
912.862	10991
912.976	10831
913.09	10839
913.204	10866
913.318	10900
913.431	10915
913.545	10976
913.659	11010
913.772	10911
913.886	10778
914	10755
914.113	10896
914.226	10858
914.34	10923
914.453	10706
914.566	10862
914.68	10637
914.793	10679
914.906	10630
915.019	10527
915.132	10470
915.245	10500
915.358	10508
915.47	10573
915.583	10523
915.696	10588
915.809	10660
915.921	10687
916.034	10535
916.146	10424
916.259	10447
916.371	10630
916.483	10558
916.595	10424
916.708	10508
916.82	10531
916.932	10531
917.044	10489
917.156	10398
917.268	10466
917.38	10455
917.491	10344
917.603	10451
917.715	10409
917.826	10497
917.938	10367
918.049	10230
918.161	10352
918.272	10573
918.384	10508
918.495	10413
918.606	10284
918.717	10185
918.828	10333
918.939	10253
919.05	10173
919.161	10230
919.272	10032
919.383	10116
919.494	10329
919.604	10550
919.715	10265
919.826	10154
919.936	10268
920.047	10394
920.157	10303
920.267	10470
920.378	10356
920.488	10268
920.598	10386
920.708	10622
920.818	10409
920.928	10489
921.038	10641
921.148	10546
921.258	10310
921.368	10280
921.477	10059
921.587	10063
921.697	10051
921.806	10143
921.916	10051
922.025	9911
922.134	9823
922.244	9774
922.353	9903
922.462	9709
922.571	9724
922.68	9553
922.789	9504
922.898	9496
923.007	9504
923.116	9614
923.224	9561
923.333	9538
923.442	9435
923.55	9389
923.659	9420
923.767	9530
923.876	9428
923.984	9549
924.092	9389
924.201	9462
924.309	9378
924.417	9359
924.525	9382
924.633	9340
924.741	10204
924.849	9214
924.956	9340
925.064	9097
925.172	9055
925.279	9108
925.387	9195
925.494	9214
925.602	9336
925.709	9256
925.816	9150
925.924	9199
926.031	9268
926.138	9146
926.245	9241
926.352	9157
926.459	9313
926.566	9344
926.673	9085
926.779	9108
926.886	9024
926.993	8845
927.099	8823
927.206	8838
927.312	8777
927.419	8941
927.525	8925
927.631	8872
927.737	8838
927.843	8754
927.95	8720
928.056	8750
928.162	8792
928.267	8788
928.373	9481
928.479	8948
928.585	8670
928.69	8792
928.796	8849
928.901	8705
929.007	8579
929.112	8724
929.218	8743
929.323	8648
929.428	8663
929.533	8807
929.638	8484
929.743	8590
929.848	8659
929.953	8632
930.058	8556
930.163	8332
930.267	8465
930.372	8552
930.477	8377
930.581	8564
930.685	8507
930.79	8275
930.894	8332
930.998	8328
931.103	8404
931.207	8202
931.311	8077
931.415	8012
931.519	7811
931.623	7818
