Data from test_V78500241_465.txt Node
Date: Fri Mar 25 14:36:57 CST 2022
User: usil
Spectrometer: V785-0024
Trigger mode: 0
Integration Time (sec): 4.000000E-1
Scans to average: 1
Nonlinearity correction enabled: false
Boxcar width: 0
Storing dark spectrum: false
XAxis mode: Wavelengths
Number of Pixels in Spectrum: 1024
>>>>>Begin Spectral Data<<<<<
801.071	26598
801.214	26419
801.356	26126
801.499	26122
801.641	25974
801.783	25951
801.926	25989
802.068	25818
802.211	25666
802.353	25696
802.496	25521
802.638	25529
802.78	25578
802.923	25434
803.065	25411
803.208	25381
803.35	25358
803.492	25502
803.635	25594
803.777	25537
803.919	25556
804.061	25795
804.204	25495
804.346	25388
804.488	25419
804.63	25362
804.773	25274
804.915	25468
805.057	25609
805.199	25396
805.341	25556
805.483	25529
805.626	25396
805.768	25457
805.91	25597
806.052	25533
806.194	25403
806.336	25628
806.478	25499
806.62	25529
806.762	25601
806.904	25590
807.046	25978
807.188	25780
807.33	25712
807.472	25970
807.614	25655
807.756	25791
807.898	25700
808.04	25647
808.182	25571
808.324	25738
808.465	25632
808.607	25769
808.749	25868
808.891	26054
809.033	26176
809.174	26115
809.316	25860
809.458	25997
809.6	25913
809.741	26145
809.883	26039
810.025	26206
810.166	26130
810.308	26256
810.45	26016
810.591	26058
810.733	25879
810.875	25833
811.016	25643
811.158	25693
811.299	25875
811.441	25936
811.582	26008
811.724	25784
811.865	25681
812.007	25818
812.148	25803
812.29	25849
812.431	26031
812.573	26126
812.714	26081
812.855	26294
812.997	26294
813.138	26522
813.279	26419
813.421	26248
813.562	26320
813.703	26142
813.845	26001
813.986	25662
814.127	25487
814.268	25285
814.41	25400
814.551	25343
814.692	25434
814.833	25381
814.974	25263
815.115	25202
815.256	25126
815.397	25168
815.539	25183
815.68	25012
815.821	24985
815.962	25129
816.103	24943
816.244	24954
816.385	24871
816.526	24589
816.666	24684
816.807	24555
816.948	24559
817.089	24658
817.23	24563
817.371	24445
817.512	24513
817.653	24407
817.793	24384
817.934	24536
818.075	24559
818.216	24525
818.356	24384
818.497	24315
818.638	24091
818.778	24201
818.919	24152
819.06	24167
819.2	24277
819.341	24262
819.481	24376
819.622	24471
819.762	24665
819.903	24623
820.043	24547
820.184	24521
820.324	24578
820.465	24494
820.605	24547
820.746	24494
820.886	24304
821.026	24426
821.167	24334
821.307	24498
821.447	24353
821.588	24136
821.728	24121
821.868	24022
822.008	23851
822.149	23703
822.289	23699
822.429	23512
822.569	23406
822.709	23528
822.849	23273
822.99	23383
823.13	23315
823.27	23113
823.41	23166
823.55	22999
823.69	23037
823.83	23098
823.97	22965
824.11	22790
824.25	22702
824.389	22763
824.529	22900
824.669	22869
824.809	22923
824.949	22968
825.089	22790
825.228	22843
825.368	22786
825.508	22592
825.648	22538
825.787	22626
825.927	22672
826.067	22459
826.206	22519
826.346	22656
826.485	22634
826.625	22599
826.765	22736
826.904	22653
827.044	22352
827.183	22413
827.323	22352
827.462	22230
827.601	22246
827.741	22200
827.88	22253
828.02	22154
828.159	22310
828.298	22196
828.437	22394
828.577	22200
828.716	22322
828.855	22135
828.994	22017
829.134	21991
829.273	22055
829.412	21846
829.551	21899
829.69	21945
829.829	21998
829.968	22010
830.107	22036
830.246	21949
830.385	21884
830.524	21918
830.663	21770
830.802	21648
830.941	21656
831.08	21637
831.219	21595
831.357	21686
831.496	21751
831.635	21462
831.774	21428
831.913	21424
832.051	21416
832.19	21252
832.329	21382
832.467	21222
832.606	21233
832.744	21203
832.883	21203
833.022	21218
833.16	21173
833.299	21252
833.437	21222
833.576	21233
833.714	21298
833.852	21367
833.991	21355
834.129	21313
834.267	21249
834.406	21150
834.544	21245
834.682	21230
834.821	21313
834.959	21401
835.097	21184
835.235	21256
835.373	21013
835.511	21116
835.65	21039
835.788	21051
835.926	20883
836.064	20876
836.202	20899
836.34	21066
836.478	21096
836.615	21024
836.753	21127
836.891	21112
837.029	21066
837.167	20975
837.305	21028
837.443	20990
837.58	20971
837.718	21047
837.856	20960
837.993	20872
838.131	20971
838.269	20823
838.406	20815
838.544	20712
838.681	20564
838.819	20594
838.956	20343
839.094	20290
839.231	20427
839.369	20476
839.506	20781
839.643	20663
839.781	20385
839.918	20286
840.055	20423
840.193	20271
840.33	20339
840.467	20290
840.604	20457
840.742	20511
840.879	20149
841.016	20214
841.153	20191
841.29	20431
841.427	20290
841.564	20328
841.701	20343
841.838	20244
841.975	20077
842.112	20164
842.249	20107
842.385	19944
842.522	20248
842.659	20043
842.796	20058
842.933	20054
843.069	20069
843.206	19951
843.343	20084
843.479	20096
843.616	19852
843.752	19791
843.889	19822
844.025	19944
844.162	19776
844.298	19909
844.435	19723
844.571	19757
844.708	19887
844.844	19879
844.98	19780
845.117	19837
845.253	19719
845.389	19643
845.525	19666
845.661	19674
845.798	19609
845.934	19582
846.07	19438
846.206	19544
846.342	19708
846.478	19575
846.614	19392
846.75	19324
846.886	19312
847.022	19316
847.158	19107
847.294	19232
847.429	19282
847.565	19225
847.701	19521
847.837	18973
847.972	18989
848.108	19065
848.244	19027
848.379	18920
848.515	18852
848.65	18760
848.786	18890
848.921	18700
849.057	18894
849.192	18894
849.328	18890
849.463	18791
849.598	18753
849.734	18719
849.869	18726
850.004	18563
850.14	18620
850.275	18563
850.41	18471
850.545	18483
850.68	18536
850.815	18498
850.95	18559
851.085	18711
851.22	18582
851.355	18665
851.49	18506
851.625	18528
851.76	18483
851.895	18494
852.03	18486
852.165	18540
852.299	18517
852.434	18673
852.569	18616
852.703	18536
852.838	18517
852.973	18620
853.107	18585
853.242	18525
853.376	18353
853.511	18262
853.645	18418
853.78	18471
853.914	18369
854.048	18266
854.183	18369
854.317	18437
854.451	18528
854.585	18445
854.72	18270
854.854	18429
854.988	18235
855.122	18517
855.256	18148
855.39	18315
855.524	18498
855.658	18414
855.792	18251
855.926	18281
856.06	18376
856.194	18338
856.327	18365
856.461	18289
856.595	18270
856.729	18258
856.862	18475
856.996	18361
857.13	18414
857.263	18289
857.397	18395
857.53	18350
857.664	18391
857.797	18289
857.931	18467
858.064	18369
858.197	18441
858.331	18369
858.464	18247
858.597	18273
858.731	18304
858.864	18258
858.997	18277
859.13	18258
859.263	18319
859.396	18369
859.529	18308
859.662	18178
859.795	18266
859.928	18289
860.061	18483
860.194	18528
860.327	18323
860.46	18357
860.592	18433
860.725	18486
860.858	18365
860.99	18205
861.123	18239
861.256	18216
861.388	18254
861.521	19031
861.653	18209
861.786	18174
861.918	18182
862.05	18213
862.183	18315
862.315	18426
862.447	18285
862.58	18277
862.712	18045
862.844	17973
862.976	18064
863.108	18110
863.24	18486
863.372	18003
863.504	17950
863.636	18064
863.768	18064
863.9	17977
864.032	17870
864.164	18057
864.296	18019
864.428	18117
864.559	18159
864.691	18159
864.823	18087
864.954	18034
865.086	17992
865.217	18019
865.349	17809
865.48	17946
865.612	17984
865.743	17988
865.875	17950
866.006	17863
866.137	17863
866.269	17912
866.4	17817
866.531	17859
866.662	17828
866.793	17802
866.924	17866
867.055	17866
867.186	17840
867.317	17885
867.448	17718
867.579	17821
867.71	17828
867.841	17760
867.972	17961
868.103	17863
868.233	17908
868.364	17817
868.495	17878
868.625	18224
868.756	18167
868.886	18015
869.017	18064
869.147	18186
869.278	18232
869.408	18072
869.539	18060
869.669	18163
869.799	18270
869.929	18106
870.06	18292
870.19	18448
870.32	18380
870.45	18422
870.58	18544
870.71	18570
870.84	18608
870.97	18467
871.1	18467
871.23	18696
871.36	18620
871.489	18711
871.619	18749
871.749	18707
871.879	18776
872.008	18772
872.138	18779
872.267	18646
872.397	18642
872.526	18585
872.656	18631
872.785	18513
872.915	18776
873.044	18810
873.173	18715
873.303	18867
873.432	18764
873.561	18787
873.69	18829
873.819	18726
873.948	18798
874.077	18798
874.206	18707
874.335	18817
874.464	18882
874.593	18996
874.722	19019
874.851	19084
874.979	19099
875.108	18989
875.237	19015
875.365	18966
875.494	19053
875.623	19076
875.751	19171
875.88	19046
876.008	19027
876.136	19213
876.265	19518
876.393	19609
876.521	19487
876.65	19411
876.778	19358
876.906	19449
877.034	19403
877.162	19514
877.29	19335
877.418	19343
877.546	19403
877.674	19339
877.802	19403
877.93	19407
878.058	19346
878.185	19422
878.313	19339
878.441	19392
878.568	19236
878.696	19388
878.824	19449
878.951	19514
879.079	19540
879.206	19677
879.333	19472
879.461	19365
879.588	19552
879.715	19457
879.842	19723
879.97	19476
880.097	19240
880.224	19141
880.351	19350
880.478	19247
880.605	19141
880.732	19110
880.859	19415
880.986	19285
881.112	19190
881.239	19129
881.366	19110
881.493	18973
881.619	18909
881.746	18878
881.872	18886
881.999	18825
882.125	18875
882.252	18913
882.378	18920
882.505	18924
882.631	18726
882.757	18734
882.883	18753
883.01	18631
883.136	18589
883.262	18570
883.388	18521
883.514	18703
883.64	18795
883.766	18589
883.892	18300
884.018	18498
884.143	18673
884.269	18593
884.395	18471
884.52	18475
884.646	18372
884.772	18319
884.897	18251
885.023	18258
885.148	18380
885.274	18407
885.399	18433
885.524	18353
885.65	18292
885.775	18346
885.9	18220
886.025	18460
886.15	18410
886.275	18300
886.4	18216
886.525	18296
886.65	18232
886.775	18311
886.9	18380
887.025	18498
887.149	18315
887.274	18110
887.399	18076
887.523	18019
887.648	17912
887.773	17954
887.897	18159
888.021	18190
888.146	17980
888.27	18201
888.395	18327
888.519	18098
888.643	18095
888.767	18186
888.891	18041
889.015	17859
889.139	18003
889.263	17809
889.387	18091
889.511	18114
889.635	18060
889.759	17870
889.883	17942
890.006	18019
890.13	18003
890.254	17798
890.377	17832
890.501	17714
890.624	17661
890.748	17672
890.871	17608
890.995	17558
891.118	17372
891.241	17577
891.364	17501
891.488	17551
891.611	17547
891.734	17558
891.857	17551
891.98	17623
892.103	17490
892.226	17535
892.349	17455
892.471	17436
892.594	17619
892.717	17611
892.839	17558
892.962	17429
893.085	17516
893.207	17414
893.33	17254
893.452	17512
893.575	17516
893.697	17497
893.819	17661
893.941	17714
894.064	17554
894.186	17455
894.308	17372
894.43	17619
894.552	17672
894.674	17501
894.796	17429
894.918	17501
895.04	17501
895.161	17577
895.283	17474
895.405	17547
895.526	17490
895.648	17528
895.769	17528
895.891	17585
896.012	17459
896.134	17619
896.255	17589
896.376	17539
896.498	17592
896.619	17710
896.74	17604
896.861	17627
896.982	17950
897.103	18015
897.224	17901
897.345	17783
897.466	17745
897.587	17870
897.708	17893
897.828	17813
897.949	17668
898.07	17741
898.19	17752
898.311	17958
898.431	17710
898.552	17878
898.672	17920
898.792	17817
898.913	17851
899.033	17566
899.153	17748
899.273	17421
899.393	17562
899.513	17634
899.633	17676
899.753	17524
899.873	17520
899.993	17707
900.113	17566
900.232	17539
900.352	17543
900.472	17501
900.591	17376
900.711	17425
900.83	17379
900.95	17490
901.069	17395
901.189	17395
901.308	17086
901.427	17056
901.546	17006
901.665	16946
901.784	17033
901.904	16873
902.023	16816
902.141	16672
902.26	16569
902.379	16706
902.498	16493
902.617	16641
902.735	16649
902.854	16554
902.973	16413
903.091	16158
903.21	16192
903.328	16226
903.446	16219
903.565	16071
903.683	16139
903.801	16010
903.919	16093
904.038	15994
904.156	15945
904.274	15991
904.392	15922
904.51	15804
904.627	15850
904.745	16013
904.863	15964
904.981	15652
905.098	15610
905.216	15561
905.334	15568
905.451	15523
905.569	15420
905.686	15625
905.803	15496
905.921	15321
906.038	15336
906.155	15412
906.272	15169
906.389	15287
906.506	15195
906.623	14975
906.74	15058
906.857	14937
906.974	14948
907.091	15104
907.208	15237
907.324	15081
907.441	14895
907.557	14792
907.674	14804
907.79	14754
907.907	14838
908.023	14826
908.139	14830
908.256	14708
908.372	14663
908.488	14621
908.604	14579
908.72	14442
908.836	14450
908.952	14415
909.068	14590
909.184	14564
909.3	14438
909.415	14511
909.531	14552
909.647	14248
909.762	14187
909.878	14161
909.993	14282
910.108	14176
910.224	14244
910.339	14267
910.454	14073
910.57	14069
910.685	14035
910.8	14298
910.915	14065
911.03	14100
911.145	13860
911.259	13875
911.374	13921
911.489	13715
911.604	13693
911.718	13616
911.833	13658
911.947	13426
912.062	13438
912.176	13647
912.291	13590
912.405	13571
912.519	13769
912.633	13795
912.748	13658
912.862	13632
912.976	13381
913.09	13293
913.204	13407
913.318	13388
913.431	13525
913.545	13563
913.659	13476
913.772	13434
913.886	13263
914	13293
914.113	13457
914.226	13384
914.34	13377
914.453	13126
914.566	13339
914.68	13217
914.793	13160
914.906	13004
915.019	12970
915.132	12924
915.245	12966
915.358	13065
915.47	12951
915.583	12962
915.696	12970
915.809	13065
915.921	13179
916.034	12875
916.146	12852
916.259	12859
916.371	13050
916.483	12913
916.595	12935
916.708	12837
916.82	12817
916.932	12825
917.044	12715
917.156	12719
917.268	12745
917.38	12700
917.491	12650
917.603	12665
917.715	12677
917.826	12719
917.938	12658
918.049	12555
918.161	12673
918.272	12764
918.384	12726
918.495	12536
918.606	12506
918.717	12509
918.828	12532
918.939	12555
919.05	12327
919.161	12456
919.272	12292
919.383	12350
919.494	12608
919.604	12669
919.715	12452
919.826	12403
919.936	12391
920.047	12570
920.157	12445
920.267	12597
920.378	12536
920.488	12399
920.598	12639
920.708	12677
920.818	12604
920.928	12532
921.038	12795
921.148	12711
921.258	12502
921.368	12254
921.477	12266
921.587	12289
921.697	12129
921.806	12266
921.916	12068
922.025	11843
922.134	11923
922.244	11847
922.353	11969
922.462	11847
922.571	11699
922.68	11562
922.789	11596
922.898	11539
923.007	11448
923.116	11611
923.224	11501
923.333	11493
923.442	11410
923.55	11433
923.659	11417
923.767	11501
923.876	11376
923.984	11440
924.092	11307
924.201	11356
924.309	11337
924.417	11299
924.525	11178
924.633	11284
924.741	12289
924.849	11075
924.956	11284
925.064	11155
925.172	11060
925.279	11086
925.387	11124
925.494	11094
925.602	11189
925.709	11109
925.816	11083
925.924	11071
926.031	11132
926.138	11079
926.245	11090
926.352	10934
926.459	11117
926.566	11204
926.673	10968
926.779	10946
926.886	10885
926.993	10725
927.099	10736
927.206	10698
927.312	10660
927.419	10771
927.525	10816
927.631	10812
927.737	10599
927.843	10588
927.95	10481
928.056	10592
928.162	10554
928.267	10618
928.373	11143
928.479	10683
928.585	10421
928.69	10523
928.796	10561
928.901	10508
929.007	10310
929.112	10535
929.218	10485
929.323	10398
929.428	10325
929.533	10462
929.638	10211
929.743	10356
929.848	10314
929.953	10314
930.058	10246
930.163	10010
930.267	10074
930.372	10166
930.477	10032
930.581	10223
930.685	10131
930.79	9987
930.894	10032
930.998	9953
931.103	10086
931.207	9690
931.311	9644
931.415	9603
931.519	9439
931.623	9355
