Data from test_V78500241_3305.txt Node
Date: Fri Mar 25 14:56:43 CST 2022
User: usil
Spectrometer: V785-0024
Trigger mode: 0
Integration Time (sec): 4.000000E-1
Scans to average: 1
Nonlinearity correction enabled: false
Boxcar width: 0
Storing dark spectrum: false
XAxis mode: Wavelengths
Number of Pixels in Spectrum: 1024
>>>>>Begin Spectral Data<<<<<
801.071	22021
801.214	21797
801.356	21557
801.499	21561
801.641	21370
801.783	21378
801.926	21325
802.068	21268
802.211	21184
802.353	21127
802.496	20921
802.638	20982
802.78	20804
802.923	20640
803.065	20575
803.208	20590
803.35	20617
803.492	20651
803.635	20845
803.777	20648
803.919	20781
804.061	20952
804.204	20724
804.346	20522
804.488	20579
804.63	20640
804.773	20492
804.915	20465
805.057	20655
805.199	20564
805.341	20678
805.483	20701
805.626	20632
805.768	20438
805.91	20545
806.052	20594
806.194	20465
806.336	20765
806.478	20446
806.62	20602
806.762	20579
806.904	20758
807.046	20952
807.188	20785
807.33	20910
807.472	20872
807.614	20735
807.756	20796
807.898	20724
808.04	20617
808.182	20552
808.324	20609
808.465	20674
808.607	20796
808.749	20899
808.891	21020
809.033	21070
809.174	20982
809.316	20937
809.458	20937
809.6	20823
809.741	20800
809.883	21043
810.025	21028
810.166	21165
810.308	21043
810.45	21028
810.591	20861
810.733	20800
810.875	20727
811.016	20590
811.158	20545
811.299	20739
811.441	20842
811.582	20769
811.724	20697
811.865	20541
812.007	20560
812.148	20712
812.29	20674
812.431	20830
812.573	21036
812.714	21089
812.855	21199
812.997	21317
813.138	21386
813.279	21214
813.421	21203
813.562	21081
813.703	20986
813.845	20811
813.986	20385
814.127	20305
814.268	20275
814.41	20229
814.551	20134
814.692	20290
814.833	20077
814.974	20199
815.115	20126
815.256	20088
815.397	20035
815.539	20088
815.68	19997
815.821	19742
815.962	20005
816.103	19902
816.244	19643
816.385	19791
816.526	19624
816.666	19464
816.807	19316
816.948	19419
817.089	19495
817.23	19411
817.371	19297
817.512	19324
817.653	19304
817.793	19358
817.934	19396
818.075	19369
818.216	19384
818.356	19350
818.497	19133
818.638	19027
818.778	19000
818.919	18977
819.06	19027
819.2	19175
819.341	19164
819.481	19388
819.622	19415
819.762	19632
819.903	19476
820.043	19426
820.184	19217
820.324	19377
820.465	19335
820.605	19324
820.746	19335
820.886	19194
821.026	19362
821.167	19198
821.307	19346
821.447	19274
821.588	19168
821.728	19004
821.868	18840
822.008	18837
822.149	18859
822.289	18696
822.429	18410
822.569	18506
822.709	18414
822.849	18258
822.99	18228
823.13	18266
823.27	18228
823.41	17988
823.55	17946
823.69	18041
823.83	17980
823.97	18064
824.11	17866
824.25	17824
824.389	17935
824.529	17790
824.669	17775
824.809	17840
824.949	17927
825.089	17828
825.228	17752
825.368	17577
825.508	17764
825.648	17668
825.787	17741
825.927	17638
826.067	17547
826.206	17535
826.346	17425
826.485	17615
826.625	17509
826.765	17729
826.904	17589
827.044	17356
827.183	17353
827.323	17356
827.462	17299
827.601	17216
827.741	17170
827.88	17326
828.02	17216
828.159	17189
828.298	17379
828.437	17425
828.577	17280
828.716	17353
828.855	17303
828.994	16987
829.134	17083
829.273	17151
829.412	16972
829.551	16972
829.69	16965
829.829	17048
829.968	17181
830.107	17079
830.246	17025
830.385	17006
830.524	16991
830.663	16919
830.802	16664
830.941	16702
831.08	16660
831.219	16694
831.357	16675
831.496	16828
831.635	16649
831.774	16744
831.913	16493
832.051	16382
832.19	16497
832.329	16565
832.467	16375
832.606	16360
832.744	16333
832.883	16344
833.022	16371
833.16	16337
833.299	16333
833.437	16379
833.576	16424
833.714	16440
833.852	16497
833.991	16413
834.129	16470
834.267	16500
834.406	16409
834.544	16462
834.682	16413
834.821	16451
834.959	16622
835.097	16318
835.235	16519
835.373	16440
835.511	16466
835.65	16314
835.788	16367
835.926	16154
836.064	16147
836.202	16181
836.34	16306
836.478	16367
836.615	16211
836.753	16314
836.891	16405
837.029	16348
837.167	16268
837.305	16162
837.443	16226
837.58	16158
837.718	16230
837.856	16253
837.993	16135
838.131	16188
838.269	16238
838.406	16196
838.544	16055
838.681	16017
838.819	15972
838.956	15622
839.094	15724
839.231	15869
839.369	15876
839.506	16135
839.643	15930
839.781	15732
839.918	15690
840.055	15789
840.193	15850
840.33	15705
840.467	15751
840.604	15736
840.742	16029
840.879	15557
841.016	15633
841.153	15682
841.29	15842
841.427	15747
841.564	15686
841.701	15774
841.838	15717
841.975	15690
842.112	15671
842.249	15671
842.385	15500
842.522	15819
842.659	15564
842.796	15564
842.933	15614
843.069	15538
843.206	15553
843.343	15561
843.479	15584
843.616	15545
843.752	15340
843.889	15340
844.025	15477
844.162	15268
844.298	15530
844.435	15230
844.571	15249
844.708	15401
844.844	15595
844.98	15450
845.117	15317
845.253	15420
845.389	15241
845.525	15306
845.661	15275
845.798	15070
845.934	15199
846.07	15116
846.206	15203
846.342	15214
846.478	15055
846.614	14960
846.75	14861
846.886	14823
847.022	14948
847.158	14883
847.294	14948
847.429	14994
847.565	14880
847.701	15127
847.837	14716
847.972	14629
848.108	14731
848.244	14663
848.379	14636
848.515	14465
848.65	14511
848.786	14514
848.921	14545
849.057	14644
849.192	14560
849.328	14476
849.463	14514
849.598	14473
849.734	14438
849.869	14442
850.004	14278
850.14	14339
850.275	14275
850.41	14126
850.545	14221
850.68	14210
850.815	14286
850.95	14180
851.085	14503
851.22	14294
851.355	14339
851.49	14294
851.625	14142
851.76	14199
851.895	14168
852.03	14069
852.165	14336
852.299	14343
852.434	14351
852.569	14218
852.703	14259
852.838	14396
852.973	14442
853.107	14374
853.242	14252
853.376	14168
853.511	14157
853.645	14100
853.78	14263
853.914	14202
854.048	14183
854.183	14084
854.317	14126
854.451	14256
854.585	14077
854.72	14157
854.854	14195
854.988	14077
855.122	14062
855.256	14008
855.39	14130
855.524	14210
855.658	14149
855.792	14149
855.926	14142
856.06	14256
856.194	14233
856.327	14115
856.461	14103
856.595	14123
856.729	14180
856.862	14191
856.996	14115
857.13	14153
857.263	14259
857.397	14130
857.53	14142
857.664	14138
857.797	14145
857.931	14290
858.064	14225
858.197	14256
858.331	14142
858.464	14176
858.597	14046
858.731	14206
858.864	14115
858.997	14157
859.13	14176
859.263	14180
859.396	14225
859.529	14111
859.662	14123
859.795	14077
859.928	14233
860.061	14309
860.194	14301
860.327	14263
860.46	14103
860.592	14332
860.725	14240
860.858	14187
860.99	14134
861.123	14111
861.256	14115
861.388	14145
861.521	14967
861.653	14046
861.786	13894
861.918	13993
862.05	14027
862.183	14142
862.315	14123
862.447	14183
862.58	14123
862.712	13947
862.844	13841
862.976	13982
863.108	13890
863.24	14267
863.372	13902
863.504	13928
863.636	13906
863.768	13940
863.9	13898
864.032	13879
864.164	13940
864.296	13989
864.428	14016
864.559	14058
864.691	14027
864.823	13963
864.954	13967
865.086	13955
865.217	13986
865.349	13894
865.48	13963
865.612	13902
865.743	14062
865.875	13944
866.006	13833
866.137	13883
866.269	13936
866.4	13913
866.531	13860
866.662	13890
866.793	13849
866.924	13818
867.055	13883
867.186	13932
867.317	13986
867.448	13833
867.579	13750
867.71	13822
867.841	13814
867.972	13833
868.103	13906
868.233	14073
868.364	13845
868.495	13959
868.625	14142
868.756	14210
868.886	14153
869.017	14172
869.147	14202
869.278	14290
869.408	14176
869.539	14107
869.669	14267
869.799	14214
869.929	14225
870.06	14286
870.19	14431
870.32	14423
870.45	14511
870.58	14606
870.71	14739
870.84	14670
870.97	14537
871.1	14526
871.23	14765
871.36	14678
871.489	14727
871.619	14857
871.749	14773
871.879	14857
872.008	14868
872.138	14811
872.267	14743
872.397	14640
872.526	14564
872.656	14514
872.785	14594
872.915	14785
873.044	14842
873.173	14830
873.303	14804
873.432	14937
873.561	14800
873.69	14777
873.819	14838
873.948	14861
874.077	14826
874.206	14849
874.335	14845
874.464	15043
874.593	15184
874.722	15066
874.851	15116
874.979	15127
875.108	15070
875.237	15028
875.365	15077
875.494	15146
875.623	15165
875.751	15055
875.88	15142
876.008	15329
876.136	15355
876.265	15591
876.393	15690
876.521	15568
876.65	15549
876.778	15591
876.906	15637
877.034	15447
877.162	15622
877.29	15557
877.418	15568
877.546	15637
877.674	15507
877.802	15507
877.93	15549
878.058	15488
878.185	15572
878.313	15549
878.441	15462
878.568	15348
878.696	15416
878.824	15629
878.951	15762
879.079	15690
879.206	15911
879.333	15698
879.461	15591
879.588	15641
879.715	15823
879.842	15873
879.97	15557
880.097	15336
880.224	15382
880.351	15431
880.478	15367
880.605	15424
880.732	15351
880.859	15599
880.986	15359
881.112	15443
881.239	15275
881.366	15165
881.493	15180
881.619	15032
881.746	15055
881.872	15104
881.999	15055
882.125	15214
882.252	15036
882.378	15070
882.505	15241
882.631	15013
882.757	14906
882.883	14906
883.01	14842
883.136	14750
883.262	14724
883.388	14705
883.514	14853
883.64	14975
883.766	14800
883.892	14655
884.018	14686
884.143	14914
884.269	14933
884.395	14606
884.52	14568
884.646	14560
884.772	14556
884.897	14541
885.023	14575
885.148	14587
885.274	14670
885.399	14769
885.524	14545
885.65	14636
885.775	14606
885.9	14602
886.025	14678
886.15	14701
886.275	14530
886.4	14476
886.525	14507
886.65	14537
886.775	14526
886.9	14701
887.025	14773
887.149	14552
887.274	14400
887.399	14446
887.523	14343
887.648	14248
887.773	14305
887.897	14541
888.021	14480
888.146	14351
888.27	14503
888.395	14454
888.519	14484
888.643	14507
888.767	14507
888.891	14400
889.015	14263
889.139	14294
889.263	14240
889.387	14366
889.511	14446
889.635	14377
889.759	14298
889.883	14286
890.006	14282
890.13	14377
890.254	14191
890.377	14225
890.501	14107
890.624	14073
890.748	14161
890.871	14035
890.995	14027
891.118	13902
891.241	13947
891.364	14035
891.488	14202
891.611	13906
891.734	13989
891.857	14077
891.98	13940
892.103	14111
892.226	14001
892.349	13951
892.471	13849
892.594	13928
892.717	13852
892.839	13993
892.962	14069
893.085	14031
893.207	13944
893.33	13841
893.452	13894
893.575	14149
893.697	13997
893.819	14290
893.941	14271
894.064	14191
894.186	13967
894.308	13909
894.43	14176
894.552	14119
894.674	14142
894.796	13944
894.918	14005
895.04	14111
895.161	14111
895.283	14081
895.405	13947
895.526	14138
895.648	14138
895.769	14123
895.891	14183
896.012	14149
896.134	14195
896.255	14176
896.376	14096
896.498	14111
896.619	14096
896.74	14062
896.861	14221
896.982	14530
897.103	14629
897.224	14381
897.345	14423
897.466	14366
897.587	14408
897.708	14575
897.828	14396
897.949	14343
898.07	14320
898.19	14446
898.311	14495
898.431	14495
898.552	14503
898.672	14564
898.792	14659
898.913	14590
899.033	14446
899.153	14355
899.273	14225
899.393	14412
899.513	14396
899.633	14324
899.753	14400
899.873	14320
899.993	14438
900.113	14385
900.232	14492
900.352	14385
900.472	14259
900.591	14202
900.711	14240
900.83	14161
900.95	14320
901.069	14294
901.189	14206
901.308	13879
901.427	13799
901.546	13856
901.665	13947
901.784	13955
901.904	13769
902.023	13712
902.141	13567
902.26	13441
902.379	13510
902.498	13430
902.617	13495
902.735	13529
902.854	13464
902.973	13472
903.091	13179
903.21	13194
903.328	13129
903.446	13160
903.565	13076
903.683	13034
903.801	12935
903.919	13023
904.038	13057
904.156	12924
904.274	12916
904.392	12783
904.51	12859
904.627	12776
904.745	12875
904.863	12928
904.981	12677
905.098	12623
905.216	12536
905.334	12570
905.451	12616
905.569	12585
905.686	12642
905.803	12540
905.921	12285
906.038	12395
906.155	12308
906.272	12361
906.389	12254
906.506	12114
906.623	12095
906.74	12140
906.857	12091
906.974	12045
907.091	12175
907.208	12224
907.324	12190
907.441	12091
907.557	11965
907.674	11920
907.79	11870
907.907	11885
908.023	11920
908.139	11851
908.256	11817
908.372	11836
908.488	11798
908.604	11665
908.72	11733
908.836	11623
908.952	11695
909.068	11710
909.184	11752
909.3	11623
909.415	11760
909.531	11592
909.647	11463
909.762	11406
909.878	11410
909.993	11459
910.108	11417
910.224	11417
910.339	11414
910.454	11395
910.57	11334
910.685	11212
910.8	11520
910.915	11395
911.03	11334
911.145	11151
911.259	11117
911.374	11162
911.489	10987
911.604	11056
911.718	10976
911.833	10850
911.947	10736
912.062	10683
912.176	10828
912.291	10927
912.405	10812
912.519	11010
912.633	11155
912.748	10999
912.862	10957
912.976	10812
913.09	10668
913.204	10736
913.318	10790
913.431	10843
913.545	10930
913.659	10968
913.772	10843
913.886	10683
914	10664
914.113	10683
914.226	10805
914.34	10793
914.453	10577
914.566	10721
914.68	10573
914.793	10558
914.906	10459
915.019	10455
915.132	10344
915.245	10455
915.358	10478
915.47	10367
915.583	10440
915.696	10447
915.809	10546
915.921	10546
916.034	10348
916.146	10325
916.259	10322
916.371	10481
916.483	10417
916.595	10257
916.708	10306
916.82	10329
916.932	10329
917.044	10325
917.156	10287
917.268	10196
917.38	10291
917.491	10162
917.603	10299
917.715	10356
917.826	10329
917.938	10280
918.049	10196
918.161	10284
918.272	10303
918.384	10360
918.495	10230
918.606	10188
918.717	10010
918.828	10097
918.939	10135
919.05	9968
919.161	10017
919.272	9937
919.383	9972
919.494	10154
919.604	10390
919.715	10112
919.826	10055
919.936	10071
920.047	10234
920.157	10188
920.267	10318
920.378	10128
920.488	10131
920.598	10375
920.708	10493
920.818	10337
920.928	10280
921.038	10531
921.148	10394
921.258	10154
921.368	10139
921.477	10051
921.587	10044
921.697	9964
921.806	9991
921.916	9857
922.025	9785
922.134	9743
922.244	9701
922.353	9720
922.462	9584
922.571	9561
922.68	9424
922.789	9348
922.898	9466
923.007	9329
923.116	9393
923.224	9370
923.333	9405
923.442	9287
923.55	9313
923.659	9256
923.767	9332
923.876	9222
923.984	9378
924.092	9123
924.201	9275
924.309	9325
924.417	9294
924.525	9233
924.633	9203
924.741	10207
924.849	9051
924.956	9173
925.064	9089
925.172	8899
925.279	8998
925.387	9062
925.494	9036
925.602	9104
925.709	9074
925.816	8929
925.924	8956
926.031	9142
926.138	9104
926.245	9142
926.352	8986
926.459	9093
926.566	9154
926.673	9036
926.779	8853
926.886	8910
926.993	8750
927.099	8788
927.206	8750
927.312	8743
927.419	8777
927.525	8849
927.631	8823
927.737	8655
927.843	8655
927.95	8606
928.056	8663
928.162	8697
928.267	8785
928.373	9359
928.479	8746
928.585	8583
928.69	8701
928.796	8686
928.901	8583
929.007	8412
929.112	8621
929.218	8514
929.323	8511
929.428	8541
929.533	8636
929.638	8370
929.743	8415
929.848	8579
929.953	8549
930.058	8351
930.163	8221
930.267	8248
930.372	8400
930.477	8240
930.581	8434
930.685	8328
930.79	8145
930.894	8206
930.998	8183
931.103	8313
931.207	7951
931.311	8024
931.415	7902
931.519	7704
931.623	7677
