Data from test_V78500241_1458.txt Node
Date: Fri Mar 25 14:43:52 CST 2022
User: usil
Spectrometer: V785-0024
Trigger mode: 0
Integration Time (sec): 4.000000E-1
Scans to average: 1
Nonlinearity correction enabled: false
Boxcar width: 0
Storing dark spectrum: false
XAxis mode: Wavelengths
Number of Pixels in Spectrum: 1024
>>>>>Begin Spectral Data<<<<<
801.071	22409
801.214	22394
801.356	22143
801.499	21968
801.641	21751
801.783	21861
801.926	21876
802.068	21682
802.211	21739
802.353	21549
802.496	21397
802.638	21325
802.78	21344
802.923	21176
803.065	21032
803.208	21127
803.35	21199
803.492	21233
803.635	21252
803.777	21108
803.919	21195
804.061	21428
804.204	21256
804.346	21085
804.488	21039
804.63	21005
804.773	20883
804.915	20998
805.057	21195
805.199	21062
805.341	21112
805.483	21264
805.626	21176
805.768	21062
805.91	21089
806.052	21085
806.194	20883
806.336	21211
806.478	21028
806.62	20986
806.762	21096
806.904	21374
807.046	21458
807.188	21408
807.33	21545
807.472	21458
807.614	21317
807.756	21370
807.898	21294
808.04	21268
808.182	21256
808.324	21306
808.465	21313
808.607	21629
808.749	21625
808.891	21800
809.033	21842
809.174	21762
809.316	21625
809.458	21652
809.6	21447
809.741	21694
809.883	21591
810.025	21728
810.166	21682
810.308	21564
810.45	21564
810.591	21603
810.733	21412
810.875	21329
811.016	21195
811.158	21085
811.299	21268
811.441	21393
811.582	21317
811.724	21165
811.865	21203
812.007	21298
812.148	21230
812.29	21233
812.431	21424
812.573	21580
812.714	21549
812.855	21781
812.997	21884
813.138	21899
813.279	21884
813.421	21781
813.562	21751
813.703	21485
813.845	21469
813.986	21135
814.127	20941
814.268	20849
814.41	20849
814.551	20857
814.692	20986
814.833	20735
814.974	20689
815.115	20815
815.256	20712
815.397	20720
815.539	20632
815.68	20541
815.821	20499
815.962	20587
816.103	20495
816.244	20294
816.385	20221
816.526	20381
816.666	20035
816.807	19887
816.948	20016
817.089	20054
817.23	19978
817.371	20012
817.512	19940
817.653	19864
817.793	19917
817.934	19833
818.075	20001
818.216	19974
818.356	19883
818.497	19913
818.638	19510
818.778	19624
818.919	19647
819.06	19689
819.2	19753
819.341	19719
819.481	19849
819.622	19906
819.762	20020
819.903	20039
820.043	20111
820.184	19925
820.324	19852
820.465	19837
820.605	19978
820.746	19811
820.886	19643
821.026	19890
821.167	19883
821.307	19989
821.447	19784
821.588	19761
821.728	19666
821.868	19563
822.008	19369
822.149	19316
822.289	19335
822.429	19137
822.569	18985
822.709	18894
822.849	18890
822.99	18852
823.13	18768
823.27	18749
823.41	18570
823.55	18563
823.69	18582
823.83	18551
823.97	18490
824.11	18395
824.25	18384
824.389	18315
824.529	18429
824.669	18433
824.809	18407
824.949	18490
825.089	18475
825.228	18372
825.368	18129
825.508	18136
825.648	18209
825.787	18289
825.927	18140
826.067	18102
826.206	18095
826.346	18178
826.485	18224
826.625	18121
826.765	18220
826.904	18194
827.044	17946
827.183	17821
827.323	17942
827.462	17961
827.601	17748
827.741	17764
827.88	17996
828.02	17699
828.159	17779
828.298	17874
828.437	17927
828.577	17859
828.716	18057
828.855	17805
828.994	17619
829.134	17619
829.273	17672
829.412	17577
829.551	17501
829.69	17577
829.829	17630
829.968	17714
830.107	17638
830.246	17604
830.385	17478
830.524	17493
830.663	17444
830.802	17277
830.941	17124
831.08	17124
831.219	17280
831.357	17220
831.496	17417
831.635	17242
831.774	17124
831.913	17170
832.051	17071
832.19	17060
832.329	17064
832.467	16904
832.606	16942
832.744	16850
832.883	16904
833.022	16915
833.16	16976
833.299	16980
833.437	16976
833.576	16919
833.714	16980
833.852	16892
833.991	16995
834.129	16991
834.267	16984
834.406	16892
834.544	16984
834.682	17048
834.821	16850
834.959	17143
835.097	16995
835.235	16991
835.373	16953
835.511	16980
835.65	16900
835.788	16877
835.926	16847
836.064	16611
836.202	16649
836.34	16824
836.478	16904
836.615	16850
836.753	16873
836.891	16786
837.029	17060
837.167	16698
837.305	16687
837.443	16733
837.58	16755
837.718	16755
837.856	16702
837.993	16615
838.131	16752
838.269	16561
838.406	16592
838.544	16694
838.681	16348
838.819	16265
838.956	16192
839.094	16246
839.231	16280
839.369	16398
839.506	16596
839.643	16538
839.781	16322
839.918	16211
840.055	16310
840.193	16276
840.33	16211
840.467	16207
840.604	16276
840.742	16489
840.879	16021
841.016	16234
841.153	16029
841.29	16306
841.427	16196
841.564	16272
841.701	16185
841.838	16181
841.975	16154
842.112	16158
842.249	16071
842.385	15888
842.522	16257
842.659	16097
842.796	16032
842.933	15983
843.069	15994
843.206	15895
843.343	16029
843.479	16082
843.616	16032
843.752	15762
843.889	15827
844.025	15975
844.162	15694
844.298	15884
844.435	15888
844.571	15846
844.708	15903
844.844	15949
844.98	16029
845.117	15915
845.253	15759
845.389	15838
845.525	15709
845.661	15778
845.798	15755
845.934	15941
846.07	15869
846.206	15903
846.342	15991
846.478	15785
846.614	15447
846.75	15351
846.886	15325
847.022	15538
847.158	15336
847.294	15378
847.429	15443
847.565	15321
847.701	15625
847.837	15180
847.972	15093
848.108	15199
848.244	15188
848.379	15100
848.515	14902
848.65	14853
848.786	14956
848.921	15055
849.057	15104
849.192	15184
849.328	14933
849.463	14895
849.598	14944
849.734	14933
849.869	14883
850.004	14788
850.14	14765
850.275	14731
850.41	14705
850.545	14670
850.68	14625
850.815	14708
850.95	14777
851.085	14910
851.22	14788
851.355	14670
851.49	14758
851.625	14621
851.76	14792
851.895	14621
852.03	14629
852.165	14674
852.299	14712
852.434	14750
852.569	14758
852.703	14754
852.838	14739
852.973	14941
853.107	14933
853.242	14735
853.376	14594
853.511	14465
853.645	14476
853.78	14693
853.914	14617
854.048	14655
854.183	14602
854.317	14636
854.451	14727
854.585	14499
854.72	14564
854.854	14712
854.988	14537
855.122	14590
855.256	14526
855.39	14549
855.524	14712
855.658	14590
855.792	14537
855.926	14667
856.06	14670
856.194	14697
856.327	14583
856.461	14606
856.595	14651
856.729	14568
856.862	14708
856.996	14610
857.13	14590
857.263	14758
857.397	14705
857.53	14583
857.664	14594
857.797	14674
857.931	14739
858.064	14655
858.197	14689
858.331	14541
858.464	14469
858.597	14541
858.731	14541
858.864	14549
858.997	14571
859.13	14537
859.263	14598
859.396	14701
859.529	14602
859.662	14568
859.795	14629
859.928	14606
860.061	14750
860.194	14857
860.327	14613
860.46	14632
860.592	14610
860.725	14716
860.858	14674
860.99	14640
861.123	14495
861.256	14507
861.388	14610
861.521	15374
861.653	14434
861.786	14393
861.918	14438
862.05	14457
862.183	14495
862.315	14560
862.447	14651
862.58	14537
862.712	14351
862.844	14298
862.976	14480
863.108	14336
863.24	14868
863.372	14286
863.504	14355
863.636	14385
863.768	14419
863.9	14377
864.032	14233
864.164	14317
864.296	14339
864.428	14503
864.559	14427
864.691	14450
864.823	14362
864.954	14488
865.086	14454
865.217	14286
865.349	14343
865.48	14377
865.612	14400
865.743	14518
865.875	14358
866.006	14290
866.137	14351
866.269	14313
866.4	14309
866.531	14278
866.662	14214
866.793	14282
866.924	14320
867.055	14347
867.186	14370
867.317	14339
867.448	14256
867.579	14336
867.71	14210
867.841	14252
867.972	14343
868.103	14290
868.233	14389
868.364	14343
868.495	14446
868.625	14610
868.756	14674
868.886	14514
869.017	14511
869.147	14686
869.278	14712
869.408	14625
869.539	14625
869.669	14613
869.799	14549
869.929	14705
870.06	14754
870.19	14937
870.32	14857
870.45	14906
870.58	14960
870.71	15097
870.84	15112
870.97	14979
871.1	14902
871.23	15180
871.36	15138
871.489	15077
871.619	15138
871.749	15173
871.879	15184
872.008	15351
872.138	15135
872.267	15207
872.397	15039
872.526	14998
872.656	15066
872.785	15017
872.915	15222
873.044	15344
873.173	15184
873.303	15203
873.432	15245
873.561	15218
873.69	15249
873.819	15249
873.948	15272
874.077	15279
874.206	15252
874.335	15313
874.464	15325
874.593	15447
874.722	15420
874.851	15705
874.979	15637
875.108	15606
875.237	15507
875.365	15500
875.494	15622
875.623	15591
875.751	15572
875.88	15526
876.008	15842
876.136	15713
876.265	15960
876.393	16177
876.521	16067
876.65	16006
876.778	16006
876.906	15937
877.034	15922
877.162	15979
877.29	15937
877.418	15960
877.546	15918
877.674	15842
877.802	15998
877.93	15968
878.058	15850
878.185	15880
878.313	15972
878.441	15926
878.568	15728
878.696	15911
878.824	15930
878.951	16029
879.079	16249
879.206	16344
879.333	16215
879.461	16131
879.588	16280
879.715	16310
879.842	16402
879.97	16101
880.097	15918
880.224	15854
880.351	15819
880.478	15869
880.605	15865
880.732	15884
880.859	16021
880.986	15964
881.112	15888
881.239	15793
881.366	15648
881.493	15538
881.619	15488
881.746	15458
881.872	15545
881.999	15488
882.125	15428
882.252	15538
882.378	15504
882.505	15584
882.631	15397
882.757	15363
882.883	15401
883.01	15412
883.136	15287
883.262	15176
883.388	15150
883.514	15374
883.64	15382
883.766	15226
883.892	15135
884.018	15081
884.143	15386
884.269	15500
884.395	15188
884.52	15070
884.646	15070
884.772	15039
884.897	14933
885.023	15070
885.148	15131
885.274	15195
885.399	15150
885.524	15055
885.65	15097
885.775	15085
885.9	15081
886.025	15249
886.15	15142
886.275	15047
886.4	14956
886.525	15062
886.65	14982
886.775	14914
886.9	15176
887.025	15348
887.149	15051
887.274	14952
887.399	14819
887.523	14861
887.648	14807
887.773	14720
887.897	15055
888.021	14857
888.146	14845
888.27	14941
888.395	14914
888.519	14769
888.643	14864
888.767	14902
888.891	14838
889.015	14792
889.139	14853
889.263	14682
889.387	14929
889.511	14902
889.635	14929
889.759	14663
889.883	14735
890.006	14735
890.13	14807
890.254	14693
890.377	14659
890.501	14450
890.624	14541
890.748	14587
890.871	14396
890.995	14362
891.118	14355
891.241	14393
891.364	14454
891.488	14465
891.611	14457
891.734	14347
891.857	14511
891.98	14480
892.103	14473
892.226	14438
892.349	14476
892.471	14248
892.594	14370
892.717	14389
892.839	14400
892.962	14473
893.085	14450
893.207	14377
893.33	14278
893.452	14332
893.575	14480
893.697	14324
893.819	14556
893.941	14602
894.064	14511
894.186	14298
894.308	14400
894.43	14469
894.552	14621
894.674	14541
894.796	14366
894.918	14465
895.04	14450
895.161	14587
895.283	14518
895.405	14461
895.526	14442
895.648	14594
895.769	14590
895.891	14602
896.012	14640
896.134	14587
896.255	14640
896.376	14541
896.498	14503
896.619	14613
896.74	14549
896.861	14632
896.982	14887
897.103	15112
897.224	14899
897.345	14705
897.466	14826
897.587	14868
897.708	14918
897.828	14849
897.949	14785
898.07	14712
898.19	14792
898.311	14986
898.431	14811
898.552	14891
898.672	14963
898.792	15017
898.913	14880
899.033	14800
899.153	14826
899.273	14746
899.393	14697
899.513	14739
899.633	14739
899.753	14819
899.873	14735
899.993	14804
900.113	14769
900.232	14796
900.352	14804
900.472	14697
900.591	14636
900.711	14648
900.83	14533
900.95	14613
901.069	14731
901.189	14522
901.308	14366
901.427	14324
901.546	14362
901.665	14370
901.784	14393
901.904	14202
902.023	13986
902.141	13902
902.26	13894
902.379	13997
902.498	13833
902.617	13837
902.735	13883
902.854	13890
902.973	13845
903.091	13613
903.21	13597
903.328	13605
903.446	13495
903.565	13457
903.683	13483
903.801	13331
903.919	13384
904.038	13384
904.156	13202
904.274	13308
904.392	13304
904.51	13266
904.627	13255
904.745	13263
904.863	13266
904.981	12970
905.098	12890
905.216	12981
905.334	12966
905.451	12886
905.569	12951
905.686	12954
905.803	12932
905.921	12745
906.038	12783
906.155	12787
906.272	12673
906.389	12700
906.506	12589
906.623	12654
906.74	12448
906.857	12388
906.974	12452
907.091	12502
907.208	12582
907.324	12555
907.441	12456
907.557	12209
907.674	12163
907.79	12235
907.907	12171
908.023	12228
908.139	12254
908.256	12247
908.372	12197
908.488	12136
908.604	11980
908.72	11958
908.836	12015
908.952	11950
909.068	12045
909.184	12072
909.3	11901
909.415	12106
909.531	12064
909.647	11840
909.762	11767
909.878	11764
909.993	11824
910.108	11832
910.224	11695
910.339	11722
910.454	11684
910.57	11570
910.685	11589
910.8	11859
910.915	11786
911.03	11562
911.145	11440
911.259	11360
911.374	11444
911.489	11425
911.604	11425
911.718	11220
911.833	11193
911.947	11109
912.062	11143
912.176	11166
912.291	11193
912.405	11223
912.519	11452
912.633	11417
912.748	11242
912.862	11220
912.976	11162
913.09	10965
913.204	11064
913.318	11109
913.431	11132
913.545	11155
913.659	11258
913.772	11056
913.886	10987
914	11003
914.113	11071
914.226	11166
914.34	11029
914.453	10919
914.566	11014
914.68	10854
914.793	10930
914.906	10717
915.019	10733
915.132	10565
915.245	10710
915.358	10721
915.47	10668
915.583	10717
915.696	10778
915.809	10850
915.921	10858
916.034	10596
916.146	10637
916.259	10675
916.371	10740
916.483	10740
916.595	10584
916.708	10672
916.82	10653
916.932	10660
917.044	10637
917.156	10660
917.268	10478
917.38	10558
917.491	10500
917.603	10542
917.715	10599
917.826	10615
917.938	10402
918.049	10508
918.161	10531
918.272	10656
918.384	10656
918.495	10512
918.606	10421
918.717	10348
918.828	10459
918.939	10523
919.05	10333
919.161	10367
919.272	10181
919.383	10291
919.494	10474
919.604	10565
919.715	10405
919.826	10352
919.936	10386
920.047	10554
920.157	10413
920.267	10596
920.378	10402
920.488	10447
920.598	10615
920.708	10717
920.818	10668
920.928	10637
921.038	10725
921.148	10721
921.258	10371
921.368	10371
921.477	10249
921.587	10249
921.697	10150
921.806	10265
921.916	10181
922.025	10059
922.134	10040
922.244	9873
922.353	10021
922.462	9895
922.571	9812
922.68	9656
922.789	9584
922.898	9644
923.007	9682
923.116	9701
923.224	9656
923.333	9667
923.442	9523
923.55	9549
923.659	9519
923.767	9641
923.876	9561
923.984	9584
924.092	9523
924.201	9519
924.309	9564
924.417	9519
924.525	9435
924.633	9466
924.741	10413
924.849	9348
924.956	9481
925.064	9287
925.172	9260
925.279	9260
925.387	9302
925.494	9359
925.602	9424
925.709	9374
925.816	9233
925.924	9306
926.031	9420
926.138	9367
926.245	9291
926.352	9253
926.459	9408
926.566	9439
926.673	9287
926.779	9218
926.886	9138
926.993	9017
927.099	9020
927.206	8918
927.312	9009
927.419	9043
927.525	9070
927.631	9119
927.737	8906
927.843	8941
927.95	8861
928.056	8891
928.162	8952
928.267	8990
928.373	9564
928.479	9032
928.585	8766
928.69	8872
928.796	8960
928.901	8845
929.007	8750
929.112	8781
929.218	8800
929.323	8689
929.428	8746
929.533	8830
929.638	8587
929.743	8663
929.848	8769
929.953	8724
930.058	8667
930.163	8476
930.267	8499
930.372	8663
930.477	8408
930.581	8670
930.685	8606
930.79	8446
930.894	8473
930.998	8370
931.103	8636
931.207	8229
931.311	8164
931.415	8168
931.519	7921
931.623	7932
