Data from test_V78500241_1517.txt Node
Date: Fri Mar 25 14:44:16 CST 2022
User: usil
Spectrometer: V785-0024
Trigger mode: 0
Integration Time (sec): 4.000000E-1
Scans to average: 1
Nonlinearity correction enabled: false
Boxcar width: 0
Storing dark spectrum: false
XAxis mode: Wavelengths
Number of Pixels in Spectrum: 1024
>>>>>Begin Spectral Data<<<<<
801.071	22535
801.214	22299
801.356	22154
801.499	22002
801.641	21937
801.783	21869
801.926	21850
802.068	21705
802.211	21671
802.353	21534
802.496	21370
802.638	21298
802.78	21344
802.923	21252
803.065	21104
803.208	21230
803.35	21131
803.492	21245
803.635	21252
803.777	21154
803.919	21188
804.061	21454
804.204	21252
804.346	21093
804.488	20979
804.63	20998
804.773	20921
804.915	21131
805.057	21104
805.199	21032
805.341	21169
805.483	21199
805.626	21199
805.768	20925
805.91	21020
806.052	21150
806.194	20956
806.336	21275
806.478	21058
806.62	20929
806.762	21138
806.904	21272
807.046	21564
807.188	21469
807.33	21420
807.472	21545
807.614	21348
807.756	21370
807.898	21355
808.04	21195
808.182	21252
808.324	21363
808.465	21321
808.607	21519
808.749	21633
808.891	21838
809.033	21873
809.174	21701
809.316	21583
809.458	21629
809.6	21515
809.741	21717
809.883	21500
810.025	21694
810.166	21641
810.308	21686
810.45	21739
810.591	21485
810.733	21496
810.875	21359
811.016	21237
811.158	21112
811.299	21378
811.441	21355
811.582	21386
811.724	21252
811.865	21211
812.007	21165
812.148	21306
812.29	21150
812.431	21424
812.573	21530
812.714	21629
812.855	21679
812.997	21766
813.138	21838
813.279	21797
813.421	21789
813.562	21709
813.703	21447
813.845	21416
813.986	21184
814.127	20925
814.268	20834
814.41	20849
814.551	20823
814.692	20864
814.833	20746
814.974	20777
815.115	20857
815.256	20644
815.397	20667
815.539	20583
815.68	20514
815.821	20484
815.962	20541
816.103	20381
816.244	20362
816.385	20263
816.526	20225
816.666	20153
816.807	19959
816.948	20103
817.089	20103
817.23	19963
817.371	19890
817.512	19868
817.653	19959
817.793	19909
817.934	19928
818.075	20005
818.216	19902
818.356	19959
818.497	19750
818.638	19597
818.778	19753
818.919	19632
819.06	19731
819.2	19655
819.341	19807
819.481	19795
819.622	19967
819.762	20142
819.903	20050
820.043	20046
820.184	19921
820.324	19890
820.465	19894
820.605	19959
820.746	19864
820.886	19890
821.026	19818
821.167	19883
821.307	19856
821.447	19826
821.588	19803
821.728	19529
821.868	19457
822.008	19289
822.149	19259
822.289	19312
822.429	19072
822.569	18928
822.709	19103
822.849	18844
822.99	18844
823.13	18700
823.27	18711
823.41	18631
823.55	18540
823.69	18593
823.83	18608
823.97	18441
824.11	18380
824.25	18452
824.389	18388
824.529	18513
824.669	18414
824.809	18525
824.949	18467
825.089	18429
825.228	18441
825.368	18251
825.508	18281
825.648	18247
825.787	18273
825.927	18216
826.067	18121
826.206	18076
826.346	18155
826.485	18125
826.625	18121
826.765	18300
826.904	18232
827.044	17973
827.183	17904
827.323	17809
827.462	17908
827.601	17783
827.741	17741
827.88	17946
828.02	17722
828.159	17920
828.298	17836
828.437	17973
828.577	17783
828.716	18064
828.855	17764
828.994	17516
829.134	17573
829.273	17661
829.412	17551
829.551	17505
829.69	17577
829.829	17509
829.968	17661
830.107	17684
830.246	17627
830.385	17440
830.524	17558
830.663	17402
830.802	17273
830.941	17204
831.08	17185
831.219	17288
831.357	17261
831.496	17387
831.635	17239
831.774	17151
831.913	17014
832.051	16980
832.19	17029
832.329	17045
832.467	16866
832.606	16706
832.744	16824
832.883	16915
833.022	16828
833.16	16976
833.299	16953
833.437	16968
833.576	17022
833.714	16854
833.852	16923
833.991	17060
834.129	16987
834.267	17060
834.406	16957
834.544	16934
834.682	17090
834.821	16972
834.959	17090
835.097	16854
835.235	17048
835.373	17010
835.511	16968
835.65	16820
835.788	16816
835.926	16725
836.064	16618
836.202	16630
836.34	16725
836.478	16968
836.615	16869
836.753	16881
836.891	16873
837.029	16900
837.167	16835
837.305	16786
837.443	16752
837.58	16717
837.718	16672
837.856	16653
837.993	16683
838.131	16668
838.269	16478
838.406	16691
838.544	16603
838.681	16310
838.819	16436
838.956	16265
839.094	16143
839.231	16394
839.369	16436
839.506	16656
839.643	16466
839.781	16196
839.918	16230
840.055	16139
840.193	16246
840.33	16169
840.467	16211
840.604	16253
840.742	16421
840.879	16177
841.016	16112
841.153	16196
841.29	16341
841.427	16238
841.564	16185
841.701	16291
841.838	16097
841.975	16101
842.112	16188
842.249	16036
842.385	15964
842.522	16131
842.659	15987
842.796	15934
842.933	15991
843.069	15934
843.206	15926
843.343	16131
843.479	15979
843.616	16032
843.752	15797
843.889	15793
844.025	15960
844.162	15793
844.298	15907
844.435	15812
844.571	15694
844.708	15800
844.844	15937
844.98	15854
845.117	15922
845.253	15675
845.389	15751
845.525	15770
845.661	15770
845.798	15717
845.934	15854
846.07	15778
846.206	15819
846.342	15930
846.478	15705
846.614	15523
846.75	15332
846.886	15275
847.022	15511
847.158	15367
847.294	15477
847.429	15378
847.565	15458
847.701	15564
847.837	15058
847.972	15077
848.108	15199
848.244	15184
848.379	14982
848.515	14906
848.65	14857
848.786	14906
848.921	15013
849.057	14967
849.192	14941
849.328	14994
849.463	14887
849.598	14960
849.734	14823
849.869	14834
850.004	14826
850.14	14720
850.275	14750
850.41	14712
850.545	14663
850.68	14712
850.815	14705
850.95	14670
851.085	14842
851.22	14750
851.355	14716
851.49	14648
851.625	14716
851.76	14708
851.895	14644
852.03	14613
852.165	14708
852.299	14785
852.434	14754
852.569	14743
852.703	14807
852.838	14781
852.973	14788
853.107	14815
853.242	14682
853.376	14541
853.511	14492
853.645	14602
853.78	14689
853.914	14556
854.048	14598
854.183	14454
854.317	14636
854.451	14712
854.585	14522
854.72	14495
854.854	14735
854.988	14495
855.122	14461
855.256	14457
855.39	14522
855.524	14606
855.658	14708
855.792	14610
855.926	14625
856.06	14648
856.194	14689
856.327	14640
856.461	14625
856.595	14568
856.729	14499
856.862	14667
856.996	14674
857.13	14594
857.263	14659
857.397	14708
857.53	14556
857.664	14629
857.797	14674
857.931	14746
858.064	14644
858.197	14777
858.331	14530
858.464	14438
858.597	14450
858.731	14560
858.864	14659
858.997	14552
859.13	14564
859.263	14575
859.396	14689
859.529	14514
859.662	14511
859.795	14541
859.928	14644
860.061	14731
860.194	14834
860.327	14514
860.46	14590
860.592	14674
860.725	14678
860.858	14743
860.99	14556
861.123	14499
861.256	14552
861.388	14594
861.521	15195
861.653	14396
861.786	14389
861.918	14507
862.05	14545
862.183	14484
862.315	14579
862.447	14583
862.58	14507
862.712	14404
862.844	14290
862.976	14442
863.108	14347
863.24	14667
863.372	14248
863.504	14298
863.636	14351
863.768	14317
863.9	14278
864.032	14271
864.164	14298
864.296	14259
864.428	14438
864.559	14423
864.691	14400
864.823	14343
864.954	14362
865.086	14412
865.217	14225
865.349	14355
865.48	14355
865.612	14362
865.743	14446
865.875	14317
866.006	14199
866.137	14370
866.269	14473
866.4	14355
866.531	14294
866.662	14195
866.793	14282
866.924	14347
867.055	14324
867.186	14336
867.317	14278
867.448	14240
867.579	14221
867.71	14286
867.841	14286
867.972	14400
868.103	14358
868.233	14328
868.364	14301
868.495	14351
868.625	14438
868.756	14651
868.886	14514
869.017	14495
869.147	14720
869.278	14712
869.408	14526
869.539	14549
869.669	14613
869.799	14590
869.929	14693
870.06	14705
870.19	14921
870.32	14914
870.45	14895
870.58	15005
870.71	14887
870.84	15028
870.97	14986
871.1	14994
871.23	15119
871.36	15176
871.489	15013
871.619	15043
871.749	15135
871.879	15207
872.008	15306
872.138	15150
872.267	15211
872.397	15081
872.526	14971
872.656	15085
872.785	14986
872.915	15241
873.044	15294
873.173	15226
873.303	15157
873.432	15188
873.561	15283
873.69	15199
873.819	15268
873.948	15233
874.077	15199
874.206	15203
874.335	15142
874.464	15325
874.593	15572
874.722	15393
874.851	15477
874.979	15526
875.108	15625
875.237	15511
875.365	15431
875.494	15473
875.623	15576
875.751	15428
875.88	15545
876.008	15587
876.136	15793
876.265	15880
876.393	15991
876.521	16051
876.65	16029
876.778	15983
876.906	15888
877.034	15907
877.162	16010
877.29	15838
877.418	15979
877.546	15915
877.674	15888
877.802	15941
877.93	15960
878.058	15915
878.185	15850
878.313	15975
878.441	15994
878.568	15800
878.696	15922
878.824	15907
878.951	16090
879.079	16162
879.206	16284
879.333	16207
879.461	16109
879.588	16192
879.715	16128
879.842	16185
879.97	16055
880.097	15922
880.224	15774
880.351	15907
880.478	15823
880.605	15743
880.732	15770
880.859	16063
880.986	15755
881.112	15899
881.239	15656
881.366	15667
881.493	15504
881.619	15420
881.746	15473
881.872	15511
881.999	15412
882.125	15454
882.252	15584
882.378	15534
882.505	15606
882.631	15507
882.757	15207
882.883	15279
883.01	15310
883.136	15211
883.262	15222
883.388	15135
883.514	15279
883.64	15332
883.766	15192
883.892	15108
884.018	15127
884.143	15272
884.269	15367
884.395	14979
884.52	15036
884.646	14937
884.772	14937
884.897	14887
885.023	14967
885.148	15108
885.274	15116
885.399	15055
885.524	15051
885.65	14952
885.775	15028
885.9	14982
886.025	15055
886.15	15066
886.275	14986
886.4	14811
886.525	14956
886.65	14834
886.775	14941
886.9	15188
887.025	15154
887.149	14937
887.274	14773
887.399	14746
887.523	14765
887.648	14750
887.773	14659
887.897	14906
888.021	14895
888.146	14670
888.27	14918
888.395	14910
888.519	14880
888.643	14796
888.767	14872
888.891	14731
889.015	14632
889.139	14705
889.263	14655
889.387	14792
889.511	14811
889.635	14842
889.759	14625
889.883	14686
890.006	14735
890.13	14750
890.254	14602
890.377	14731
890.501	14408
890.624	14427
890.748	14488
890.871	14377
890.995	14298
891.118	14282
891.241	14374
891.364	14271
891.488	14480
891.611	14366
891.734	14317
891.857	14415
891.98	14431
892.103	14381
892.226	14377
892.349	14317
892.471	14168
892.594	14294
892.717	14370
892.839	14313
892.962	14298
893.085	14389
893.207	14339
893.33	14206
893.452	14294
893.575	14385
893.697	14339
893.819	14492
893.941	14560
894.064	14450
894.186	14294
894.308	14370
894.43	14473
894.552	14503
894.674	14434
894.796	14267
894.918	14351
895.04	14438
895.161	14556
895.283	14336
895.405	14358
895.526	14450
895.648	14366
895.769	14507
895.891	14450
896.012	14541
896.134	14598
896.255	14541
896.376	14404
896.498	14484
896.619	14552
896.74	14621
896.861	14610
896.982	14823
897.103	14933
897.224	14857
897.345	14773
897.466	14648
897.587	14804
897.708	14925
897.828	14838
897.949	14724
898.07	14636
898.19	14708
898.311	14895
898.431	14758
898.552	14792
898.672	14944
898.792	14941
898.913	14975
899.033	14864
899.153	14678
899.273	14636
899.393	14636
899.513	14678
899.633	14632
899.753	14819
899.873	14575
899.993	14765
900.113	14781
900.232	14769
900.352	14697
900.472	14682
900.591	14530
900.711	14613
900.83	14492
900.95	14602
901.069	14625
901.189	14419
901.308	14275
901.427	14183
901.546	14195
901.665	14233
901.784	14305
901.904	14161
902.023	14107
902.141	13871
902.26	13833
902.379	13841
902.498	13772
902.617	13674
902.735	13875
902.854	13750
902.973	13723
903.091	13571
903.21	13529
903.328	13441
903.446	13514
903.565	13388
903.683	13381
903.801	13301
903.919	13407
904.038	13369
904.156	13228
904.274	13255
904.392	13137
904.51	13187
904.627	13198
904.745	13251
904.863	13236
904.981	12989
905.098	12958
905.216	12977
905.334	12951
905.451	12897
905.569	12920
905.686	12932
905.803	12897
905.921	12639
906.038	12741
906.155	12681
906.272	12623
906.389	12681
906.506	12506
906.623	12433
906.74	12372
906.857	12388
906.974	12338
907.091	12502
907.208	12574
907.324	12475
907.441	12350
907.557	12205
907.674	12190
907.79	12030
907.907	12159
908.023	12159
908.139	12178
908.256	12133
908.372	12136
908.488	12175
908.604	12060
908.72	11927
908.836	11897
908.952	11931
909.068	11961
909.184	12011
909.3	11980
909.415	11984
909.531	11973
909.647	11737
909.762	11714
909.878	11726
909.993	11665
910.108	11646
910.224	11672
910.339	11649
910.454	11581
910.57	11608
910.685	11516
910.8	11745
910.915	11790
911.03	11627
911.145	11425
911.259	11463
911.374	11463
911.489	11334
911.604	11307
911.718	11258
911.833	11227
911.947	11105
912.062	11033
912.176	11170
912.291	11147
912.405	11109
912.519	11349
912.633	11398
912.748	11326
912.862	11174
912.976	11094
913.09	10980
913.204	10972
913.318	11113
913.431	11162
913.545	11155
913.659	11117
913.772	11022
913.886	10957
914	10946
914.113	11064
914.226	11094
914.34	11064
914.453	10915
914.566	11121
914.68	10850
914.793	10835
914.906	10683
915.019	10615
915.132	10531
915.245	10691
915.358	10683
915.47	10653
915.583	10725
915.696	10801
915.809	10896
915.921	10809
916.034	10668
916.146	10565
916.259	10618
916.371	10778
916.483	10641
916.595	10527
916.708	10577
916.82	10630
916.932	10615
917.044	10611
917.156	10588
917.268	10421
917.38	10443
917.491	10424
917.603	10485
917.715	10634
917.826	10580
917.938	10390
918.049	10318
918.161	10451
918.272	10592
918.384	10626
918.495	10497
918.606	10295
918.717	10272
918.828	10375
918.939	10375
919.05	10306
919.161	10413
919.272	10154
919.383	10200
919.494	10440
919.604	10615
919.715	10371
919.826	10303
919.936	10299
920.047	10421
920.157	10356
920.267	10542
920.378	10390
920.488	10402
920.598	10660
920.708	10691
920.818	10573
920.928	10546
921.038	10683
921.148	10698
921.258	10470
921.368	10299
921.477	10215
921.587	10181
921.697	10158
921.806	10246
921.916	10139
922.025	9945
922.134	10017
922.244	9857
922.353	9907
922.462	9831
922.571	9797
922.68	9633
922.789	9644
922.898	9694
923.007	9576
923.116	9587
923.224	9660
923.333	9595
923.442	9462
923.55	9496
923.659	9530
923.767	9603
923.876	9447
923.984	9610
924.092	9439
924.201	9523
924.309	9500
924.417	9557
924.525	9416
924.633	9500
924.741	10367
924.849	9275
924.956	9450
925.064	9199
925.172	9199
925.279	9154
925.387	9222
925.494	9279
925.602	9431
925.709	9348
925.816	9199
925.924	9245
926.031	9378
926.138	9279
926.245	9294
926.352	9249
926.459	9397
926.566	9401
926.673	9176
926.779	9135
926.886	9085
926.993	8994
927.099	8963
927.206	8925
927.312	8975
927.419	9001
927.525	8952
927.631	8944
927.737	8883
927.843	8853
927.95	8785
928.056	8766
928.162	8944
928.267	8891
928.373	9454
928.479	9013
928.585	8712
928.69	8792
928.796	8895
928.901	8815
929.007	8632
929.112	8777
929.218	8815
929.323	8773
929.428	8705
929.533	8857
929.638	8587
929.743	8743
929.848	8727
929.953	8682
930.058	8587
930.163	8469
930.267	8526
930.372	8636
930.477	8469
930.581	8724
930.685	8514
930.79	8366
930.894	8374
930.998	8408
931.103	8507
931.207	8221
931.311	8126
931.415	8035
931.519	7940
931.623	7887
