Data from test_V78500241_3078.txt Node
Date: Fri Mar 25 14:55:08 CST 2022
User: usil
Spectrometer: V785-0024
Trigger mode: 0
Integration Time (sec): 4.000000E-1
Scans to average: 1
Nonlinearity correction enabled: false
Boxcar width: 0
Storing dark spectrum: false
XAxis mode: Wavelengths
Number of Pixels in Spectrum: 1024
>>>>>Begin Spectral Data<<<<<
801.071	22063
801.214	21915
801.356	21789
801.499	21526
801.641	21389
801.783	21458
801.926	21450
802.068	21416
802.211	21359
802.353	21214
802.496	21077
802.638	20948
802.78	20979
802.923	20781
803.065	20701
803.208	20746
803.35	20720
803.492	20880
803.635	20887
803.777	20781
803.919	20921
804.061	21017
804.204	20765
804.346	20739
804.488	20708
804.63	20708
804.773	20549
804.915	20735
805.057	20800
805.199	20765
805.341	20743
805.483	20720
805.626	20678
805.768	20674
805.91	20632
806.052	20796
806.194	20617
806.336	20826
806.478	20724
806.62	20629
806.762	20701
806.904	20906
807.046	21085
807.188	20960
807.33	20971
807.472	20986
807.614	20929
807.756	21001
807.898	20963
808.04	20807
808.182	20735
808.324	20838
808.465	20838
808.607	20982
808.749	20986
808.891	21123
809.033	21226
809.174	21195
809.316	21020
809.458	21150
809.6	21036
809.741	21070
809.883	21116
810.025	21351
810.166	21157
810.308	21264
810.45	21146
810.591	21024
810.733	20975
810.875	20914
811.016	20735
811.158	20716
811.299	20834
811.441	20941
811.582	20872
811.724	20765
811.865	20815
812.007	20792
812.148	20845
812.29	20933
812.431	20883
812.573	21116
812.714	21218
812.855	21275
812.997	21340
813.138	21561
813.279	21412
813.421	21450
813.562	21291
813.703	21062
813.845	20986
813.986	20739
814.127	20621
814.268	20396
814.41	20415
814.551	20263
814.692	20499
814.833	20396
814.974	20396
815.115	20396
815.256	20161
815.397	20263
815.539	20084
815.68	20161
815.821	20168
815.962	20069
816.103	20115
816.244	19997
816.385	19841
816.526	19837
816.666	19685
816.807	19468
816.948	19666
817.089	19590
817.23	19571
817.371	19468
817.512	19453
817.653	19495
817.793	19365
817.934	19457
818.075	19518
818.216	19480
818.356	19483
818.497	19240
818.638	19225
818.778	19221
818.919	19213
819.06	19259
819.2	19346
819.341	19392
819.481	19339
819.622	19495
819.762	19662
819.903	19658
820.043	19537
820.184	19346
820.324	19438
820.465	19407
820.605	19506
820.746	19578
820.886	19228
821.026	19411
821.167	19453
821.307	19483
821.447	19434
821.588	19354
821.728	19297
821.868	19095
822.008	19023
822.149	18886
822.289	18894
822.429	18601
822.569	18551
822.709	18604
822.849	18452
822.99	18334
823.13	18353
823.27	18327
823.41	18205
823.55	18163
823.69	18228
823.83	18152
823.97	18102
824.11	17908
824.25	17870
824.389	17863
824.529	18007
824.669	18011
824.809	18011
824.949	17984
825.089	18011
825.228	17904
825.368	17748
825.508	17737
825.648	17646
825.787	17676
825.927	17733
826.067	17646
826.206	17714
826.346	17695
826.485	17657
826.625	17741
826.765	17813
826.904	17680
827.044	17440
827.183	17486
827.323	17452
827.462	17463
827.601	17337
827.741	17376
827.88	17433
828.02	17273
828.159	17417
828.298	17379
828.437	17429
828.577	17372
828.716	17592
828.855	17345
828.994	17181
829.134	17208
829.273	17181
829.412	17208
829.551	17064
829.69	17128
829.829	17250
829.968	17296
830.107	17143
830.246	17174
830.385	17128
830.524	17083
830.663	17075
830.802	16957
830.941	16786
831.08	16736
831.219	16828
831.357	16820
831.496	17052
831.635	16729
831.774	16729
831.913	16611
832.051	16531
832.19	16691
832.329	16691
832.467	16558
832.606	16417
832.744	16466
832.883	16512
833.022	16409
833.16	16516
833.299	16519
833.437	16504
833.576	16523
833.714	16538
833.852	16653
833.991	16554
834.129	16474
834.267	16668
834.406	16554
834.544	16615
834.682	16588
834.821	16489
834.959	16717
835.097	16466
835.235	16584
835.373	16584
835.511	16531
835.65	16466
835.788	16421
835.926	16299
836.064	16314
836.202	16322
836.34	16424
836.478	16611
836.615	16428
836.753	16443
836.891	16558
837.029	16443
837.167	16417
837.305	16421
837.443	16356
837.58	16341
837.718	16280
837.856	16291
837.993	16303
838.131	16371
838.269	16265
838.406	16329
838.544	16207
838.681	16055
838.819	16013
838.956	15903
839.094	15899
839.231	15816
839.369	15983
839.506	16131
839.643	16166
839.781	15831
839.918	15800
840.055	15869
840.193	15766
840.33	15846
840.467	15819
840.604	15846
840.742	16120
840.879	15766
841.016	15728
841.153	15739
841.29	15949
841.427	15816
841.564	15797
841.701	15888
841.838	15778
841.975	15755
842.112	15804
842.249	15629
842.385	15656
842.522	15915
842.659	15671
842.796	15618
842.933	15633
843.069	15519
843.206	15496
843.343	15736
843.479	15576
843.616	15656
843.752	15458
843.889	15420
844.025	15614
844.162	15382
844.298	15515
844.435	15389
844.571	15466
844.708	15492
844.844	15576
844.98	15557
845.117	15443
845.253	15344
845.389	15393
845.525	15340
845.661	15218
845.798	15176
845.934	15222
846.07	15176
846.206	15214
846.342	15249
846.478	15241
846.614	15024
846.75	14929
846.886	14956
847.022	15005
847.158	15066
847.294	15058
847.429	14933
847.565	14910
847.701	15199
847.837	14872
847.972	14640
848.108	14777
848.244	14720
848.379	14617
848.515	14507
848.65	14537
848.786	14564
848.921	14598
849.057	14686
849.192	14731
849.328	14731
849.463	14530
849.598	14511
849.734	14610
849.869	14450
850.004	14324
850.14	14393
850.275	14305
850.41	14244
850.545	14298
850.68	14355
850.815	14351
850.95	14370
851.085	14473
851.22	14419
851.355	14313
851.49	14282
851.625	14313
851.76	14324
851.895	14290
852.03	14248
852.165	14278
852.299	14374
852.434	14408
852.569	14313
852.703	14278
852.838	14362
852.973	14507
853.107	14476
853.242	14343
853.376	14305
853.511	14050
853.645	14202
853.78	14328
853.914	14176
854.048	14164
854.183	14073
854.317	14248
854.451	14351
854.585	14206
854.72	14252
854.854	14221
854.988	14092
855.122	14256
855.256	14107
855.39	14278
855.524	14233
855.658	14157
855.792	14301
855.926	14377
856.06	14221
856.194	14278
856.327	14199
856.461	14172
856.595	14248
856.729	14214
856.862	14336
856.996	14256
857.13	14347
857.263	14210
857.397	14210
857.53	14123
857.664	14309
857.797	14210
857.931	14339
858.064	14248
858.197	14214
858.331	14256
858.464	14202
858.597	14092
858.731	14123
858.864	14294
858.997	14225
859.13	14206
859.263	14240
859.396	14362
859.529	14210
859.662	14187
859.795	14153
859.928	14183
860.061	14343
860.194	14278
860.327	14240
860.46	14187
860.592	14336
860.725	14336
860.858	14294
860.99	14168
861.123	14191
861.256	14123
861.388	14130
861.521	14857
861.653	14115
861.786	14050
861.918	14145
862.05	14100
862.183	14183
862.315	14282
862.447	14286
862.58	14157
862.712	13902
862.844	13898
862.976	14058
863.108	13970
863.24	14286
863.372	13864
863.504	14016
863.636	14001
863.768	13993
863.9	13925
864.032	13913
864.164	13967
864.296	13997
864.428	14138
864.559	14084
864.691	14123
864.823	14054
864.954	14058
865.086	14115
865.217	13959
865.349	13906
865.48	13902
865.612	14031
865.743	14149
865.875	13902
866.006	13967
866.137	14012
866.269	13936
866.4	13955
866.531	13879
866.662	13890
866.793	13894
866.924	13944
867.055	13982
867.186	13913
867.317	13887
867.448	13898
867.579	13986
867.71	13807
867.841	13921
867.972	13936
868.103	13928
868.233	13978
868.364	13970
868.495	14069
868.625	14248
868.756	14290
868.886	14031
869.017	14195
869.147	14317
869.278	14290
869.408	14290
869.539	14214
869.669	14298
869.799	14256
869.929	14408
870.06	14309
870.19	14602
870.32	14530
870.45	14549
870.58	14606
870.71	14746
870.84	14648
870.97	14571
871.1	14610
871.23	14842
871.36	14811
871.489	14674
871.619	14819
871.749	14788
871.879	14845
872.008	14956
872.138	14876
872.267	14804
872.397	14659
872.526	14621
872.656	14617
872.785	14686
872.915	14826
873.044	14883
873.173	14815
873.303	14834
873.432	14872
873.561	14975
873.69	14883
873.819	14739
873.948	14967
874.077	14887
874.206	14815
874.335	14899
874.464	15024
874.593	15154
874.722	15077
874.851	15233
874.979	15241
875.108	15264
875.237	15146
875.365	15104
875.494	15146
875.623	15340
875.751	15127
875.88	15150
876.008	15294
876.136	15321
876.265	15618
876.393	15671
876.521	15622
876.65	15644
876.778	15610
876.906	15519
877.034	15572
877.162	15614
877.29	15549
877.418	15587
877.546	15492
877.674	15500
877.802	15599
877.93	15561
878.058	15557
878.185	15462
878.313	15568
878.441	15496
878.568	15393
878.696	15534
878.824	15576
878.951	15705
879.079	15808
879.206	15865
879.333	15873
879.461	15599
879.588	15660
879.715	15732
879.842	15835
879.97	15599
880.097	15458
880.224	15466
880.351	15462
880.478	15447
880.605	15401
880.732	15359
880.859	15759
880.986	15370
881.112	15447
881.239	15435
881.366	15313
881.493	15157
881.619	15150
881.746	15036
881.872	15131
881.999	15089
882.125	14990
882.252	15180
882.378	15089
882.505	15203
882.631	15085
882.757	14876
882.883	15032
883.01	14910
883.136	14800
883.262	14727
883.388	14754
883.514	14967
883.64	15009
883.766	14857
883.892	14655
884.018	14792
884.143	14880
884.269	15039
884.395	14583
884.52	14648
884.646	14670
884.772	14530
884.897	14476
885.023	14636
885.148	14663
885.274	14796
885.399	14777
885.524	14564
885.65	14648
885.775	14594
885.9	14610
886.025	14708
886.15	14686
886.275	14537
886.4	14499
886.525	14674
886.65	14568
886.775	14526
886.9	14705
887.025	14910
887.149	14674
887.274	14427
887.399	14465
887.523	14366
887.648	14374
887.773	14415
887.897	14511
888.021	14537
888.146	14415
888.27	14533
888.395	14514
888.519	14476
888.643	14560
888.767	14499
888.891	14374
889.015	14328
889.139	14370
889.263	14244
889.387	14415
889.511	14526
889.635	14446
889.759	14256
889.883	14259
890.006	14317
890.13	14461
890.254	14172
890.377	14248
890.501	14115
890.624	14096
890.748	14111
890.871	14126
890.995	14008
891.118	13932
891.241	14077
891.364	14027
891.488	14069
891.611	14005
891.734	14130
891.857	14191
891.98	13970
892.103	14092
892.226	14058
892.349	14046
892.471	13928
892.594	13936
892.717	14084
892.839	14073
892.962	13993
893.085	14176
893.207	13978
893.33	13902
893.452	13868
893.575	14103
893.697	13974
893.819	14142
893.941	14149
894.064	14149
894.186	13997
894.308	13917
894.43	14027
894.552	14218
894.674	14172
894.796	13959
894.918	14065
895.04	14050
895.161	14210
895.283	14157
895.405	14005
895.526	14180
895.648	14054
895.769	14214
895.891	14183
896.012	14309
896.134	14145
896.255	14324
896.376	14084
896.498	14244
896.619	14237
896.74	14191
896.861	14290
896.982	14480
897.103	14579
897.224	14537
897.345	14454
897.466	14469
897.587	14434
897.708	14625
897.828	14469
897.949	14381
898.07	14324
898.19	14549
898.311	14587
898.431	14492
898.552	14484
898.672	14632
898.792	14777
898.913	14621
899.033	14575
899.153	14427
899.273	14317
899.393	14469
899.513	14461
899.633	14461
899.753	14488
899.873	14305
899.993	14499
900.113	14400
900.232	14347
900.352	14343
900.472	14408
900.591	14225
900.711	14294
900.83	14206
900.95	14423
901.069	14377
901.189	14210
901.308	14107
901.427	13982
901.546	13925
901.665	13947
901.784	13963
901.904	13913
902.023	13814
902.141	13563
902.26	13460
902.379	13590
902.498	13540
902.617	13548
902.735	13548
902.854	13575
902.973	13438
903.091	13263
903.21	13316
903.328	13232
903.446	13084
903.565	13069
903.683	13046
903.801	13008
903.919	13061
904.038	13065
904.156	12962
904.274	12970
904.392	12871
904.51	12935
904.627	12897
904.745	12962
904.863	12973
904.981	12684
905.098	12646
905.216	12608
905.334	12635
905.451	12673
905.569	12509
905.686	12688
905.803	12540
905.921	12441
906.038	12566
906.155	12429
906.272	12285
906.389	12422
906.506	12216
906.623	12239
906.74	12292
906.857	12133
906.974	12079
907.091	12285
907.208	12380
907.324	12197
907.441	12213
907.557	11950
907.674	12030
907.79	11885
907.907	11874
908.023	12011
908.139	12034
908.256	11912
908.372	11927
908.488	11874
908.604	11756
908.72	11786
908.836	11714
908.952	11703
909.068	11668
909.184	11817
909.3	11684
909.415	11748
909.531	11726
909.647	11421
909.762	11471
909.878	11429
909.993	11482
910.108	11516
910.224	11455
910.339	11535
910.454	11406
910.57	11379
910.685	11280
910.8	11524
910.915	11512
911.03	11326
911.145	11227
911.259	11185
911.374	11242
911.489	11048
911.604	11128
911.718	10987
911.833	10953
911.947	10858
912.062	10748
912.176	10942
912.291	11010
912.405	10995
912.519	11086
912.633	11155
912.748	11067
912.862	10961
912.976	10835
913.09	10729
913.204	10820
913.318	10843
913.431	10938
913.545	10946
913.659	10942
913.772	10900
913.886	10698
914	10755
914.113	10759
914.226	10835
914.34	10771
914.453	10611
914.566	10763
914.68	10664
914.793	10622
914.906	10561
915.019	10523
915.132	10390
915.245	10485
915.358	10443
915.47	10417
915.583	10504
915.696	10580
915.809	10607
915.921	10622
916.034	10363
916.146	10470
916.259	10314
916.371	10500
916.483	10512
916.595	10417
916.708	10455
916.82	10379
916.932	10341
917.044	10371
917.156	10314
917.268	10314
917.38	10249
917.491	10196
917.603	10287
917.715	10367
917.826	10440
917.938	10207
918.049	10181
918.161	10295
918.272	10462
918.384	10462
918.495	10329
918.606	10128
918.717	10082
918.828	10173
918.939	10196
919.05	10124
919.161	10093
919.272	9934
919.383	10055
919.494	10131
919.604	10424
919.715	10185
919.826	10135
919.936	10086
920.047	10223
920.157	10173
920.267	10459
920.378	10227
920.488	10192
920.598	10382
920.708	10497
920.818	10390
920.928	10428
921.038	10603
921.148	10500
921.258	10265
921.368	10196
921.477	10131
921.587	10029
921.697	9907
921.806	10036
921.916	9922
922.025	9778
922.134	9762
922.244	9652
922.353	9770
922.462	9671
922.571	9557
922.68	9424
922.789	9382
922.898	9504
923.007	9397
923.116	9534
923.224	9458
923.333	9405
923.442	9321
923.55	9325
923.659	9359
923.767	9439
923.876	9302
923.984	9367
924.092	9321
924.201	9275
924.309	9291
924.417	9317
924.525	9260
924.633	9359
924.741	10223
924.849	9028
924.956	9268
925.064	9154
925.172	8994
925.279	9066
925.387	9116
925.494	9157
925.602	9214
925.709	9138
925.816	8921
925.924	9173
926.031	9218
926.138	9085
926.245	9097
926.352	9062
926.459	9180
926.566	9211
926.673	9028
926.779	8944
926.886	8933
926.993	8857
927.099	8845
927.206	8830
927.312	8826
927.419	8872
927.525	8868
927.631	8902
927.737	8735
927.843	8701
927.95	8583
928.056	8743
928.162	8731
928.267	8845
928.373	9253
928.479	8781
928.585	8511
928.69	8682
928.796	8743
928.901	8579
929.007	8514
929.112	8590
929.218	8613
929.323	8514
929.428	8484
929.533	8689
929.638	8488
929.743	8476
929.848	8549
929.953	8507
930.058	8450
930.163	8267
930.267	8336
930.372	8465
930.477	8271
930.581	8454
930.685	8434
930.79	8229
930.894	8320
930.998	8237
931.103	8358
931.207	8058
931.311	7974
931.415	7890
931.519	7753
931.623	7734
