Data from test_V78500241_2143.txt Node
Date: Fri Mar 25 14:48:38 CST 2022
User: usil
Spectrometer: V785-0024
Trigger mode: 0
Integration Time (sec): 4.000000E-1
Scans to average: 1
Nonlinearity correction enabled: false
Boxcar width: 0
Storing dark spectrum: false
XAxis mode: Wavelengths
Number of Pixels in Spectrum: 1024
>>>>>Begin Spectral Data<<<<<
801.071	22185
801.214	22112
801.356	21899
801.499	21686
801.641	21606
801.783	21587
801.926	21561
802.068	21485
802.211	21530
802.353	21408
802.496	21100
802.638	21127
802.78	20986
802.923	20933
803.065	20910
803.208	20811
803.35	21009
803.492	21051
803.635	21047
803.777	20986
803.919	21001
804.061	21317
804.204	20979
804.346	20773
804.488	20663
804.63	20785
804.773	20731
804.915	20712
805.057	20895
805.199	20819
805.341	20906
805.483	20891
805.626	20872
805.768	20708
805.91	20815
806.052	20788
806.194	20731
806.336	20933
806.478	20720
806.62	20853
806.762	20785
806.904	21047
807.046	21344
807.188	21173
807.33	21195
807.472	21207
807.614	21233
807.756	21024
807.898	20891
808.04	20902
808.182	20967
808.324	20902
808.465	21066
808.607	21089
808.749	21192
808.891	21313
809.033	21389
809.174	21226
809.316	21161
809.458	21077
809.6	21203
809.741	21321
809.883	21382
810.025	21382
810.166	21428
810.308	21408
810.45	21386
810.591	21249
810.733	21089
810.875	21104
811.016	20868
811.158	20845
811.299	20918
811.441	21165
811.582	21039
811.724	20979
811.865	20994
812.007	20910
812.148	20883
812.29	21055
812.431	21226
812.573	21256
812.714	21370
812.855	21439
812.997	21507
813.138	21736
813.279	21629
813.421	21576
813.562	21378
813.703	21298
813.845	21157
813.986	20765
814.127	20819
814.268	20667
814.41	20636
814.551	20590
814.692	20518
814.833	20511
814.974	20495
815.115	20560
815.256	20442
815.397	20423
815.539	20385
815.68	20278
815.821	20202
815.962	20282
816.103	20233
816.244	20122
816.385	19989
816.526	19951
816.666	19986
816.807	19681
816.948	19719
817.089	19788
817.23	19700
817.371	19708
817.512	19750
817.653	19670
817.793	19670
817.934	19772
818.075	19658
818.216	19662
818.356	19704
818.497	19491
818.638	19362
818.778	19396
818.919	19339
819.06	19289
819.2	19521
819.341	19533
819.481	19483
819.622	19651
819.762	19894
819.903	19791
820.043	19643
820.184	19582
820.324	19632
820.465	19715
820.605	19540
820.746	19723
820.886	19487
821.026	19731
821.167	19537
821.307	19552
821.447	19662
821.588	19487
821.728	19331
821.868	19194
822.008	19057
822.149	19050
822.289	18962
822.429	18730
822.569	18821
822.709	18772
822.849	18582
822.99	18669
823.13	18555
823.27	18559
823.41	18338
823.55	18376
823.69	18247
823.83	18350
823.97	18361
824.11	18144
824.25	18201
824.389	18163
824.529	18144
824.669	18205
824.809	18334
824.949	18300
825.089	18186
825.228	18110
825.368	18068
825.508	17908
825.648	17958
825.787	17973
825.927	17977
826.067	17832
826.206	17809
826.346	17889
826.485	17840
826.625	17893
826.765	17912
826.904	17916
827.044	17642
827.183	17577
827.323	17573
827.462	17581
827.601	17611
827.741	17684
827.88	17524
828.02	17463
828.159	17459
828.298	17585
828.437	17680
828.577	17592
828.716	17726
828.855	17573
828.994	17277
829.134	17345
829.273	17303
829.412	17368
829.551	17258
829.69	17307
829.829	17353
829.968	17410
830.107	17337
830.246	17341
830.385	17376
830.524	17242
830.663	17193
830.802	17071
830.941	16942
831.08	16915
831.219	17048
831.357	17086
831.496	17208
831.635	17071
831.774	16862
831.913	16850
832.051	16713
832.19	16733
832.329	16733
832.467	16641
832.606	16668
832.744	16569
832.883	16645
833.022	16519
833.16	16713
833.299	16675
833.437	16588
833.576	16694
833.714	16706
833.852	16752
833.991	16683
834.129	16687
834.267	16797
834.406	16736
834.544	16706
834.682	16729
834.821	16630
834.959	16820
835.097	16656
835.235	16812
835.373	16713
835.511	16717
835.65	16558
835.788	16607
835.926	16455
836.064	16352
836.202	16421
836.34	16630
836.478	16733
836.615	16497
836.753	16660
836.891	16721
837.029	16554
837.167	16580
837.305	16504
837.443	16440
837.58	16470
837.718	16580
837.856	16424
837.993	16379
838.131	16478
838.269	16390
838.406	16386
838.544	16268
838.681	16234
838.819	16090
838.956	16032
839.094	16090
839.231	16040
839.369	16158
839.506	16436
839.643	16249
839.781	16074
839.918	16067
840.055	16021
840.193	16006
840.33	15998
840.467	15983
840.604	16032
840.742	16310
840.879	15934
841.016	16040
841.153	15876
841.29	16078
841.427	16002
841.564	16048
841.701	16036
841.838	15934
841.975	15975
842.112	15953
842.249	15797
842.385	15732
842.522	15934
842.659	15823
842.796	15800
842.933	15816
843.069	15709
843.206	15679
843.343	15869
843.479	15781
843.616	15793
843.752	15595
843.889	15530
844.025	15774
844.162	15603
844.298	15694
844.435	15530
844.571	15500
844.708	15690
844.844	15751
844.98	15648
845.117	15778
845.253	15610
845.389	15492
845.525	15504
845.661	15458
845.798	15260
845.934	15397
846.07	15317
846.206	15431
846.342	15587
846.478	15462
846.614	15180
846.75	15131
846.886	15077
847.022	15211
847.158	15138
847.294	15188
847.429	15142
847.565	15176
847.701	15389
847.837	14982
847.972	14834
848.108	14941
848.244	14979
848.379	14842
848.515	14788
848.65	14648
848.786	14712
848.921	14716
849.057	14834
849.192	14952
849.328	14788
849.463	14777
849.598	14731
849.734	14708
849.869	14651
850.004	14606
850.14	14636
850.275	14568
850.41	14457
850.545	14434
850.68	14442
850.815	14568
850.95	14518
851.085	14636
851.22	14632
851.355	14503
851.49	14465
851.625	14476
851.76	14404
851.895	14442
852.03	14461
852.165	14461
852.299	14511
852.434	14674
852.569	14613
852.703	14571
852.838	14511
852.973	14663
853.107	14629
853.242	14454
853.376	14446
853.511	14282
853.645	14355
853.78	14514
853.914	14480
854.048	14374
854.183	14248
854.317	14400
854.451	14503
854.585	14404
854.72	14381
854.854	14423
854.988	14229
855.122	14404
855.256	14256
855.39	14355
855.524	14446
855.658	14454
855.792	14252
855.926	14476
856.06	14484
856.194	14511
856.327	14328
856.461	14286
856.595	14366
856.729	14294
856.862	14568
856.996	14412
857.13	14457
857.263	14488
857.397	14511
857.53	14370
857.664	14434
857.797	14461
857.931	14476
858.064	14465
858.197	14495
858.331	14374
858.464	14309
858.597	14256
858.731	14442
858.864	14355
858.997	14263
859.13	14412
859.263	14427
859.396	14393
859.529	14374
859.662	14324
859.795	14332
859.928	14442
860.061	14454
860.194	14655
860.327	14400
860.46	14396
860.592	14503
860.725	14530
860.858	14419
860.99	14419
861.123	14336
861.256	14256
861.388	14313
861.521	15020
861.653	14214
861.786	14126
861.918	14092
862.05	14240
862.183	14374
862.315	14347
862.447	14389
862.58	14336
862.712	14149
862.844	14123
862.976	14218
863.108	14172
863.24	14526
863.372	14088
863.504	14180
863.636	14142
863.768	14183
863.9	14161
864.032	14069
864.164	14103
864.296	14176
864.428	14164
864.559	14252
864.691	14107
864.823	14225
864.954	14248
865.086	14233
865.217	14233
865.349	14103
865.48	14130
865.612	14123
865.743	14286
865.875	14145
866.006	14054
866.137	14252
866.269	14145
866.4	14221
866.531	14153
866.662	14069
866.793	14115
866.924	14107
867.055	14161
867.186	14073
867.317	14005
867.448	13974
867.579	14077
867.71	14046
867.841	14111
867.972	14084
868.103	14191
868.233	14161
868.364	14134
868.495	14225
868.625	14412
868.756	14518
868.886	14355
869.017	14278
869.147	14503
869.278	14556
869.408	14396
869.539	14408
869.669	14415
869.799	14419
869.929	14560
870.06	14598
870.19	14705
870.32	14716
870.45	14762
870.58	14845
870.71	14975
870.84	14914
870.97	14845
871.1	14750
871.23	14971
871.36	14990
871.489	14979
871.619	14891
871.749	14990
871.879	15013
872.008	15142
872.138	15013
872.267	14998
872.397	14758
872.526	14853
872.656	14876
872.785	14781
872.915	15081
873.044	15077
873.173	15039
873.303	15055
873.432	15081
873.561	15127
873.69	15024
873.819	15013
873.948	15097
874.077	15055
874.206	15085
874.335	15020
874.464	15165
874.593	15344
874.722	15287
874.851	15245
874.979	15363
875.108	15416
875.237	15287
875.365	15287
875.494	15340
875.623	15462
875.751	15249
875.88	15428
876.008	15458
876.136	15572
876.265	15823
876.393	15968
876.521	16013
876.65	15819
876.778	15701
876.906	15747
877.034	15690
877.162	15728
877.29	15595
877.418	15827
877.546	15747
877.674	15778
877.802	15789
877.93	15831
878.058	15709
878.185	15625
878.313	15739
878.441	15759
878.568	15603
878.696	15656
878.824	15804
878.951	15850
879.079	16025
879.206	16040
879.333	15907
879.461	15778
879.588	15804
879.715	15994
879.842	16135
879.97	15937
880.097	15675
880.224	15557
880.351	15747
880.478	15591
880.605	15603
880.732	15603
880.859	15937
880.986	15671
881.112	15682
881.239	15526
881.366	15428
881.493	15249
881.619	15325
881.746	15272
881.872	15272
881.999	15188
882.125	15249
882.252	15450
882.378	15367
882.505	15420
882.631	15256
882.757	15135
882.883	15127
883.01	15157
883.136	14952
883.262	15024
883.388	14887
883.514	15112
883.64	15138
883.766	14921
883.892	14944
884.018	14933
884.143	15036
884.269	15211
884.395	14838
884.52	14781
884.646	14804
884.772	14823
884.897	14720
885.023	14758
885.148	14823
885.274	14960
885.399	14941
885.524	14731
885.65	14746
885.775	14815
885.9	14655
886.025	14998
886.15	14872
886.275	14743
886.4	14724
886.525	14792
886.65	14777
886.775	14712
886.9	14857
887.025	15066
887.149	14746
887.274	14720
887.399	14590
887.523	14678
887.648	14526
887.773	14568
887.897	14826
888.021	14651
888.146	14507
888.27	14754
888.395	14754
888.519	14655
888.643	14743
888.767	14735
888.891	14537
889.015	14511
889.139	14552
889.263	14469
889.387	14693
889.511	14648
889.635	14693
889.759	14495
889.883	14575
890.006	14556
890.13	14579
890.254	14374
890.377	14374
890.501	14347
890.624	14343
890.748	14351
890.871	14145
890.995	14119
891.118	14210
891.241	14248
891.364	14111
891.488	14324
891.611	14172
891.734	14259
891.857	14294
891.98	14256
892.103	14161
892.226	14317
892.349	14195
892.471	14058
892.594	14199
892.717	14153
892.839	14191
892.962	14153
893.085	14157
893.207	14161
893.33	14024
893.452	14161
893.575	14259
893.697	14199
893.819	14339
893.941	14400
894.064	14332
894.186	14119
894.308	14069
894.43	14252
894.552	14404
894.674	14358
894.796	14187
894.918	14214
895.04	14206
895.161	14355
895.283	14248
895.405	14221
895.526	14309
895.648	14358
895.769	14298
895.891	14298
896.012	14400
896.134	14488
896.255	14358
896.376	14336
896.498	14362
896.619	14469
896.74	14446
896.861	14442
896.982	14632
897.103	14781
897.224	14610
897.345	14590
897.466	14583
897.587	14644
897.708	14804
897.828	14708
897.949	14549
898.07	14454
898.19	14674
898.311	14773
898.431	14712
898.552	14716
898.672	14804
898.792	14735
898.913	14796
899.033	14777
899.153	14549
899.273	14457
899.393	14503
899.513	14530
899.633	14514
899.753	14602
899.873	14549
899.993	14571
900.113	14537
900.232	14606
900.352	14602
900.472	14488
900.591	14499
900.711	14336
900.83	14476
900.95	14526
901.069	14545
901.189	14408
901.308	14256
901.427	14092
901.546	14077
901.665	14100
901.784	14202
901.904	14058
902.023	13940
902.141	13780
902.26	13624
902.379	13791
902.498	13594
902.617	13696
902.735	13719
902.854	13715
902.973	13556
903.091	13350
903.21	13430
903.328	13316
903.446	13369
903.565	13236
903.683	13327
903.801	13194
903.919	13240
904.038	13183
904.156	12958
904.274	13095
904.392	13027
904.51	13042
904.627	13031
904.745	13057
904.863	13129
904.981	12913
905.098	12745
905.216	12749
905.334	12783
905.451	12700
905.569	12711
905.686	12760
905.803	12684
905.921	12559
906.038	12623
906.155	12559
906.272	12494
906.389	12452
906.506	12308
906.623	12346
906.74	12289
906.857	12262
906.974	12262
907.091	12353
907.208	12498
907.324	12300
907.441	12304
907.557	11992
907.674	12098
907.79	12068
907.907	12011
908.023	12114
908.139	12057
908.256	11942
908.372	12015
908.488	11950
908.604	11828
908.72	11798
908.836	11783
908.952	11809
909.068	11855
909.184	12007
909.3	11946
909.415	11866
909.531	11893
909.647	11585
909.762	11551
909.878	11596
909.993	11589
910.108	11589
910.224	11608
910.339	11615
910.454	11524
910.57	11478
910.685	11421
910.8	11676
910.915	11547
911.03	11509
911.145	11277
911.259	11265
911.374	11307
911.489	11155
911.604	11166
911.718	11041
911.833	11014
911.947	10911
912.062	10911
912.176	10976
912.291	11094
912.405	11033
912.519	11254
912.633	11273
912.748	11090
912.862	11109
912.976	10968
913.09	10877
913.204	10816
913.318	10900
913.431	11010
913.545	11037
913.659	11109
913.772	10991
913.886	10752
914	10831
914.113	10812
914.226	10911
914.34	10927
914.453	10755
914.566	10942
914.68	10816
914.793	10748
914.906	10569
915.019	10527
915.132	10413
915.245	10641
915.358	10599
915.47	10512
915.583	10615
915.696	10740
915.809	10645
915.921	10694
916.034	10519
916.146	10523
916.259	10466
916.371	10607
916.483	10523
916.595	10516
916.708	10466
916.82	10485
916.932	10402
917.044	10512
917.156	10523
917.268	10348
917.38	10329
917.491	10367
917.603	10382
917.715	10485
917.826	10451
917.938	10402
918.049	10318
918.161	10405
918.272	10588
918.384	10459
918.495	10379
918.606	10276
918.717	10173
918.828	10306
918.939	10337
919.05	10230
919.161	10242
919.272	10071
919.383	10139
919.494	10310
919.604	10512
919.715	10265
919.826	10150
919.936	10211
920.047	10341
920.157	10295
920.267	10489
920.378	10257
920.488	10299
920.598	10508
920.708	10611
920.818	10508
920.928	10516
921.038	10653
921.148	10645
921.258	10322
921.368	10268
921.477	10177
921.587	10082
921.697	10109
921.806	10147
921.916	10067
922.025	9941
922.134	9880
922.244	9819
922.353	9865
922.462	9705
922.571	9644
922.68	9477
922.789	9530
922.898	9580
923.007	9526
923.116	9538
923.224	9534
923.333	9488
923.442	9466
923.55	9500
923.659	9458
923.767	9469
923.876	9412
923.984	9564
924.092	9310
924.201	9370
924.309	9389
924.417	9344
924.525	9294
924.633	9351
924.741	10207
924.849	9176
924.956	9279
925.064	9138
925.172	9131
925.279	9169
925.387	9199
925.494	9199
925.602	9370
925.709	9298
925.816	9150
925.924	9108
926.031	9249
926.138	9188
926.245	9222
926.352	9089
926.459	9237
926.566	9272
926.673	9173
926.779	9154
926.886	9020
926.993	8967
927.099	8921
927.206	8861
927.312	8872
927.419	8986
927.525	8880
927.631	8857
927.737	8838
927.843	8754
927.95	8708
928.056	8754
928.162	8762
928.267	8861
928.373	9340
928.479	8895
928.585	8587
928.69	8758
928.796	8830
928.901	8697
929.007	8526
929.112	8720
929.218	8651
929.323	8613
929.428	8667
929.533	8655
929.638	8583
929.743	8610
929.848	8644
929.953	8598
930.058	8537
930.163	8366
930.267	8343
930.372	8522
930.477	8347
930.581	8549
930.685	8446
930.79	8290
930.894	8400
930.998	8324
931.103	8469
931.207	8153
931.311	8092
931.415	8020
931.519	7784
931.623	7788
