Data from test_V78500241_2195.txt Node
Date: Fri Mar 25 14:48:59 CST 2022
User: usil
Spectrometer: V785-0024
Trigger mode: 0
Integration Time (sec): 4.000000E-1
Scans to average: 1
Nonlinearity correction enabled: false
Boxcar width: 0
Storing dark spectrum: false
XAxis mode: Wavelengths
Number of Pixels in Spectrum: 1024
>>>>>Begin Spectral Data<<<<<
801.071	22192
801.214	21994
801.356	21823
801.499	21606
801.641	21606
801.783	21473
801.926	21542
802.068	21386
802.211	21329
802.353	21226
802.496	20994
802.638	20956
802.78	20975
802.923	20899
803.065	20899
803.208	20758
803.35	20823
803.492	20880
803.635	21017
803.777	20914
803.919	20895
804.061	21192
804.204	20948
804.346	20868
804.488	20773
804.63	20785
804.773	20701
804.915	20876
805.057	20963
805.199	20663
805.341	20773
805.483	20948
805.626	20887
805.768	20716
805.91	20807
806.052	20781
806.194	20765
806.336	20895
806.478	20705
806.62	20781
806.762	20872
806.904	21081
807.046	21256
807.188	20948
807.33	21028
807.472	21230
807.614	21039
807.756	21036
807.898	20921
808.04	20857
808.182	20864
808.324	20971
808.465	20857
808.607	21074
808.749	21211
808.891	21199
809.033	21313
809.174	21279
809.316	21104
809.458	21211
809.6	21104
809.741	21184
809.883	21252
810.025	21367
810.166	21359
810.308	21252
810.45	21321
810.591	21096
810.733	21135
810.875	20910
811.016	20724
811.158	20823
811.299	20975
811.441	21104
811.582	21032
811.724	20944
811.865	20819
812.007	20883
812.148	20861
812.29	20975
812.431	21116
812.573	21211
812.714	21317
812.855	21469
812.997	21458
813.138	21542
813.279	21473
813.421	21420
813.562	21310
813.703	21123
813.845	21127
813.986	20781
814.127	20655
814.268	20598
814.41	20514
814.551	20492
814.692	20492
814.833	20370
814.974	20442
815.115	20450
815.256	20282
815.397	20305
815.539	20191
815.68	20180
815.821	20149
815.962	20122
816.103	20134
816.244	20024
816.385	20039
816.526	20054
816.666	19666
816.807	19727
816.948	19708
817.089	19871
817.23	19712
817.371	19723
817.512	19689
817.653	19616
817.793	19529
817.934	19662
818.075	19616
818.216	19582
818.356	19590
818.497	19426
818.638	19206
818.778	19312
818.919	19175
819.06	19346
819.2	19388
819.341	19544
819.481	19362
819.622	19563
819.762	19723
819.903	19765
820.043	19704
820.184	19597
820.324	19518
820.465	19567
820.605	19586
820.746	19590
820.886	19506
821.026	19597
821.167	19487
821.307	19643
821.447	19613
821.588	19415
821.728	19282
821.868	19122
822.008	19012
822.149	18939
822.289	18981
822.429	18745
822.569	18700
822.709	18639
822.849	18475
822.99	18498
823.13	18498
823.27	18437
823.41	18323
823.55	18190
823.69	18190
823.83	18304
823.97	18213
824.11	18022
824.25	17935
824.389	18091
824.529	18129
824.669	18030
824.809	18121
824.949	18163
825.089	18034
825.228	18102
825.368	17965
825.508	17912
825.648	17863
825.787	17885
825.927	17889
826.067	17767
826.206	17748
826.346	17855
826.485	17828
826.625	17722
826.765	17946
826.904	17821
827.044	17615
827.183	17653
827.323	17532
827.462	17570
827.601	17551
827.741	17448
827.88	17562
828.02	17334
828.159	17543
828.298	17592
828.437	17684
828.577	17444
828.716	17653
828.855	17501
828.994	17326
829.134	17356
829.273	17337
829.412	17212
829.551	17250
829.69	17212
829.829	17349
829.968	17395
830.107	17353
830.246	17242
830.385	17223
830.524	17155
830.663	17102
830.802	17010
830.941	16866
831.08	16805
831.219	16908
831.357	16961
831.496	17048
831.635	16790
831.774	16778
831.913	16778
832.051	16622
832.19	16702
832.329	16763
832.467	16519
832.606	16592
832.744	16580
832.883	16516
833.022	16512
833.16	16645
833.299	16618
833.437	16653
833.576	16550
833.714	16649
833.852	16634
833.991	16717
834.129	16744
834.267	16634
834.406	16702
834.544	16664
834.682	16637
834.821	16687
834.959	16752
835.097	16542
835.235	16763
835.373	16493
835.511	16634
835.65	16622
835.788	16550
835.926	16318
836.064	16284
836.202	16478
836.34	16538
836.478	16550
836.615	16516
836.753	16519
836.891	16592
837.029	16664
837.167	16493
837.305	16405
837.443	16432
837.58	16287
837.718	16379
837.856	16447
837.993	16409
838.131	16337
838.269	16295
838.406	16386
838.544	16120
838.681	16112
838.819	16105
838.956	15854
839.094	15964
839.231	16029
839.369	16101
839.506	16322
839.643	16139
839.781	15884
839.918	15903
840.055	15907
840.193	15918
840.33	15907
840.467	15857
840.604	15922
840.742	16188
840.879	15808
841.016	15873
841.153	15930
841.29	16017
841.427	15915
841.564	15922
841.701	16025
841.838	15880
841.975	15854
842.112	15857
842.249	15778
842.385	15690
842.522	15861
842.659	15865
842.796	15705
842.933	15682
843.069	15625
843.206	15625
843.343	15781
843.479	15766
843.616	15698
843.752	15458
843.889	15572
844.025	15606
844.162	15466
844.298	15614
844.435	15526
844.571	15519
844.708	15576
844.844	15785
844.98	15633
845.117	15644
845.253	15469
845.389	15378
845.525	15500
845.661	15435
845.798	15264
845.934	15275
846.07	15256
846.206	15317
846.342	15443
846.478	15329
846.614	15138
846.75	14891
846.886	15047
847.022	15222
847.158	15051
847.294	15112
847.429	15070
847.565	14963
847.701	15310
847.837	14876
847.972	14796
848.108	14861
848.244	14823
848.379	14785
848.515	14705
848.65	14610
848.786	14712
848.921	14670
849.057	14781
849.192	14838
849.328	14667
849.463	14716
849.598	14602
849.734	14667
849.869	14545
850.004	14495
850.14	14446
850.275	14469
850.41	14355
850.545	14366
850.68	14454
850.815	14476
850.95	14457
851.085	14594
851.22	14571
851.355	14480
851.49	14377
851.625	14358
851.76	14362
851.895	14396
852.03	14214
852.165	14514
852.299	14457
852.434	14598
852.569	14412
852.703	14385
852.838	14552
852.973	14602
853.107	14469
853.242	14385
853.376	14298
853.511	14233
853.645	14240
853.78	14446
853.914	14313
854.048	14229
854.183	14267
854.317	14362
854.451	14358
854.585	14362
854.72	14278
854.854	14324
854.988	14248
855.122	14206
855.256	14195
855.39	14237
855.524	14298
855.658	14465
855.792	14282
855.926	14282
856.06	14389
856.194	14488
856.327	14271
856.461	14275
856.595	14339
856.729	14290
856.862	14434
856.996	14278
857.13	14377
857.263	14434
857.397	14358
857.53	14336
857.664	14317
857.797	14454
857.931	14355
858.064	14374
858.197	14454
858.331	14309
858.464	14244
858.597	14187
858.731	14362
858.864	14286
858.997	14161
859.13	14385
859.263	14355
859.396	14370
859.529	14233
859.662	14278
859.795	14362
859.928	14271
860.061	14503
860.194	14533
860.327	14332
860.46	14252
860.592	14385
860.725	14495
860.858	14374
860.99	14298
861.123	14286
861.256	14290
861.388	14309
861.521	14834
861.653	14256
861.786	14100
861.918	14069
862.05	14214
862.183	14256
862.315	14317
862.447	14370
862.58	14225
862.712	14020
862.844	14054
862.976	14206
863.108	14103
863.24	14381
863.372	14107
863.504	14062
863.636	14161
863.768	14126
863.9	14088
864.032	14043
864.164	14092
864.296	14062
864.428	14176
864.559	14107
864.691	14164
864.823	14092
864.954	14027
865.086	14065
865.217	14119
865.349	13944
865.48	14172
865.612	14100
865.743	14252
865.875	14043
866.006	14020
866.137	14065
866.269	14058
866.4	14062
866.531	14065
866.662	14084
866.793	14039
866.924	13963
867.055	14126
867.186	14123
867.317	14084
867.448	13921
867.579	14050
867.71	13982
867.841	13982
867.972	14027
868.103	13989
868.233	13986
868.364	14172
868.495	14096
868.625	14229
868.756	14366
868.886	14187
869.017	14381
869.147	14374
869.278	14412
869.408	14351
869.539	14225
869.669	14415
869.799	14358
869.929	14495
870.06	14355
870.19	14674
870.32	14629
870.45	14625
870.58	14594
870.71	14792
870.84	14826
870.97	14758
871.1	14583
871.23	14986
871.36	14887
871.489	14826
871.619	14895
871.749	14895
871.879	14876
872.008	14963
872.138	14887
872.267	14853
872.397	14830
872.526	14750
872.656	14716
872.785	14777
872.915	14948
873.044	14963
873.173	14918
873.303	14929
873.432	15005
873.561	15005
873.69	15039
873.819	14914
873.948	15043
874.077	15013
874.206	15028
874.335	15001
874.464	15097
874.593	15298
874.722	15199
874.851	15287
874.979	15363
875.108	15325
875.237	15192
875.365	15146
875.494	15310
875.623	15279
875.751	15249
875.88	15359
876.008	15549
876.136	15496
876.265	15770
876.393	15899
876.521	15686
876.65	15789
876.778	15667
876.906	15595
877.034	15614
877.162	15679
877.29	15595
877.418	15637
877.546	15637
877.674	15713
877.802	15709
877.93	15637
878.058	15591
878.185	15549
878.313	15603
878.441	15633
878.568	15485
878.696	15644
878.824	15781
878.951	15778
879.079	15861
879.206	16067
879.333	15812
879.461	15739
879.588	15842
879.715	15873
879.842	15949
879.97	15778
880.097	15606
880.224	15428
880.351	15564
880.478	15511
880.605	15519
880.732	15454
880.859	15701
880.986	15641
881.112	15538
881.239	15397
881.366	15374
881.493	15302
881.619	15112
881.746	15165
881.872	15222
881.999	15237
882.125	15142
882.252	15336
882.378	15176
882.505	15332
882.631	15165
882.757	15039
882.883	15097
883.01	15123
883.136	15032
883.262	14883
883.388	14891
883.514	15036
883.64	15123
883.766	14956
883.892	14899
884.018	14807
884.143	14979
884.269	15131
884.395	14815
884.52	14598
884.646	14758
884.772	14739
884.897	14602
885.023	14727
885.148	14872
885.274	14739
885.399	14830
885.524	14769
885.65	14667
885.775	14762
885.9	14739
886.025	14792
886.15	14830
886.275	14739
886.4	14663
886.525	14754
886.65	14682
886.775	14701
886.9	14815
887.025	14887
887.149	14682
887.274	14564
887.399	14545
887.523	14590
887.648	14427
887.773	14484
887.897	14781
888.021	14560
888.146	14495
888.27	14484
888.395	14636
888.519	14575
888.643	14613
888.767	14602
888.891	14495
889.015	14423
889.139	14495
889.263	14347
889.387	14552
889.511	14587
889.635	14579
889.759	14423
889.883	14370
890.006	14396
890.13	14594
890.254	14362
890.377	14419
890.501	14229
890.624	14233
890.748	14233
890.871	14111
890.995	14054
891.118	14065
891.241	14073
891.364	14100
891.488	14305
891.611	13993
891.734	14107
891.857	14225
891.98	14065
892.103	14191
892.226	14199
892.349	14039
892.471	14027
892.594	14123
892.717	14183
892.839	14119
892.962	14035
893.085	14081
893.207	14096
893.33	14012
893.452	14001
893.575	14081
893.697	14164
893.819	14286
893.941	14317
894.064	14256
894.186	14134
894.308	14073
894.43	14191
894.552	14347
894.674	14233
894.796	14088
894.918	14123
895.04	14123
895.161	14305
895.283	14187
895.405	14126
895.526	14187
895.648	14244
895.769	14218
895.891	14290
896.012	14328
896.134	14362
896.255	14313
896.376	14221
896.498	14282
896.619	14336
896.74	14282
896.861	14408
896.982	14625
897.103	14773
897.224	14583
897.345	14465
897.466	14552
897.587	14476
897.708	14587
897.828	14598
897.949	14476
898.07	14457
898.19	14469
898.311	14712
898.431	14568
898.552	14659
898.672	14670
898.792	14697
898.913	14720
899.033	14610
899.153	14552
899.273	14431
899.393	14507
899.513	14549
899.633	14583
899.753	14552
899.873	14522
899.993	14571
900.113	14465
900.232	14495
900.352	14461
900.472	14415
900.591	14423
900.711	14362
900.83	14339
900.95	14442
901.069	14507
901.189	14275
901.308	14081
901.427	14088
901.546	14039
901.665	14058
901.784	13982
901.904	13921
902.023	13883
902.141	13636
902.26	13552
902.379	13723
902.498	13655
902.617	13609
902.735	13605
902.854	13571
902.973	13510
903.091	13388
903.21	13304
903.328	13339
903.446	13251
903.565	13183
903.683	13122
903.801	13107
903.919	13190
904.038	13084
904.156	13004
904.274	13129
904.392	13076
904.51	13038
904.627	13038
904.745	13069
904.863	13034
904.981	12791
905.098	12757
905.216	12745
905.334	12829
905.451	12722
905.569	12719
905.686	12730
905.803	12646
905.921	12540
906.038	12593
906.155	12494
906.272	12388
906.389	12372
906.506	12346
906.623	12300
906.74	12285
906.857	12190
906.974	12270
907.091	12445
907.208	12513
907.324	12258
907.441	12224
907.557	12076
907.674	12022
907.79	12007
907.907	12019
908.023	12038
908.139	12019
908.256	11866
908.372	11840
908.488	11809
908.604	11817
908.72	11783
908.836	11790
908.952	11695
909.068	11748
909.184	11878
909.3	11722
909.415	11885
909.531	11748
909.647	11604
909.762	11486
909.878	11512
909.993	11570
910.108	11543
910.224	11501
910.339	11497
910.454	11436
910.57	11425
910.685	11349
910.8	11611
910.915	11554
911.03	11486
911.145	11239
911.259	11326
911.374	11258
911.489	11208
911.604	11143
911.718	11060
911.833	11064
911.947	10991
912.062	10820
912.176	11025
912.291	11033
912.405	11003
912.519	11170
912.633	11189
912.748	11056
912.862	11041
912.976	11037
913.09	10824
913.204	10805
913.318	10904
913.431	10927
913.545	10968
913.659	11045
913.772	10866
913.886	10778
914	10778
914.113	10805
914.226	10923
914.34	10812
914.453	10698
914.566	10889
914.68	10759
914.793	10752
914.906	10531
915.019	10462
915.132	10481
915.245	10474
915.358	10542
915.47	10504
915.583	10546
915.696	10634
915.809	10637
915.921	10611
916.034	10504
916.146	10466
916.259	10413
916.371	10523
916.483	10462
916.595	10405
916.708	10382
916.82	10432
916.932	10337
917.044	10424
917.156	10344
917.268	10265
917.38	10341
917.491	10333
917.603	10352
917.715	10428
917.826	10432
917.938	10318
918.049	10284
918.161	10295
918.272	10523
918.384	10436
918.495	10367
918.606	10147
918.717	10242
918.828	10223
918.939	10314
919.05	10147
919.161	10230
919.272	10067
919.383	10154
919.494	10257
919.604	10508
919.715	10238
919.826	10150
919.936	10204
920.047	10276
920.157	10295
920.267	10485
920.378	10246
920.488	10207
920.598	10451
920.708	10542
920.818	10489
920.928	10341
921.038	10641
921.148	10538
921.258	10242
921.368	10219
921.477	10143
921.587	10074
921.697	9979
921.806	10166
921.916	9964
922.025	9831
922.134	9808
922.244	9667
922.353	9835
922.462	9694
922.571	9614
922.68	9469
922.789	9481
922.898	9435
923.007	9492
923.116	9553
923.224	9568
923.333	9462
923.442	9443
923.55	9386
923.659	9340
923.767	9447
923.876	9298
923.984	9435
924.092	9313
924.201	9351
924.309	9340
924.417	9336
924.525	9370
924.633	9317
924.741	10272
924.849	9051
924.956	9321
925.064	9138
925.172	9085
925.279	9081
925.387	9097
925.494	9195
925.602	9272
925.709	9192
925.816	9150
925.924	9123
926.031	9214
926.138	9150
926.245	9165
926.352	9020
926.459	9188
926.566	9256
926.673	9157
926.779	9062
926.886	9039
926.993	8853
927.099	8823
927.206	8800
927.312	8811
927.419	8910
927.525	8880
927.631	8876
927.737	8857
927.843	8796
927.95	8636
928.056	8682
928.162	8739
928.267	8788
928.373	9469
928.479	8895
928.585	8651
928.69	8712
928.796	8800
928.901	8678
929.007	8518
929.112	8655
929.218	8655
929.323	8644
929.428	8549
929.533	8705
929.638	8480
929.743	8533
929.848	8648
929.953	8629
930.058	8476
930.163	8343
930.267	8294
930.372	8476
930.477	8393
930.581	8533
930.685	8434
930.79	8259
930.894	8317
930.998	8210
931.103	8385
931.207	8043
931.311	8001
931.415	7928
931.519	7807
931.623	7772
