Data from test_V78500241_2755.txt Node
Date: Fri Mar 25 14:52:53 CST 2022
User: usil
Spectrometer: V785-0024
Trigger mode: 0
Integration Time (sec): 4.000000E-1
Scans to average: 1
Nonlinearity correction enabled: false
Boxcar width: 0
Storing dark spectrum: false
XAxis mode: Wavelengths
Number of Pixels in Spectrum: 1024
>>>>>Begin Spectral Data<<<<<
801.071	21964
801.214	21827
801.356	21625
801.499	21526
801.641	21473
801.783	21603
801.926	21481
802.068	21275
802.211	21180
802.353	21131
802.496	20918
802.638	21032
802.78	20811
802.923	20849
803.065	20735
803.208	20701
803.35	20712
803.492	20876
803.635	20910
803.777	20796
803.919	20853
804.061	21180
804.204	20853
804.346	20674
804.488	20720
804.63	20792
804.773	20670
804.915	20590
805.057	20819
805.199	20571
805.341	20727
805.483	20670
805.626	20705
805.768	20632
805.91	20640
806.052	20705
806.194	20541
806.336	20819
806.478	20705
806.62	20549
806.762	20667
806.904	20826
807.046	21089
807.188	21005
807.33	20944
807.472	20986
807.614	20849
807.756	20826
807.898	20724
808.04	20674
808.182	20739
808.324	20594
808.465	20750
808.607	20952
808.749	21154
808.891	21055
809.033	21100
809.174	21047
809.316	20921
809.458	20960
809.6	20925
809.741	20994
809.883	21047
810.025	21176
810.166	21260
810.308	21116
810.45	21116
810.591	21005
810.733	20895
810.875	20838
811.016	20575
811.158	20575
811.299	20712
811.441	21005
811.582	20910
811.724	20815
811.865	20785
812.007	20712
812.148	20743
812.29	20861
812.431	20918
812.573	21085
812.714	21089
812.855	21222
812.997	21287
813.138	21488
813.279	21367
813.421	21298
813.562	21275
813.703	20975
813.845	20944
813.986	20644
814.127	20355
814.268	20282
814.41	20427
814.551	20362
814.692	20377
814.833	20195
814.974	20275
815.115	20256
815.256	20122
815.397	20187
815.539	20161
815.68	20027
815.821	20111
815.962	20069
816.103	20050
816.244	19868
816.385	19712
816.526	19765
816.666	19594
816.807	19331
816.948	19571
817.089	19567
817.23	19514
817.371	19339
817.512	19400
817.653	19438
817.793	19396
817.934	19316
818.075	19362
818.216	19476
818.356	19373
818.497	19228
818.638	19103
818.778	19190
818.919	19069
819.06	19209
819.2	19274
819.341	19240
819.481	19247
819.622	19487
819.762	19628
819.903	19552
820.043	19445
820.184	19506
820.324	19346
820.465	19449
820.605	19324
820.746	19320
820.886	19274
821.026	19377
821.167	19377
821.307	19426
821.447	19244
821.588	19343
821.728	19126
821.868	19012
822.008	18840
822.149	18719
822.289	18768
822.429	18513
822.569	18528
822.709	18528
822.849	18384
822.99	18330
823.13	18342
823.27	18247
823.41	18102
823.55	18011
823.69	18136
823.83	18136
823.97	18011
824.11	17897
824.25	17923
824.389	17878
824.529	17920
824.669	17992
824.809	18106
824.949	17920
825.089	17920
825.228	17904
825.368	17714
825.508	17722
825.648	17695
825.787	17676
825.927	17859
826.067	17608
826.206	17661
826.346	17695
826.485	17657
826.625	17676
826.765	17718
826.904	17718
827.044	17486
827.183	17402
827.323	17353
827.462	17486
827.601	17433
827.741	17353
827.88	17322
828.02	17280
828.159	17429
828.298	17387
828.437	17395
828.577	17395
828.716	17417
828.855	17368
828.994	17227
829.134	17128
829.273	17102
829.412	17140
829.551	17094
829.69	17132
829.829	17155
829.968	17197
830.107	17128
830.246	17174
830.385	17090
830.524	17067
830.663	16949
830.802	16843
830.941	16820
831.08	16771
831.219	16858
831.357	16847
831.496	16927
831.635	16733
831.774	16691
831.913	16634
832.051	16451
832.19	16440
832.329	16485
832.467	16478
832.606	16447
832.744	16367
832.883	16390
833.022	16394
833.16	16462
833.299	16596
833.437	16474
833.576	16424
833.714	16519
833.852	16413
833.991	16558
834.129	16489
834.267	16641
834.406	16466
834.544	16554
834.682	16523
834.821	16550
834.959	16535
835.097	16500
835.235	16474
835.373	16542
835.511	16413
835.65	16352
835.788	16356
835.926	16337
836.064	16211
836.202	16257
836.34	16462
836.478	16474
836.615	16276
836.753	16417
836.891	16421
837.029	16519
837.167	16436
837.305	16192
837.443	16230
837.58	16177
837.718	16348
837.856	16219
837.993	16295
838.131	16314
838.269	16238
838.406	16169
838.544	16143
838.681	16040
838.819	15968
838.956	15880
839.094	15838
839.231	15918
839.369	15884
839.506	16211
839.643	16021
839.781	15854
839.918	15880
840.055	15819
840.193	15857
840.33	15808
840.467	15766
840.604	15915
840.742	16135
840.879	15747
841.016	15759
841.153	15778
841.29	15926
841.427	15831
841.564	15884
841.701	15774
841.838	15804
841.975	15679
842.112	15709
842.249	15633
842.385	15538
842.522	15823
842.659	15599
842.796	15557
842.933	15603
843.069	15564
843.206	15576
843.343	15713
843.479	15553
843.616	15637
843.752	15386
843.889	15397
844.025	15530
844.162	15378
844.298	15481
844.435	15477
844.571	15378
844.708	15504
844.844	15526
844.98	15553
845.117	15477
845.253	15378
845.389	15336
845.525	15321
845.661	15241
845.798	15264
845.934	15180
846.07	15097
846.206	15283
846.342	15332
846.478	15245
846.614	15108
846.75	15047
846.886	14914
847.022	15119
847.158	14994
847.294	14941
847.429	15051
847.565	14979
847.701	15169
847.837	14804
847.972	14708
848.108	14864
848.244	14788
848.379	14545
848.515	14571
848.65	14488
848.786	14556
848.921	14450
849.057	14701
849.192	14682
849.328	14640
849.463	14629
849.598	14488
849.734	14434
849.869	14473
850.004	14408
850.14	14404
850.275	14343
850.41	14298
850.545	14218
850.68	14313
850.815	14343
850.95	14370
851.085	14480
851.22	14419
851.355	14393
851.49	14339
851.625	14347
851.76	14309
851.895	14187
852.03	14229
852.165	14343
852.299	14358
852.434	14404
852.569	14278
852.703	14298
852.838	14393
852.973	14396
853.107	14469
853.242	14259
853.376	14244
853.511	14126
853.645	14206
853.78	14313
853.914	14107
854.048	14096
854.183	14024
854.317	14130
854.451	14370
854.585	14229
854.72	14290
854.854	14294
854.988	14084
855.122	14199
855.256	14046
855.39	14210
855.524	14358
855.658	14210
855.792	14248
855.926	14195
856.06	14328
856.194	14252
856.327	14195
856.461	14199
856.595	14100
856.729	14172
856.862	14351
856.996	14259
857.13	14442
857.263	14305
857.397	14301
857.53	14199
857.664	14248
857.797	14294
857.931	14328
858.064	14233
858.197	14347
858.331	14225
858.464	14176
858.597	14020
858.731	14244
858.864	14317
858.997	14153
859.13	14294
859.263	14191
859.396	14362
859.529	14191
859.662	14183
859.795	14172
859.928	14301
860.061	14457
860.194	14362
860.327	14332
860.46	14195
860.592	14294
860.725	14370
860.858	14343
860.99	14282
861.123	14218
861.256	14240
861.388	14309
861.521	14883
861.653	14142
861.786	13959
861.918	14111
862.05	14199
862.183	14210
862.315	14244
862.447	14351
862.58	14100
862.712	14062
862.844	14039
862.976	14077
863.108	14035
863.24	14461
863.372	13947
863.504	14043
863.636	14005
863.768	14054
863.9	14050
864.032	13925
864.164	14050
864.296	14012
864.428	14134
864.559	14176
864.691	14123
864.823	13982
864.954	14123
865.086	14020
865.217	14046
865.349	13940
865.48	13982
865.612	13970
865.743	14191
865.875	14107
866.006	14001
866.137	13921
866.269	13986
866.4	13963
866.531	13978
866.662	13955
866.793	13947
866.924	13978
867.055	14058
867.186	14008
867.317	13951
867.448	13932
867.579	14005
867.71	13871
867.841	13932
867.972	13997
868.103	14001
868.233	13940
868.364	13970
868.495	14027
868.625	14206
868.756	14362
868.886	14161
869.017	14183
869.147	14370
869.278	14400
869.408	14328
869.539	14267
869.669	14233
869.799	14256
869.929	14415
870.06	14366
870.19	14610
870.32	14499
870.45	14571
870.58	14670
870.71	14750
870.84	14762
870.97	14651
871.1	14575
871.23	14773
871.36	14918
871.489	14765
871.619	14716
871.749	14853
871.879	14849
872.008	14887
872.138	14838
872.267	14876
872.397	14701
872.526	14659
872.656	14659
872.785	14746
872.915	14891
873.044	15009
873.173	14944
873.303	15036
873.432	14937
873.561	15028
873.69	14933
873.819	14921
873.948	14960
874.077	14906
874.206	14948
874.335	14929
874.464	14971
874.593	15173
874.722	15154
874.851	15089
874.979	15275
875.108	15249
875.237	15146
875.365	15154
875.494	15195
875.623	15348
875.751	15146
875.88	15241
876.008	15374
876.136	15458
876.265	15572
876.393	15785
876.521	15736
876.65	15720
876.778	15648
876.906	15564
877.034	15564
877.162	15705
877.29	15587
877.418	15545
877.546	15644
877.674	15667
877.802	15637
877.93	15622
878.058	15599
878.185	15553
878.313	15641
878.441	15686
878.568	15428
878.696	15599
878.824	15641
878.951	15736
879.079	15755
879.206	15918
879.333	15755
879.461	15686
879.588	15797
879.715	15861
879.842	15949
879.97	15751
880.097	15389
880.224	15405
880.351	15515
880.478	15606
880.605	15500
880.732	15302
880.859	15720
880.986	15526
881.112	15530
881.239	15420
881.366	15222
881.493	15237
881.619	15157
881.746	15108
881.872	15104
881.999	15100
882.125	15108
882.252	15249
882.378	15161
882.505	15287
882.631	15116
882.757	14975
882.883	14982
883.01	14963
883.136	14845
883.262	14842
883.388	14769
883.514	15055
883.64	14967
883.766	14933
883.892	14781
884.018	14735
884.143	14891
884.269	15074
884.395	14777
884.52	14644
884.646	14731
884.772	14659
884.897	14526
885.023	14678
885.148	14712
885.274	14906
885.399	14754
885.524	14716
885.65	14727
885.775	14769
885.9	14735
886.025	14792
886.15	14773
886.275	14564
886.4	14533
886.525	14686
886.65	14549
886.775	14629
886.9	14644
887.025	14876
887.149	14735
887.274	14431
887.399	14476
887.523	14492
887.648	14427
887.773	14412
887.897	14568
888.021	14514
888.146	14518
888.27	14625
888.395	14632
888.519	14571
888.643	14583
888.767	14621
888.891	14355
889.015	14305
889.139	14374
889.263	14294
889.387	14431
889.511	14545
889.635	14511
889.759	14366
889.883	14393
890.006	14366
890.13	14507
890.254	14305
890.377	14347
890.501	14275
890.624	14168
890.748	14107
890.871	14050
890.995	14081
891.118	13947
891.241	14043
891.364	14069
891.488	14138
891.611	14077
891.734	14073
891.857	14107
891.98	14043
892.103	14275
892.226	14035
892.349	14065
892.471	13936
892.594	14031
892.717	14103
892.839	14058
892.962	14043
893.085	14153
893.207	14024
893.33	13890
893.452	13894
893.575	14130
893.697	14027
893.819	14248
893.941	14244
894.064	14305
894.186	14084
894.308	13970
894.43	14221
894.552	14263
894.674	14225
894.796	14134
894.918	13982
895.04	14206
895.161	14115
895.283	14149
895.405	14142
895.526	14134
895.648	14103
895.769	14278
895.891	14221
896.012	14370
896.134	14191
896.255	14214
896.376	14206
896.498	14240
896.619	14244
896.74	14180
896.861	14206
896.982	14552
897.103	14735
897.224	14568
897.345	14556
897.466	14389
897.587	14511
897.708	14568
897.828	14674
897.949	14514
898.07	14290
898.19	14526
898.311	14678
898.431	14522
898.552	14617
898.672	14640
898.792	14659
898.913	14712
899.033	14594
899.153	14469
899.273	14393
899.393	14446
899.513	14552
899.633	14476
899.753	14389
899.873	14461
899.993	14560
900.113	14423
900.232	14503
900.352	14427
900.472	14298
900.591	14313
900.711	14320
900.83	14282
900.95	14370
901.069	14404
901.189	14252
901.308	13978
901.427	14027
901.546	13932
901.665	14043
901.784	14020
901.904	13761
902.023	13822
902.141	13582
902.26	13521
902.379	13590
902.498	13559
902.617	13559
902.735	13628
902.854	13518
902.973	13464
903.091	13278
903.21	13274
903.328	13327
903.446	13149
903.565	13122
903.683	13107
903.801	13015
903.919	13042
904.038	13126
904.156	12943
904.274	13012
904.392	12932
904.51	12928
904.627	12916
904.745	12935
904.863	13042
904.981	12677
905.098	12551
905.216	12627
905.334	12639
905.451	12563
905.569	12646
905.686	12700
905.803	12547
905.921	12445
906.038	12513
906.155	12460
906.272	12292
906.389	12372
906.506	12205
906.623	12232
906.74	12194
906.857	12102
906.974	12102
907.091	12254
907.208	12426
907.324	12167
907.441	12194
907.557	12022
907.674	11954
907.79	11885
907.907	11954
908.023	11999
908.139	11874
908.256	11939
908.372	11885
908.488	11863
908.604	11741
908.72	11737
908.836	11707
908.952	11585
909.068	11767
909.184	11726
909.3	11695
909.415	11809
909.531	11729
909.647	11535
909.762	11452
909.878	11516
909.993	11467
910.108	11539
910.224	11414
910.339	11547
910.454	11368
910.57	11368
910.685	11284
910.8	11649
910.915	11459
911.03	11322
911.145	11254
911.259	11140
911.374	11216
911.489	11056
911.604	11079
911.718	10980
911.833	11045
911.947	10965
912.062	10812
912.176	11010
912.291	10938
912.405	10911
912.519	11151
912.633	11288
912.748	11006
912.862	10999
912.976	10930
913.09	10733
913.204	10801
913.318	10873
913.431	10938
913.545	10934
913.659	10980
913.772	10812
913.886	10702
914	10664
914.113	10843
914.226	10866
914.34	10790
914.453	10649
914.566	10820
914.68	10714
914.793	10615
914.906	10451
915.019	10424
915.132	10428
915.245	10394
915.358	10402
915.47	10466
915.583	10443
915.696	10516
915.809	10573
915.921	10630
916.034	10466
916.146	10405
916.259	10413
916.371	10500
916.483	10409
916.595	10432
916.708	10360
916.82	10428
916.932	10413
917.044	10424
917.156	10265
917.268	10325
917.38	10291
917.491	10337
917.603	10348
917.715	10394
917.826	10459
917.938	10306
918.049	10147
918.161	10348
918.272	10447
918.384	10462
918.495	10341
918.606	10135
918.717	10090
918.828	10162
918.939	10200
919.05	10032
919.161	10154
919.272	10002
919.383	10029
919.494	10200
919.604	10402
919.715	10154
919.826	10158
919.936	10147
920.047	10219
920.157	10219
920.267	10413
920.378	10196
920.488	10135
920.598	10325
920.708	10500
920.818	10402
920.928	10333
921.038	10569
921.148	10424
921.258	10246
921.368	10135
921.477	10025
921.587	10029
921.697	9819
921.806	10006
921.916	9964
922.025	9816
922.134	9774
922.244	9701
922.353	9770
922.462	9568
922.571	9568
922.68	9428
922.789	9469
922.898	9515
923.007	9428
923.116	9519
923.224	9428
923.333	9393
923.442	9283
923.55	9260
923.659	9344
923.767	9443
923.876	9272
923.984	9424
924.092	9264
924.201	9260
924.309	9363
924.417	9302
924.525	9279
924.633	9313
924.741	10021
924.849	9161
924.956	9294
925.064	9119
925.172	9032
925.279	9066
925.387	9173
925.494	9142
925.602	9268
925.709	9195
925.816	9043
925.924	9173
926.031	9161
926.138	9127
926.245	9176
926.352	9077
926.459	9207
926.566	9275
926.673	9089
926.779	9005
926.886	8998
926.993	8876
927.099	8842
927.206	8861
927.312	8788
927.419	8918
927.525	8872
927.631	8944
927.737	8785
927.843	8807
927.95	8697
928.056	8754
928.162	8766
928.267	8838
928.373	9370
928.479	8864
928.585	8613
928.69	8686
928.796	8785
928.901	8670
929.007	8598
929.112	8716
929.218	8682
929.323	8644
929.428	8587
929.533	8739
929.638	8492
929.743	8556
929.848	8602
929.953	8530
930.058	8560
930.163	8301
930.267	8366
930.372	8446
930.477	8225
930.581	8594
930.685	8427
930.79	8240
930.894	8328
930.998	8309
931.103	8396
931.207	8005
931.311	8008
931.415	7978
931.519	7776
931.623	7750
