Data from test_V78500241_379.txt Node
Date: Fri Mar 25 14:36:21 CST 2022
User: usil
Spectrometer: V785-0024
Trigger mode: 0
Integration Time (sec): 4.000000E-1
Scans to average: 1
Nonlinearity correction enabled: false
Boxcar width: 0
Storing dark spectrum: false
XAxis mode: Wavelengths
Number of Pixels in Spectrum: 1024
>>>>>Begin Spectral Data<<<<<
801.071	26975
801.214	26640
801.356	26469
801.499	26347
801.641	26320
801.783	26275
801.926	26305
802.068	26229
802.211	26122
802.353	25974
802.496	25913
802.638	25928
802.78	25780
802.923	25715
803.065	25635
803.208	25704
803.35	25613
803.492	25738
803.635	25868
803.777	25856
803.919	25693
804.061	26077
804.204	25879
804.346	25712
804.488	25731
804.63	25700
804.773	25655
804.915	25841
805.057	25898
805.199	25803
805.341	25757
805.483	25845
805.626	25803
805.768	25772
805.91	25727
806.052	25845
806.194	25715
806.336	25970
806.478	25731
806.62	25681
806.762	25860
806.904	25989
807.046	26138
807.188	26149
807.33	26305
807.472	26210
807.614	25982
807.756	26024
807.898	25959
808.04	25940
808.182	25902
808.324	26035
808.465	25902
808.607	26119
808.749	26263
808.891	26469
809.033	26606
809.174	26415
809.316	26313
809.458	26149
809.6	26233
809.741	26142
809.883	26218
810.025	26412
810.166	26541
810.308	26412
810.45	26442
810.591	26328
810.733	26084
810.875	26149
811.016	26084
811.158	26005
811.299	26267
811.441	26180
811.582	26259
811.724	26016
811.865	26084
812.007	25982
812.148	25963
812.29	26008
812.431	26275
812.573	26282
812.714	26514
812.855	26518
812.997	26571
813.138	26887
813.279	26625
813.421	26655
813.562	26511
813.703	26453
813.845	26290
813.986	25890
814.127	25887
814.268	25639
814.41	25780
814.551	25746
814.692	25849
814.833	25479
814.974	25624
815.115	25681
815.256	25518
815.397	25369
815.539	25441
815.68	25377
815.821	25426
815.962	25464
816.103	25316
816.244	25259
816.385	25164
816.526	25133
816.666	25031
816.807	24802
816.948	24973
817.089	24825
817.23	24677
817.371	24806
817.512	24741
817.653	24738
817.793	24650
817.934	24764
818.075	24719
818.216	24673
818.356	24810
818.497	24620
818.638	24388
818.778	24544
818.919	24494
819.06	24483
819.2	24502
819.341	24604
819.481	24623
819.622	24821
819.762	25027
819.903	24897
820.043	24878
820.184	24700
820.324	24768
820.465	24700
820.605	24783
820.746	24817
820.886	24604
821.026	24692
821.167	24650
821.307	24741
821.447	24570
821.588	24498
821.728	24410
821.868	24178
822.008	24038
822.149	24125
822.289	24095
822.429	23752
822.569	23901
822.709	23832
822.849	23600
822.99	23467
823.13	23710
823.27	23444
823.41	23376
823.55	23349
823.69	23315
823.83	23273
823.97	23345
824.11	23193
824.25	23151
824.389	23132
824.529	23140
824.669	23060
824.809	23159
824.949	23280
825.089	23170
825.228	23056
825.368	23029
825.508	23014
825.648	22869
825.787	22915
825.927	22915
826.067	22885
826.206	22900
826.346	22976
826.485	22949
826.625	22923
826.765	22908
826.904	22984
827.044	22584
827.183	22740
827.323	22637
827.462	22706
827.601	22694
827.741	22649
827.88	22466
828.02	22565
828.159	22561
828.298	22645
828.437	22478
828.577	22569
828.716	22618
828.855	22451
828.994	22314
829.134	22265
829.273	22253
829.412	22226
829.551	22158
829.69	22322
829.829	22303
829.968	22291
830.107	22390
830.246	22314
830.385	22257
830.524	22112
830.663	22128
830.802	22044
830.941	21819
831.08	21850
831.219	21857
831.357	21789
831.496	22048
831.635	21827
831.774	21717
831.913	21743
832.051	21633
832.19	21580
832.329	21606
832.467	21564
832.606	21447
832.744	21511
832.883	21504
833.022	21443
833.16	21488
833.299	21507
833.437	21485
833.576	21485
833.714	21454
833.852	21572
833.991	21519
834.129	21682
834.267	21660
834.406	21466
834.544	21660
834.682	21420
834.821	21454
834.959	21701
835.097	21462
835.235	21485
835.373	21469
835.511	21405
835.65	21332
835.788	21348
835.926	21230
836.064	21237
836.202	21119
836.34	21332
836.478	21382
836.615	21222
836.753	21378
836.891	21435
837.029	21351
837.167	21325
837.305	21180
837.443	21214
837.58	21165
837.718	21359
837.856	21218
837.993	21074
838.131	21294
838.269	21112
838.406	21096
838.544	21024
838.681	20921
838.819	20785
838.956	20708
839.094	20712
839.231	20552
839.369	20792
839.506	20963
839.643	20887
839.781	20655
839.918	20552
840.055	20598
840.193	20564
840.33	20503
840.467	20606
840.604	20667
840.742	20941
840.879	20362
841.016	20461
841.153	20396
841.29	20708
841.427	20450
841.564	20636
841.701	20457
841.838	20541
841.975	20362
842.112	20366
842.249	20419
842.385	20271
842.522	20385
842.659	20267
842.796	20282
842.933	20366
843.069	20214
843.206	20176
843.343	20385
843.479	20229
843.616	20358
843.752	20107
843.889	20142
844.025	20237
844.162	19978
844.298	20142
844.435	19993
844.571	20046
844.708	20058
844.844	20142
844.98	20138
845.117	20115
845.253	19970
845.389	19921
845.525	19750
845.661	19906
845.798	19849
845.934	19909
846.07	19860
846.206	19845
846.342	19947
846.478	19845
846.614	19712
846.75	19597
846.886	19480
847.022	19613
847.158	19575
847.294	19460
847.429	19441
847.565	19449
847.701	19590
847.837	19171
847.972	19179
848.108	19179
848.244	19232
848.379	19076
848.515	19137
848.65	19004
848.786	18996
848.921	19129
849.057	19213
849.192	19122
849.328	19110
849.463	18962
849.598	19065
849.734	18996
849.869	18829
850.004	18738
850.14	18844
850.275	18757
850.41	18741
850.545	18696
850.68	18669
850.815	18806
850.95	18696
851.085	18958
851.22	18951
851.355	18745
851.49	18787
851.625	18715
851.76	18745
851.895	18722
852.03	18688
852.165	18703
852.299	18852
852.434	18928
852.569	18798
852.703	18715
852.838	18916
852.973	18935
853.107	18909
853.242	18764
853.376	18646
853.511	18555
853.645	18525
853.78	18722
853.914	18540
854.048	18639
854.183	18563
854.317	18654
854.451	18749
854.585	18566
854.72	18521
854.854	18719
854.988	18494
855.122	18616
855.256	18388
855.39	18574
855.524	18703
855.658	18650
855.792	18578
855.926	18639
856.06	18604
856.194	18681
856.327	18650
856.461	18551
856.595	18555
856.729	18563
856.862	18623
856.996	18646
857.13	18589
857.263	18604
857.397	18494
857.53	18566
857.664	18544
857.797	18642
857.931	18688
858.064	18654
858.197	18722
858.331	18433
858.464	18513
858.597	18483
858.731	18513
858.864	18555
858.997	18498
859.13	18509
859.263	18509
859.396	18616
859.529	18555
859.662	18540
859.795	18525
859.928	18532
860.061	18612
860.194	18814
860.327	18547
860.46	18456
860.592	18722
860.725	18703
860.858	18642
860.99	18460
861.123	18509
861.256	18467
861.388	18620
861.521	19270
861.653	18460
861.786	18319
861.918	18384
862.05	18574
862.183	18574
862.315	18658
862.447	18684
862.58	18486
862.712	18281
862.844	18296
862.976	18433
863.108	18300
863.24	18719
863.372	18174
863.504	18213
863.636	18262
863.768	18258
863.9	18338
864.032	18228
864.164	18190
864.296	18220
864.428	18319
864.559	18239
864.691	18334
864.823	18258
864.954	18262
865.086	18213
865.217	18102
865.349	18091
865.48	18125
865.612	18144
865.743	18346
865.875	18182
866.006	18133
866.137	18254
866.269	18121
866.4	18076
866.531	18068
866.662	18129
866.793	18167
866.924	18087
867.055	18133
867.186	18125
867.317	18034
867.448	17992
867.579	17988
867.71	17977
867.841	17935
867.972	18167
868.103	18182
868.233	18022
868.364	18068
868.495	18098
868.625	18235
868.756	18502
868.886	18232
869.017	18350
869.147	18448
869.278	18498
869.408	18350
869.539	18281
869.669	18460
869.799	18403
869.929	18528
870.06	18391
870.19	18642
870.32	18646
870.45	18730
870.58	18711
870.71	18806
870.84	18856
870.97	18677
871.1	18688
871.23	18833
871.36	18905
871.489	18760
871.619	18787
871.749	18916
871.879	19015
872.008	19099
872.138	18962
872.267	18951
872.397	18886
872.526	18703
872.656	18749
872.785	18760
872.915	19053
873.044	19099
873.173	19126
873.303	19122
873.432	19046
873.561	19076
873.69	18951
873.819	18928
873.948	19057
874.077	19103
874.206	18966
874.335	18897
874.464	19099
874.593	19126
874.722	19232
874.851	19335
874.979	19316
875.108	19282
875.237	19251
875.365	19031
875.494	19217
875.623	19358
875.751	19225
875.88	19187
876.008	19449
876.136	19449
876.265	19681
876.393	19769
876.521	19616
876.65	19700
876.778	19609
876.906	19609
877.034	19662
877.162	19594
877.29	19597
877.418	19685
877.546	19594
877.674	19772
877.802	19620
877.93	19647
878.058	19552
878.185	19662
878.313	19655
878.441	19685
878.568	19438
878.696	19529
878.824	19658
878.951	19723
879.079	19868
879.206	19932
879.333	19906
879.461	19807
879.588	19837
879.715	19833
879.842	20012
879.97	19624
880.097	19445
880.224	19411
880.351	19613
880.478	19415
880.605	19468
880.732	19487
880.859	19852
880.986	19487
881.112	19537
881.239	19278
881.366	19354
881.493	19206
881.619	19027
881.746	19091
881.872	19053
881.999	19114
882.125	19038
882.252	19168
882.378	19088
882.505	19263
882.631	18966
882.757	18924
882.883	18897
883.01	18848
883.136	18795
883.262	18707
883.388	18677
883.514	18867
883.64	18943
883.766	18719
883.892	18677
884.018	18658
884.143	18837
884.269	18894
884.395	18593
884.52	18574
884.646	18574
884.772	18369
884.897	18490
885.023	18738
885.148	18627
885.274	18753
885.399	18673
885.524	18525
885.65	18422
885.775	18483
885.9	18448
886.025	18673
886.15	18673
886.275	18414
886.4	18342
886.525	18433
886.65	18464
886.775	18437
886.9	18627
887.025	18745
887.149	18494
887.274	18247
887.399	18266
887.523	18213
887.648	18209
887.773	18174
887.897	18433
888.021	18327
888.146	18262
888.27	18308
888.395	18460
888.519	18273
888.643	18232
888.767	18281
888.891	18190
889.015	18072
889.139	18167
889.263	18038
889.387	18190
889.511	18205
889.635	18239
889.759	17992
889.883	17999
890.006	18144
890.13	18159
890.254	17996
890.377	17969
890.501	17878
890.624	17786
890.748	17977
890.871	17783
890.995	17680
891.118	17672
891.241	17680
891.364	17748
891.488	17832
891.611	17863
891.734	17684
891.857	17786
891.98	17589
892.103	17752
892.226	17619
892.349	17756
892.471	17554
892.594	17718
892.717	17699
892.839	17710
892.962	17691
893.085	17672
893.207	17615
893.33	17467
893.452	17543
893.575	17691
893.697	17539
893.819	17840
893.941	17912
894.064	17764
894.186	17539
894.308	17729
894.43	17745
894.552	17699
894.674	17851
894.796	17646
894.918	17562
895.04	17707
895.161	17726
895.283	17802
895.405	17562
895.526	17802
895.648	17676
895.769	17722
895.891	17775
896.012	17786
896.134	17707
896.255	17722
896.376	17813
896.498	17718
896.619	17836
896.74	17832
896.861	17908
896.982	18049
897.103	18247
897.224	18159
897.345	17999
897.466	17927
897.587	17996
897.708	18068
897.828	18121
897.949	17927
898.07	17836
898.19	17931
898.311	17977
898.431	17889
898.552	17935
898.672	17992
898.792	18045
898.913	17950
899.033	17813
899.153	17798
899.273	17665
899.393	17805
899.513	17855
899.633	17809
899.753	17771
899.873	17676
899.993	17779
900.113	17741
900.232	17691
900.352	17752
900.472	17649
900.591	17505
900.711	17623
900.83	17589
900.95	17608
901.069	17630
901.189	17547
901.308	17322
901.427	17246
901.546	17178
901.665	17216
901.784	17235
901.904	17041
902.023	17105
902.141	16908
902.26	16744
902.379	16782
902.498	16759
902.617	16664
902.735	16710
902.854	16702
902.973	16584
903.091	16424
903.21	16375
903.328	16417
903.446	16402
903.565	16253
903.683	16261
903.801	16185
903.919	16150
904.038	16261
904.156	15994
904.274	15994
904.392	15998
904.51	16013
904.627	16010
904.745	16006
904.863	16059
904.981	15831
905.098	15709
905.216	15701
905.334	15713
905.451	15713
905.569	15675
905.686	15671
905.803	15663
905.921	15443
906.038	15595
906.155	15488
906.272	15382
906.389	15393
906.506	15287
906.623	15249
906.74	15272
906.857	15055
906.974	15081
907.091	15302
907.208	15321
907.324	15359
907.441	15104
907.557	14956
907.674	14998
907.79	14796
907.907	14967
908.023	14880
908.139	14933
908.256	14800
908.372	14800
908.488	14876
908.604	14682
908.72	14564
908.836	14648
908.952	14613
909.068	14689
909.184	14727
909.3	14663
909.415	14590
909.531	14712
909.647	14381
909.762	14355
909.878	14374
909.993	14339
910.108	14309
910.224	14225
910.339	14370
910.454	14271
910.57	14187
910.685	14077
910.8	14480
910.915	14339
911.03	14229
911.145	14008
911.259	14008
911.374	13955
911.489	13906
911.604	13807
911.718	13814
911.833	13757
911.947	13556
912.062	13510
912.176	13715
912.291	13662
912.405	13734
912.519	13883
912.633	13887
912.748	13700
912.862	13685
912.976	13605
913.09	13426
913.204	13483
913.318	13533
913.431	13719
913.545	13597
913.659	13734
913.772	13685
913.886	13422
914	13335
914.113	13457
914.226	13540
914.34	13480
914.453	13255
914.566	13468
914.68	13312
914.793	13255
914.906	13145
915.019	13042
915.132	12954
915.245	13015
915.358	13129
915.47	13088
915.583	13084
915.696	13057
915.809	13206
915.921	13187
916.034	12985
916.146	12947
916.259	12981
916.371	13061
916.483	13042
916.595	12996
916.708	12977
916.82	12951
916.932	12943
917.044	13057
917.156	12909
917.268	12722
917.38	12840
917.491	12779
917.603	12681
917.715	12848
917.826	12947
917.938	12734
918.049	12677
918.161	12772
918.272	12882
918.384	12867
918.495	12848
918.606	12570
918.717	12517
918.828	12582
918.939	12589
919.05	12559
919.161	12585
919.272	12441
919.383	12338
919.494	12665
919.604	12821
919.715	12532
919.826	12525
919.936	12540
920.047	12639
920.157	12540
920.267	12707
920.378	12509
920.488	12585
920.598	12749
920.708	12909
920.818	12791
920.928	12654
921.038	12825
921.148	12829
921.258	12498
921.368	12506
921.477	12418
921.587	12388
921.697	12327
921.806	12327
921.916	12232
922.025	12098
922.134	11931
922.244	11996
922.353	12072
922.462	11847
922.571	11828
922.68	11657
922.789	11653
922.898	11699
923.007	11543
923.116	11775
923.224	11668
923.333	11520
923.442	11611
923.55	11448
923.659	11539
923.767	11623
923.876	11383
923.984	11577
924.092	11471
924.201	11467
924.309	11444
924.417	11524
924.525	11414
924.633	11444
924.741	12281
924.849	11231
924.956	11391
925.064	11235
925.172	11083
925.279	11121
925.387	11193
925.494	11250
925.602	11288
925.709	11303
925.816	11064
925.924	11193
926.031	11254
926.138	11121
926.245	11216
926.352	11083
926.459	11162
926.566	11170
926.673	11064
926.779	10999
926.886	11052
926.993	10755
927.099	10866
927.206	10774
927.312	10782
927.419	10809
927.525	10828
927.631	10869
927.737	10752
927.843	10748
927.95	10596
928.056	10668
928.162	10679
928.267	10725
928.373	11318
928.479	10782
928.585	10478
928.69	10653
928.796	10687
928.901	10531
929.007	10405
929.112	10535
929.218	10489
929.323	10379
929.428	10390
929.533	10569
929.638	10306
929.743	10398
929.848	10447
929.953	10322
930.058	10325
930.163	10147
930.267	10173
930.372	10280
930.477	10093
930.581	10291
930.685	10200
930.79	10029
930.894	10109
930.998	9979
931.103	10181
931.207	9789
931.311	9762
931.415	9705
931.519	9485
931.623	9523
