Data from test_V78500241_1335.txt Node
Date: Fri Mar 25 14:43:00 CST 2022
User: usil
Spectrometer: V785-0024
Trigger mode: 0
Integration Time (sec): 4.000000E-1
Scans to average: 1
Nonlinearity correction enabled: false
Boxcar width: 0
Storing dark spectrum: false
XAxis mode: Wavelengths
Number of Pixels in Spectrum: 1024
>>>>>Begin Spectral Data<<<<<
801.071	22417
801.214	22390
801.356	22166
801.499	21926
801.641	21804
801.783	21785
801.926	21759
802.068	21580
802.211	21698
802.353	21564
802.496	21348
802.638	21302
802.78	21275
802.923	21150
803.065	21100
803.208	21020
803.35	21207
803.492	21176
803.635	21241
803.777	21089
803.919	21154
804.061	21397
804.204	21085
804.346	20948
804.488	20975
804.63	21020
804.773	20826
804.915	21119
805.057	21146
805.199	20994
805.341	21150
805.483	21100
805.626	21032
805.768	21013
805.91	20963
806.052	21013
806.194	21017
806.336	21127
806.478	21085
806.62	21047
806.762	21085
806.904	21306
807.046	21504
807.188	21306
807.33	21294
807.472	21389
807.614	21237
807.756	21363
807.898	21214
808.04	21165
808.182	21260
808.324	21241
808.465	21226
808.607	21507
808.749	21614
808.891	21835
809.033	21774
809.174	21682
809.316	21648
809.458	21580
809.6	21507
809.741	21526
809.883	21603
810.025	21583
810.166	21671
810.308	21641
810.45	21530
810.591	21435
810.733	21313
810.875	21161
811.016	21077
811.158	21135
811.299	21207
811.441	21218
811.582	21279
811.724	21203
811.865	21192
812.007	21214
812.148	21119
812.29	21260
812.431	21420
812.573	21534
812.714	21580
812.855	21785
812.997	21850
813.138	21903
813.279	21778
813.421	21591
813.562	21580
813.703	21496
813.845	21287
813.986	21017
814.127	20857
814.268	20960
814.41	20921
814.551	20712
814.692	20826
814.833	20712
814.974	20720
815.115	20727
815.256	20503
815.397	20518
815.539	20530
815.68	20480
815.821	20465
815.962	20434
816.103	20457
816.244	20195
816.385	20237
816.526	20275
816.666	20122
816.807	19936
816.948	19997
817.089	20024
817.23	19906
817.371	19856
817.512	19970
817.653	19871
817.793	19856
817.934	19883
818.075	20016
818.216	19883
818.356	19814
818.497	19719
818.638	19605
818.778	19613
818.919	19594
819.06	19609
819.2	19670
819.341	19814
819.481	19727
819.622	19879
819.762	20001
819.903	19993
820.043	19947
820.184	19913
820.324	19799
820.465	20020
820.605	19940
820.746	19947
820.886	19727
821.026	19811
821.167	19753
821.307	19906
821.447	19780
821.588	19734
821.728	19506
821.868	19476
822.008	19145
822.149	19274
822.289	19255
822.429	18973
822.569	18928
822.709	18993
822.849	18753
822.99	18795
823.13	18798
823.27	18726
823.41	18540
823.55	18559
823.69	18582
823.83	18574
823.97	18479
824.11	18350
824.25	18384
824.389	18391
824.529	18403
824.669	18281
824.809	18399
824.949	18490
825.089	18448
825.228	18334
825.368	18197
825.508	18216
825.648	18205
825.787	18159
825.927	18148
826.067	18144
826.206	18171
826.346	18205
826.485	18129
826.625	18106
826.765	18353
826.904	18201
827.044	18022
827.183	17946
827.323	17901
827.462	17851
827.601	17843
827.741	17798
827.88	17851
828.02	17775
828.159	17733
828.298	17859
828.437	17859
828.577	17752
828.716	17984
828.855	17805
828.994	17661
829.134	17638
829.273	17630
829.412	17497
829.551	17440
829.69	17490
829.829	17577
829.968	17756
830.107	17649
830.246	17551
830.385	17478
830.524	17562
830.663	17303
830.802	17307
830.941	17200
831.08	17273
831.219	17284
831.357	17174
831.496	17429
831.635	17178
831.774	17143
831.913	17067
832.051	17048
832.19	17083
832.329	17102
832.467	16938
832.606	16900
832.744	16839
832.883	16927
833.022	16885
833.16	16949
833.299	16847
833.437	16930
833.576	16934
833.714	16934
833.852	16949
833.991	17033
834.129	16980
834.267	17014
834.406	16919
834.544	17071
834.682	17064
834.821	16809
834.959	17102
835.097	16968
835.235	16915
835.373	16949
835.511	16923
835.65	17014
835.788	16847
835.926	16797
836.064	16656
836.202	16645
836.34	16809
836.478	16995
836.615	16843
836.753	16919
836.891	16946
837.029	16881
837.167	16839
837.305	16725
837.443	16831
837.58	16721
837.718	16812
837.856	16744
837.993	16744
838.131	16713
838.269	16645
838.406	16653
838.544	16550
838.681	16459
838.819	16424
838.956	16272
839.094	16287
839.231	16287
839.369	16447
839.506	16622
839.643	16440
839.781	16333
839.918	16249
840.055	16257
840.193	16207
840.33	16272
840.467	16318
840.604	16379
840.742	16462
840.879	16082
841.016	16139
841.153	16116
841.29	16314
841.427	16314
841.564	16268
841.701	16306
841.838	16215
841.975	16173
842.112	16188
842.249	16067
842.385	16025
842.522	16242
842.659	16093
842.796	15964
842.933	16097
843.069	15941
843.206	16055
843.343	16048
843.479	16021
843.616	16059
843.752	15800
843.889	15804
844.025	15994
844.162	15781
844.298	15994
844.435	15838
844.571	15907
844.708	15892
844.844	16097
844.98	15994
845.117	16040
845.253	15838
845.389	15766
845.525	15793
845.661	15850
845.798	15865
845.934	15941
846.07	15880
846.206	16067
846.342	15964
846.478	15838
846.614	15496
846.75	15401
846.886	15405
847.022	15473
847.158	15500
847.294	15458
847.429	15431
847.565	15458
847.701	15610
847.837	15161
847.972	15116
848.108	15157
848.244	15119
848.379	15062
848.515	15036
848.65	14944
848.786	14944
848.921	15028
849.057	15070
849.192	15112
849.328	15085
849.463	15062
849.598	15024
849.734	15024
849.869	14868
850.004	14830
850.14	14800
850.275	14693
850.41	14644
850.545	14739
850.68	14773
850.815	14902
850.95	14823
851.085	14963
851.22	14830
851.355	14758
851.49	14758
851.625	14705
851.76	14697
851.895	14705
852.03	14663
852.165	14739
852.299	14861
852.434	14823
852.569	14792
852.703	14800
852.838	14819
852.973	14838
853.107	14861
853.242	14754
853.376	14651
853.511	14480
853.645	14670
853.78	14727
853.914	14594
854.048	14530
854.183	14655
854.317	14640
854.451	14804
854.585	14575
854.72	14746
854.854	14678
854.988	14552
855.122	14556
855.256	14492
855.39	14606
855.524	14746
855.658	14678
855.792	14689
855.926	14644
856.06	14739
856.194	14712
856.327	14632
856.461	14602
856.595	14537
856.729	14511
856.862	14819
856.996	14644
857.13	14602
857.263	14689
857.397	14811
857.53	14590
857.664	14693
857.797	14754
857.931	14773
858.064	14670
858.197	14830
858.331	14613
858.464	14499
858.597	14594
858.731	14556
858.864	14632
858.997	14663
859.13	14526
859.263	14727
859.396	14716
859.529	14552
859.662	14575
859.795	14507
859.928	14678
860.061	14754
860.194	14891
860.327	14792
860.46	14568
860.592	14762
860.725	14716
860.858	14762
860.99	14583
861.123	14533
861.256	14552
861.388	14670
861.521	15382
861.653	14480
861.786	14552
861.918	14454
862.05	14522
862.183	14545
862.315	14571
862.447	14648
862.58	14568
862.712	14381
862.844	14415
862.976	14492
863.108	14473
863.24	14762
863.372	14309
863.504	14355
863.636	14381
863.768	14568
863.9	14473
864.032	14339
864.164	14374
864.296	14450
864.428	14545
864.559	14560
864.691	14480
864.823	14431
864.954	14385
865.086	14351
865.217	14511
865.349	14290
865.48	14351
865.612	14385
865.743	14644
865.875	14412
866.006	14358
866.137	14389
866.269	14427
866.4	14396
866.531	14313
866.662	14256
866.793	14294
866.924	14377
867.055	14423
867.186	14389
867.317	14351
867.448	14313
867.579	14393
867.71	14214
867.841	14210
867.972	14415
868.103	14332
868.233	14434
868.364	14396
868.495	14488
868.625	14610
868.756	14655
868.886	14473
869.017	14560
869.147	14773
869.278	14762
869.408	14670
869.539	14598
869.669	14777
869.799	14606
869.929	14777
870.06	14765
870.19	14902
870.32	14899
870.45	15013
870.58	14998
870.71	15123
870.84	15169
870.97	15093
871.1	15024
871.23	15192
871.36	15176
871.489	15165
871.619	15195
871.749	15180
871.879	15233
872.008	15237
872.138	15374
872.267	15294
872.397	15085
872.526	15070
872.656	15005
872.785	15036
872.915	15089
873.044	15348
873.173	15249
873.303	15393
873.432	15329
873.561	15256
873.69	15329
873.819	15230
873.948	15363
874.077	15389
874.206	15241
874.335	15454
874.464	15359
874.593	15610
874.722	15511
874.851	15622
874.979	15622
875.108	15682
875.237	15553
875.365	15507
875.494	15576
875.623	15690
875.751	15606
875.88	15698
876.008	15701
876.136	15838
876.265	16002
876.393	16109
876.521	16150
876.65	16059
876.778	15972
876.906	15907
877.034	15953
877.162	16040
877.29	15949
877.418	16044
877.546	16059
877.674	15937
877.802	16032
877.93	15972
878.058	16090
878.185	15865
878.313	16006
878.441	16040
878.568	15895
878.696	15960
878.824	16051
878.951	16048
879.079	16242
879.206	16375
879.333	16291
879.461	16196
879.588	16177
879.715	16299
879.842	16318
879.97	16246
880.097	15953
880.224	15941
880.351	15953
880.478	15869
880.605	15835
880.732	15911
880.859	16139
880.986	15884
881.112	15895
881.239	15728
881.366	15644
881.493	15564
881.619	15591
881.746	15557
881.872	15443
881.999	15492
882.125	15504
882.252	15633
882.378	15542
882.505	15732
882.631	15568
882.757	15325
882.883	15401
883.01	15397
883.136	15241
883.262	15184
883.388	15272
883.514	15443
883.64	15500
883.766	15268
883.892	15108
884.018	15173
884.143	15264
884.269	15363
884.395	15199
884.52	15104
884.646	15058
884.772	14963
884.897	15036
885.023	15005
885.148	15127
885.274	15176
885.399	15218
885.524	15062
885.65	15055
885.775	15127
885.9	15028
886.025	15146
886.15	15135
886.275	15051
886.4	14906
886.525	14994
886.65	15001
886.775	14895
886.9	15146
887.025	15207
887.149	14994
887.274	14895
887.399	14807
887.523	14807
887.648	14785
887.773	14724
887.897	14857
888.021	14929
888.146	14792
888.27	14960
888.395	15017
888.519	14842
888.643	14921
888.767	14937
888.891	14842
889.015	14727
889.139	14769
889.263	14674
889.387	14853
889.511	14918
889.635	14918
889.759	14708
889.883	14762
890.006	14838
890.13	14868
890.254	14621
890.377	14754
890.501	14556
890.624	14492
890.748	14484
890.871	14434
890.995	14393
891.118	14324
891.241	14355
891.364	14408
891.488	14514
891.611	14412
891.734	14423
891.857	14518
891.98	14465
892.103	14442
892.226	14484
892.349	14381
892.471	14218
892.594	14313
892.717	14419
892.839	14381
892.962	14427
893.085	14473
893.207	14415
893.33	14233
893.452	14309
893.575	14492
893.697	14313
893.819	14617
893.941	14545
894.064	14610
894.186	14396
894.308	14343
894.43	14438
894.552	14632
894.674	14606
894.796	14374
894.918	14396
895.04	14404
895.161	14594
895.283	14476
895.405	14446
895.526	14457
895.648	14404
895.769	14594
895.891	14606
896.012	14522
896.134	14518
896.255	14518
896.376	14564
896.498	14530
896.619	14541
896.74	14648
896.861	14716
896.982	14830
897.103	15131
897.224	14811
897.345	14880
897.466	14773
897.587	14750
897.708	14872
897.828	14952
897.949	14750
898.07	14804
898.19	14811
898.311	15058
898.431	14834
898.552	14853
898.672	15020
898.792	14937
898.913	14868
899.033	14792
899.153	14838
899.273	14708
899.393	14807
899.513	14773
899.633	14743
899.753	14769
899.873	14788
899.993	14868
900.113	14731
900.232	14788
900.352	14667
900.472	14579
900.591	14514
900.711	14594
900.83	14594
900.95	14667
901.069	14746
901.189	14598
901.308	14339
901.427	14271
901.546	14259
901.665	14320
901.784	14176
901.904	14123
902.023	14115
902.141	13894
902.26	13883
902.379	13951
902.498	13944
902.617	13845
902.735	13925
902.854	13814
902.973	13765
903.091	13601
903.21	13521
903.328	13616
903.446	13529
903.565	13457
903.683	13411
903.801	13346
903.919	13407
904.038	13430
904.156	13213
904.274	13327
904.392	13221
904.51	13179
904.627	13175
904.745	13221
904.863	13282
904.981	13076
905.098	12928
905.216	12924
905.334	12897
905.451	12863
905.569	12856
905.686	12947
905.803	12935
905.921	12760
906.038	12886
906.155	12749
906.272	12696
906.389	12673
906.506	12555
906.623	12369
906.74	12441
906.857	12342
906.974	12445
907.091	12525
907.208	12589
907.324	12597
907.441	12327
907.557	12353
907.674	12300
907.79	12213
907.907	12190
908.023	12247
908.139	12178
908.256	12087
908.372	12194
908.488	12117
908.604	12095
908.72	11954
908.836	11969
908.952	12038
909.068	12022
909.184	12076
909.3	11973
909.415	12045
909.531	12007
909.647	11866
909.762	11752
909.878	11745
909.993	11874
910.108	11741
910.224	11710
910.339	11752
910.454	11570
910.57	11630
910.685	11539
910.8	11832
910.915	11695
911.03	11710
911.145	11501
911.259	11467
911.374	11448
911.489	11436
911.604	11391
911.718	11208
911.833	11185
911.947	11147
912.062	11086
912.176	11155
912.291	11239
912.405	11220
912.519	11444
912.633	11414
912.748	11322
912.862	11254
912.976	11014
913.09	11003
913.204	10984
913.318	11075
913.431	11155
913.545	11136
913.659	11277
913.772	11048
913.886	10995
914	10965
914.113	11033
914.226	11170
914.34	11018
914.453	10889
914.566	11064
914.68	10923
914.793	10946
914.906	10675
915.019	10729
915.132	10626
915.245	10645
915.358	10702
915.47	10710
915.583	10748
915.696	10733
915.809	10892
915.921	10885
916.034	10729
916.146	10793
916.259	10653
916.371	10706
916.483	10702
916.595	10668
916.708	10683
916.82	10656
916.932	10630
917.044	10599
917.156	10580
917.268	10405
917.38	10481
917.491	10542
917.603	10497
917.715	10588
917.826	10675
917.938	10493
918.049	10405
918.161	10531
918.272	10637
918.384	10656
918.495	10558
918.606	10428
918.717	10390
918.828	10394
918.939	10436
919.05	10329
919.161	10325
919.272	10188
919.383	10291
919.494	10428
919.604	10550
919.715	10455
919.826	10356
919.936	10379
920.047	10489
920.157	10478
920.267	10668
920.378	10466
920.488	10470
920.598	10630
920.708	10698
920.818	10641
920.928	10672
921.038	10744
921.148	10733
921.258	10470
921.368	10428
921.477	10261
921.587	10219
921.697	10196
921.806	10215
921.916	10166
922.025	9964
922.134	9960
922.244	9934
922.353	10078
922.462	9930
922.571	9819
922.68	9667
922.789	9648
922.898	9705
923.007	9633
923.116	9652
923.224	9679
923.333	9614
923.442	9584
923.55	9584
923.659	9580
923.767	9652
923.876	9591
923.984	9648
924.092	9424
924.201	9549
924.309	9534
924.417	9511
924.525	9477
924.633	9507
924.741	10394
924.849	9272
924.956	9412
925.064	9283
925.172	9249
925.279	9283
925.387	9317
925.494	9287
925.602	9386
925.709	9344
925.816	9245
925.924	9340
926.031	9348
926.138	9329
926.245	9401
926.352	9218
926.459	9405
926.566	9420
926.673	9226
926.779	9192
926.886	9237
926.993	9051
927.099	9017
927.206	8952
927.312	8982
927.419	9085
927.525	8994
927.631	9097
927.737	8979
927.843	8887
927.95	8743
928.056	8937
928.162	8834
928.267	8876
928.373	9568
928.479	9047
928.585	8766
928.69	8918
928.796	8956
928.901	8861
929.007	8667
929.112	8853
929.218	8781
929.323	8739
929.428	8655
929.533	8796
929.638	8640
929.743	8644
929.848	8735
929.953	8708
930.058	8617
930.163	8503
930.267	8568
930.372	8716
930.477	8457
930.581	8705
930.685	8598
930.79	8423
930.894	8389
930.998	8438
931.103	8606
931.207	8199
931.311	8218
931.415	8142
931.519	7951
931.623	7894
