Data from test_V78500241_1642.txt Node
Date: Fri Mar 25 14:45:08 CST 2022
User: usil
Spectrometer: V785-0024
Trigger mode: 0
Integration Time (sec): 4.000000E-1
Scans to average: 1
Nonlinearity correction enabled: false
Boxcar width: 0
Storing dark spectrum: false
XAxis mode: Wavelengths
Number of Pixels in Spectrum: 1024
>>>>>Begin Spectral Data<<<<<
801.071	22344
801.214	22135
801.356	21903
801.499	21876
801.641	21736
801.783	21728
801.926	21625
802.068	21572
802.211	21572
802.353	21408
802.496	21192
802.638	21199
802.78	21017
802.923	21093
803.065	21032
803.208	20937
803.35	20937
803.492	21116
803.635	21173
803.777	21055
803.919	21157
804.061	21367
804.204	21119
804.346	20948
804.488	20899
804.63	20921
804.773	20842
804.915	20944
805.057	21024
805.199	20925
805.341	20910
805.483	21001
805.626	21058
805.768	20929
805.91	20891
806.052	20830
806.194	20834
806.336	21104
806.478	20838
806.62	20830
806.762	20853
806.904	21268
807.046	21237
807.188	21184
807.33	21275
807.472	21260
807.614	21188
807.756	21245
807.898	21184
808.04	20982
808.182	20963
808.324	21123
808.465	21142
808.607	21279
808.749	21481
808.891	21511
809.033	21526
809.174	21511
809.316	21310
809.458	21393
809.6	21405
809.741	21367
809.883	21405
810.025	21530
810.166	21557
810.308	21515
810.45	21473
810.591	21435
810.733	21108
810.875	21123
811.016	21146
811.158	20948
811.299	21214
811.441	21226
811.582	21268
811.724	21142
811.865	21036
812.007	20990
812.148	20990
812.29	21135
812.431	21176
812.573	21412
812.714	21466
812.855	21648
812.997	21739
813.138	21979
813.279	21724
813.421	21618
813.562	21656
813.703	21408
813.845	21245
813.986	21036
814.127	20720
814.268	20579
814.41	20705
814.551	20651
814.692	20667
814.833	20636
814.974	20640
815.115	20640
815.256	20488
815.397	20434
815.539	20571
815.68	20320
815.821	20336
815.962	20396
816.103	20362
816.244	20256
816.385	20138
816.526	20172
816.666	19894
816.807	19955
816.948	19887
817.089	19955
817.23	19799
817.371	19818
817.512	19685
817.653	19799
817.793	19761
817.934	19811
818.075	19807
818.216	19761
818.356	19727
818.497	19616
818.638	19460
818.778	19460
818.919	19464
819.06	19525
819.2	19700
819.341	19769
819.481	19666
819.622	19784
819.762	19982
819.903	19947
820.043	19868
820.184	19677
820.324	19696
820.465	19871
820.605	19818
820.746	19795
820.886	19643
821.026	19784
821.167	19723
821.307	19761
821.447	19708
821.588	19567
821.728	19453
821.868	19350
822.008	19164
822.149	19213
822.289	19088
822.429	18913
822.569	18852
822.709	18802
822.849	18612
822.99	18741
823.13	18753
823.27	18658
823.41	18460
823.55	18422
823.69	18513
823.83	18418
823.97	18277
824.11	18251
824.25	18220
824.389	18254
824.529	18224
824.669	18266
824.809	18357
824.949	18304
825.089	18308
825.228	18254
825.368	18087
825.508	18045
825.648	18133
825.787	18083
825.927	18144
826.067	17923
826.206	18015
826.346	18049
826.485	17980
826.625	17961
826.765	18106
826.904	18003
827.044	17817
827.183	17832
827.323	17623
827.462	17817
827.601	17813
827.741	17756
827.88	17718
828.02	17577
828.159	17577
828.298	17756
828.437	17775
828.577	17646
828.716	17714
828.855	17642
828.994	17379
829.134	17452
829.273	17543
829.412	17383
829.551	17376
829.69	17414
829.829	17444
829.968	17539
830.107	17482
830.246	17562
830.385	17334
830.524	17372
830.663	17296
830.802	17128
830.941	16976
831.08	17067
831.219	17113
831.357	17128
831.496	17322
831.635	17033
831.774	16957
831.913	16915
832.051	16839
832.19	16805
832.329	16915
832.467	16717
832.606	16725
832.744	16767
832.883	16733
833.022	16752
833.16	16698
833.299	16767
833.437	16752
833.576	16820
833.714	16767
833.852	16793
833.991	16820
834.129	16824
834.267	16793
834.406	16767
834.544	16854
834.682	16683
834.821	16869
834.959	16968
835.097	16809
835.235	16946
835.373	16828
835.511	16820
835.65	16721
835.788	16687
835.926	16470
836.064	16596
836.202	16592
836.34	16725
836.478	16748
836.615	16683
836.753	16656
836.891	16782
837.029	16740
837.167	16675
837.305	16607
837.443	16615
837.58	16481
837.718	16596
837.856	16599
837.993	16497
838.131	16565
838.269	16421
838.406	16348
838.544	16443
838.681	16276
838.819	16272
838.956	16093
839.094	16181
839.231	16166
839.369	16257
839.506	16474
839.643	16382
839.781	16071
839.918	16013
840.055	16143
840.193	16082
840.33	16109
840.467	16025
840.604	16139
840.742	16306
840.879	15968
841.016	15998
841.153	16105
841.29	16177
841.427	16006
841.564	16128
841.701	16166
841.838	16013
841.975	15956
842.112	16059
842.249	15831
842.385	15892
842.522	16131
842.659	15926
842.796	15823
842.933	15937
843.069	15812
843.206	15812
843.343	15884
843.479	15922
843.616	15816
843.752	15614
843.889	15633
844.025	15827
844.162	15599
844.298	15854
844.435	15747
844.571	15644
844.708	15759
844.844	15785
844.98	15774
845.117	15846
845.253	15656
845.389	15435
845.525	15545
845.661	15622
845.798	15458
845.934	15606
846.07	15500
846.206	15610
846.342	15747
846.478	15454
846.614	15302
846.75	15169
846.886	15176
847.022	15435
847.158	15237
847.294	15211
847.429	15313
847.565	15275
847.701	15473
847.837	14990
847.972	15028
848.108	15116
848.244	14872
848.379	14906
848.515	14750
848.65	14883
848.786	14967
848.921	14777
849.057	14933
849.192	14925
849.328	14861
849.463	14777
849.598	14842
849.734	14720
849.869	14625
850.004	14594
850.14	14648
850.275	14670
850.41	14583
850.545	14492
850.68	14564
850.815	14648
850.95	14670
851.085	14819
851.22	14765
851.355	14526
851.49	14621
851.625	14552
851.76	14533
851.895	14492
852.03	14503
852.165	14610
852.299	14640
852.434	14613
852.569	14629
852.703	14587
852.838	14693
852.973	14606
853.107	14697
853.242	14514
853.376	14492
853.511	14408
853.645	14400
853.78	14492
853.914	14454
854.048	14396
854.183	14419
854.317	14507
854.451	14587
854.585	14431
854.72	14377
854.854	14499
854.988	14454
855.122	14400
855.256	14347
855.39	14332
855.524	14514
855.658	14511
855.792	14499
855.926	14454
856.06	14511
856.194	14476
856.327	14473
856.461	14427
856.595	14442
856.729	14336
856.862	14549
856.996	14442
857.13	14507
857.263	14560
857.397	14575
857.53	14587
857.664	14495
857.797	14461
857.931	14598
858.064	14488
858.197	14492
858.331	14423
858.464	14495
858.597	14366
858.731	14267
858.864	14393
858.997	14476
859.13	14415
859.263	14503
859.396	14537
859.529	14336
859.662	14355
859.795	14469
859.928	14499
860.061	14598
860.194	14674
860.327	14522
860.46	14465
860.592	14514
860.725	14579
860.858	14541
860.99	14336
861.123	14446
861.256	14385
861.388	14450
861.521	15233
861.653	14347
861.786	14252
861.918	14347
862.05	14415
862.183	14408
862.315	14408
862.447	14476
862.58	14355
862.712	14206
862.844	14259
862.976	14248
863.108	14237
863.24	14708
863.372	14176
863.504	14218
863.636	14153
863.768	14317
863.9	14195
864.032	14206
864.164	14202
864.296	14271
864.428	14332
864.559	14233
864.691	14313
864.823	14263
864.954	14161
865.086	14237
865.217	14195
865.349	14088
865.48	14161
865.612	14199
865.743	14454
865.875	14195
866.006	14259
866.137	14301
866.269	14164
866.4	14058
866.531	14202
866.662	14153
866.793	14195
866.924	14126
867.055	14191
867.186	14081
867.317	14161
867.448	14119
867.579	14088
867.71	14191
867.841	14119
867.972	14225
868.103	14100
868.233	14282
868.364	14294
868.495	14225
868.625	14423
868.756	14541
868.886	14385
869.017	14492
869.147	14625
869.278	14530
869.408	14522
869.539	14488
869.669	14587
869.799	14530
869.929	14629
870.06	14754
870.19	14754
870.32	14773
870.45	14933
870.58	14864
870.71	15036
870.84	14921
870.97	14906
871.1	14853
871.23	15013
871.36	15146
871.489	15024
871.619	15043
871.749	15062
871.879	15062
872.008	15195
872.138	15112
872.267	14990
872.397	15005
872.526	14891
872.656	14880
872.785	14857
872.915	15123
873.044	15176
873.173	15119
873.303	15218
873.432	15150
873.561	15165
873.69	15176
873.819	15157
873.948	15214
874.077	15260
874.206	15051
874.335	15150
874.464	15313
874.593	15538
874.722	15340
874.851	15553
874.979	15523
875.108	15526
875.237	15447
875.365	15393
875.494	15473
875.623	15496
875.751	15447
875.88	15481
876.008	15641
876.136	15663
876.265	15892
876.393	15983
876.521	15937
876.65	16032
876.778	15812
876.906	15842
877.034	15812
877.162	15812
877.29	15770
877.418	15827
877.546	15968
877.674	15956
877.802	15838
877.93	15873
878.058	15865
878.185	15766
878.313	15816
878.441	15994
878.568	15789
878.696	15766
878.824	15915
878.951	15865
879.079	16067
879.206	16200
879.333	16021
879.461	15979
879.588	16071
879.715	16032
879.842	16257
879.97	16006
880.097	15755
880.224	15770
880.351	15739
880.478	15686
880.605	15656
880.732	15770
880.859	16021
880.986	15720
881.112	15751
881.239	15606
881.366	15507
881.493	15408
881.619	15332
881.746	15454
881.872	15370
881.999	15325
882.125	15329
882.252	15481
882.378	15416
882.505	15572
882.631	15340
882.757	15298
882.883	15317
883.01	15252
883.136	15089
883.262	15070
883.388	15058
883.514	15226
883.64	15169
883.766	15180
883.892	14975
884.018	14982
884.143	15180
884.269	15348
884.395	15017
884.52	14895
884.646	14971
884.772	14811
884.897	14834
885.023	14834
885.148	14986
885.274	15028
885.399	15001
885.524	14743
885.65	14891
885.775	14906
885.9	14906
886.025	14971
886.15	14906
886.275	14918
886.4	14716
886.525	14910
886.65	14773
886.775	14830
886.9	14963
887.025	15131
887.149	14872
887.274	14765
887.399	14621
887.523	14708
887.648	14746
887.773	14648
887.897	14845
888.021	14834
888.146	14640
888.27	14765
888.395	14796
888.519	14800
888.643	14746
888.767	14864
888.891	14632
889.015	14461
889.139	14636
889.263	14541
889.387	14800
889.511	14765
889.635	14712
889.759	14579
889.883	14518
890.006	14598
890.13	14678
890.254	14396
890.377	14552
890.501	14404
890.624	14320
890.748	14412
890.871	14290
890.995	14237
891.118	14229
891.241	14362
891.364	14366
891.488	14442
891.611	14332
891.734	14301
891.857	14317
891.98	14320
892.103	14366
892.226	14290
892.349	14324
892.471	14191
892.594	14233
892.717	14282
892.839	14271
892.962	14332
893.085	14351
893.207	14225
893.33	14164
893.452	14210
893.575	14427
893.697	14195
893.819	14434
893.941	14495
894.064	14454
894.186	14358
894.308	14210
894.43	14408
894.552	14503
894.674	14328
894.796	14320
894.918	14301
895.04	14366
895.161	14480
895.283	14263
895.405	14355
895.526	14465
895.648	14400
895.769	14400
895.891	14450
896.012	14511
896.134	14465
896.255	14511
896.376	14461
896.498	14465
896.619	14564
896.74	14492
896.861	14518
896.982	14804
897.103	14979
897.224	14708
897.345	14735
897.466	14655
897.587	14720
897.708	14781
897.828	14746
897.949	14716
898.07	14560
898.19	14667
898.311	14849
898.431	14716
898.552	14826
898.672	14849
898.792	14842
898.913	14785
899.033	14644
899.153	14682
899.273	14587
899.393	14571
899.513	14625
899.633	14583
899.753	14632
899.873	14629
899.993	14606
900.113	14648
900.232	14705
900.352	14587
900.472	14590
900.591	14503
900.711	14533
900.83	14412
900.95	14560
901.069	14682
901.189	14419
901.308	14187
901.427	14218
901.546	14176
901.665	14225
901.784	14161
901.904	14054
902.023	14054
902.141	13970
902.26	13807
902.379	13765
902.498	13765
902.617	13681
902.735	13712
902.854	13677
902.973	13674
903.091	13457
903.21	13464
903.328	13525
903.446	13464
903.565	13324
903.683	13293
903.801	13285
903.919	13365
904.038	13270
904.156	13122
904.274	13247
904.392	13122
904.51	13091
904.627	13129
904.745	13107
904.863	13213
904.981	12859
905.098	12909
905.216	12848
905.334	12768
905.451	12795
905.569	12844
905.686	12795
905.803	12859
905.921	12646
906.038	12715
906.155	12681
906.272	12525
906.389	12593
906.506	12521
906.623	12448
906.74	12426
906.857	12315
906.974	12372
907.091	12513
907.208	12563
907.324	12479
907.441	12369
907.557	12117
907.674	12220
907.79	12121
907.907	12110
908.023	12133
908.139	12163
908.256	12125
908.372	12064
908.488	12034
908.604	11870
908.72	11851
908.836	11931
908.952	11832
909.068	11927
909.184	11973
909.3	11950
909.415	11950
909.531	11923
909.647	11756
909.762	11733
909.878	11649
909.993	11653
910.108	11649
910.224	11566
910.339	11649
910.454	11471
910.57	11558
910.685	11490
910.8	11764
910.915	11653
911.03	11581
911.145	11433
911.259	11246
911.374	11269
911.489	11288
911.604	11254
911.718	11155
911.833	11086
911.947	11045
912.062	10904
912.176	11048
912.291	11094
912.405	11140
912.519	11250
912.633	11292
912.748	11208
912.862	11162
912.976	10999
913.09	10984
913.204	10968
913.318	11098
913.431	11136
913.545	11029
913.659	11181
913.772	10968
913.886	10949
914	10915
914.113	10984
914.226	10984
914.34	10953
914.453	10793
914.566	10911
914.68	10809
914.793	10793
914.906	10664
915.019	10561
915.132	10428
915.245	10538
915.358	10588
915.47	10733
915.583	10691
915.696	10698
915.809	10790
915.921	10717
916.034	10569
916.146	10573
916.259	10531
916.371	10660
916.483	10687
916.595	10569
916.708	10485
916.82	10588
916.932	10493
917.044	10615
917.156	10447
917.268	10394
917.38	10455
917.491	10402
917.603	10516
917.715	10512
917.826	10558
917.938	10440
918.049	10337
918.161	10584
918.272	10626
918.384	10622
918.495	10500
918.606	10265
918.717	10227
918.828	10360
918.939	10348
919.05	10234
919.161	10276
919.272	10166
919.383	10227
919.494	10322
919.604	10596
919.715	10421
919.826	10211
919.936	10280
920.047	10432
920.157	10360
920.267	10523
920.378	10413
920.488	10363
920.598	10523
920.708	10714
920.818	10550
920.928	10535
921.038	10672
921.148	10641
921.258	10356
921.368	10409
921.477	10162
921.587	10204
921.697	10101
921.806	10192
921.916	10101
922.025	10006
922.134	9960
922.244	9835
922.353	9873
922.462	9781
922.571	9709
922.68	9652
922.789	9584
922.898	9576
923.007	9504
923.116	9553
923.224	9557
923.333	9633
923.442	9530
923.55	9447
923.659	9473
923.767	9553
923.876	9458
923.984	9576
924.092	9310
924.201	9488
924.309	9439
924.417	9447
924.525	9363
924.633	9344
924.741	10200
924.849	9203
924.956	9412
925.064	9176
925.172	9112
925.279	9195
925.387	9192
925.494	9188
925.602	9355
925.709	9386
925.816	9245
925.924	9275
926.031	9363
926.138	9146
926.245	9321
926.352	9097
926.459	9287
926.566	9382
926.673	9142
926.779	9089
926.886	9127
926.993	8925
927.099	8960
927.206	8864
927.312	8887
927.419	8982
927.525	8918
927.631	8948
927.737	8872
927.843	8769
927.95	8724
928.056	8845
928.162	8842
928.267	8925
928.373	9416
928.479	8891
928.585	8716
928.69	8807
928.796	8910
928.901	8766
929.007	8659
929.112	8705
929.218	8693
929.323	8625
929.428	8640
929.533	8807
929.638	8655
929.743	8697
929.848	8708
929.953	8632
930.058	8507
930.163	8434
930.267	8434
930.372	8549
930.477	8404
930.581	8621
930.685	8442
930.79	8377
930.894	8385
930.998	8317
931.103	8511
931.207	8180
931.311	8054
931.415	8043
931.519	7890
931.623	7849
