Data from test_V78500241_148.txt Node
Date: Fri Mar 25 14:34:45 CST 2022
User: usil
Spectrometer: V785-0024
Trigger mode: 0
Integration Time (sec): 4.000000E-1
Scans to average: 1
Nonlinearity correction enabled: false
Boxcar width: 0
Storing dark spectrum: false
XAxis mode: Wavelengths
Number of Pixels in Spectrum: 1024
>>>>>Begin Spectral Data<<<<<
801.071	29242
801.214	29364
801.356	28888
801.499	28885
801.641	28873
801.783	28908
801.926	28869
802.068	28835
802.211	28721
802.353	28675
802.496	28531
802.638	28379
802.78	28535
802.923	28455
803.065	28299
803.208	28459
803.35	28542
803.492	28554
803.635	28588
803.777	28557
803.919	28744
804.061	28961
804.204	28599
804.346	28679
804.488	28569
804.63	28584
804.773	28459
804.915	28733
805.057	28752
805.199	28828
805.341	28786
805.483	28782
805.626	28904
805.768	28812
805.91	29044
806.052	29052
806.194	29044
806.336	29284
806.478	29174
806.62	29197
806.762	29436
806.904	29703
807.046	29920
807.188	29977
807.33	30152
807.472	30509
807.614	30578
807.756	30920
807.898	31240
808.04	31753
808.182	32552
808.324	33614
808.465	34683
808.607	35866
808.749	36943
808.891	37750
809.033	37677
809.174	36859
809.316	35745
809.458	34557
809.6	33401
809.741	32370
809.883	31875
810.025	31350
810.166	31072
810.308	30623
810.45	30422
810.591	30174
810.733	29950
810.875	29745
811.016	29722
811.158	29425
811.299	29497
811.441	29558
811.582	29539
811.724	29292
811.865	29337
812.007	29208
812.148	29311
812.29	29109
812.431	29375
812.573	29436
812.714	29436
812.855	29642
812.997	29764
813.138	29783
813.279	29729
813.421	29589
813.562	29535
813.703	29292
813.845	29193
813.986	29159
814.127	28828
814.268	28706
814.41	28569
814.551	28649
814.692	28565
814.833	28504
814.974	28660
815.115	28664
815.256	28322
815.397	28447
815.539	28246
815.68	28276
815.821	28219
815.962	28185
816.103	28242
816.244	28131
816.385	27937
816.526	27854
816.666	27876
816.807	27599
816.948	27667
817.089	27682
817.23	27671
817.371	27644
817.512	27698
817.653	27595
817.793	27542
817.934	27473
818.075	27466
818.216	27595
818.356	27507
818.497	27351
818.638	27233
818.778	27405
818.919	27138
819.06	27279
819.2	27412
819.341	27462
819.481	27450
819.622	27572
819.762	27831
819.903	27778
820.043	27622
820.184	27443
820.324	27488
820.465	27622
820.605	27473
820.746	27485
820.886	27431
821.026	27488
821.167	27424
821.307	27485
821.447	27291
821.588	27256
821.728	27089
821.868	26948
822.008	26765
822.149	26727
822.289	26765
822.429	26594
822.569	26473
822.709	26408
822.849	26218
822.99	26119
823.13	26221
823.27	26252
823.41	26035
823.55	26016
823.69	26008
823.83	26062
823.97	25989
824.11	25788
824.25	25753
824.389	25807
824.529	25788
824.669	25944
824.809	25849
824.949	25921
825.089	25871
825.228	25966
825.368	25674
825.508	25514
825.648	25704
825.787	25552
825.927	25651
826.067	25605
826.206	25624
826.346	25670
826.485	25628
826.625	25605
826.765	25791
826.904	25609
827.044	25483
827.183	25472
827.323	25354
827.462	25346
827.601	25263
827.741	25179
827.88	25266
828.02	25110
828.159	25202
828.298	25403
828.437	25278
828.577	25244
828.716	25320
828.855	25187
828.994	25027
829.134	25110
829.273	25171
829.412	24920
829.551	24810
829.69	24905
829.829	25015
829.968	24894
830.107	24981
830.246	25034
830.385	24939
830.524	24806
830.663	24711
830.802	24661
830.941	24525
831.08	24467
831.219	24544
831.357	24612
831.496	24707
831.635	24517
831.774	24315
831.913	24479
832.051	24403
832.19	24292
832.329	24289
832.467	24205
832.606	24155
832.744	24235
832.883	24258
833.022	24121
833.16	24467
833.299	24475
833.437	24429
833.576	24570
833.714	24483
833.852	24585
833.991	24642
834.129	24597
834.267	24681
834.406	24540
834.544	24547
834.682	24650
834.821	24460
834.959	24582
835.097	24388
835.235	24213
835.373	24308
835.511	24251
835.65	24121
835.788	23927
835.926	23893
836.064	23885
836.202	23931
836.34	24041
836.478	24106
836.615	23984
836.753	23783
836.891	24068
837.029	23984
837.167	23977
837.305	23878
837.443	23752
837.58	23726
837.718	23843
837.856	23775
837.993	23733
838.131	23672
838.269	23592
838.406	23634
838.544	23592
838.681	23334
838.819	23303
838.956	23143
839.094	23242
839.231	23277
839.369	23478
839.506	23570
839.643	23429
839.781	23140
839.918	23064
840.055	23162
840.193	23018
840.33	23098
840.467	23029
840.604	22961
840.742	23315
840.879	22965
841.016	23071
841.153	22930
841.29	23143
841.427	22968
841.564	23159
841.701	23071
841.838	23052
841.975	22919
842.112	22942
842.249	22877
842.385	22812
842.522	22968
842.659	22847
842.796	22854
842.933	22801
843.069	22911
843.206	22782
843.343	22885
843.479	22831
843.616	22900
843.752	22748
843.889	22687
844.025	22748
844.162	22736
844.298	22816
844.435	22927
844.571	22892
844.708	22896
844.844	23200
844.98	23193
845.117	23505
845.253	23821
845.389	24159
845.525	25495
845.661	27473
845.798	29821
845.934	31890
846.07	32655
846.206	32263
846.342	30859
846.478	28185
846.614	25841
846.75	24361
846.886	23649
847.022	23064
847.158	22915
847.294	22470
847.429	22459
847.565	22287
847.701	22523
847.837	22143
847.972	21884
848.108	21865
848.244	21915
848.379	21675
848.515	21724
848.65	21519
848.786	21637
848.921	21606
849.057	21679
849.192	21648
849.328	21755
849.463	21549
849.598	21485
849.734	21416
849.869	21363
850.004	21344
850.14	21325
850.275	21355
850.41	21233
850.545	21157
850.68	21348
850.815	21302
850.95	21252
851.085	21393
851.22	21462
851.355	21252
851.49	21340
851.625	21154
851.76	21245
851.895	21116
852.03	21180
852.165	21279
852.299	21310
852.434	21313
852.569	21264
852.703	21165
852.838	21332
852.973	21515
853.107	21401
853.242	21222
853.376	21161
853.511	20944
853.645	21249
853.78	21233
853.914	21218
854.048	21214
854.183	21207
854.317	21195
854.451	21393
854.585	21161
854.72	21256
854.854	21348
854.988	21108
855.122	21218
855.256	21055
855.39	21188
855.524	21127
855.658	21154
855.792	21180
855.926	21131
856.06	21074
856.194	21214
856.327	21032
856.461	21123
856.595	21039
856.729	21066
856.862	21230
856.996	21184
857.13	21165
857.263	21176
857.397	21020
857.53	20967
857.664	21081
857.797	21108
857.931	21085
858.064	21017
858.197	21039
858.331	21051
858.464	20899
858.597	20887
858.731	21024
858.864	21013
858.997	20834
859.13	20967
859.263	21043
859.396	21074
859.529	20937
859.662	20963
859.795	20887
859.928	20921
860.061	21017
860.194	21112
860.327	21005
860.46	20857
860.592	21142
860.725	21096
860.858	21074
860.99	20921
861.123	20823
861.256	20773
861.388	20868
861.521	21572
861.653	20773
861.786	20727
861.918	20899
862.05	20804
862.183	20861
862.315	21005
862.447	20929
862.58	20914
862.712	20659
862.844	20716
862.976	20769
863.108	20644
863.24	20937
863.372	20571
863.504	20667
863.636	20640
863.768	20613
863.9	20651
864.032	20575
864.164	20609
864.296	20644
864.428	20750
864.559	20659
864.691	20644
864.823	20537
864.954	20587
865.086	20503
865.217	20488
865.349	20366
865.48	20465
865.612	20499
865.743	20689
865.875	20655
866.006	20499
866.137	20507
866.269	20465
866.4	20522
866.531	20511
866.662	20427
866.793	20320
866.924	20469
867.055	20514
867.186	20465
867.317	20484
867.448	20290
867.579	20309
867.71	20248
867.841	20313
867.972	20454
868.103	20385
868.233	20431
868.364	20495
868.495	20412
868.625	20682
868.756	20758
868.886	20583
869.017	20644
869.147	20648
869.278	20819
869.408	20754
869.539	20613
869.669	20754
869.799	20663
869.929	20754
870.06	20731
870.19	21039
870.32	21005
870.45	21062
870.58	21051
870.71	21074
870.84	21226
870.97	21001
871.1	21093
871.23	21294
871.36	21272
871.489	21146
871.619	21401
871.749	21344
871.879	21249
872.008	21504
872.138	21393
872.267	21374
872.397	21203
872.526	21218
872.656	21138
872.785	21317
872.915	21351
873.044	21469
873.173	21298
873.303	21336
873.432	21389
873.561	21488
873.69	21336
873.819	21332
873.948	21462
874.077	21450
874.206	21428
874.335	21416
874.464	21504
874.593	21755
874.722	21656
874.851	21884
874.979	21819
875.108	21793
875.237	21641
875.365	21660
875.494	21713
875.623	21823
875.751	21762
875.88	21945
876.008	21968
876.136	22013
876.265	22261
876.393	22478
876.521	22462
876.65	22565
876.778	22459
876.906	22462
877.034	22299
877.162	22424
877.29	22382
877.418	22557
877.546	22584
877.674	22462
877.802	22557
877.93	22645
878.058	22710
878.185	22858
878.313	22767
878.441	23022
878.568	23006
878.696	23208
878.824	23608
878.951	23897
879.079	24715
879.206	25422
879.333	26153
879.461	26724
879.588	27150
879.715	27245
879.842	26948
879.97	26115
880.097	25221
880.224	24441
880.351	24178
880.478	23878
880.605	23589
880.732	23524
880.859	23649
880.986	23307
881.112	23345
881.239	23185
881.366	23140
881.493	22934
881.619	22908
881.746	22942
881.872	22801
881.999	22968
882.125	22816
882.252	22949
882.378	22953
882.505	23098
882.631	22873
882.757	22740
882.883	22839
883.01	22748
883.136	22683
883.262	22569
883.388	22546
883.514	22778
883.64	22774
883.766	22561
883.892	22557
884.018	22478
884.143	22599
884.269	22805
884.395	22337
884.52	22367
884.646	22462
884.772	22386
884.897	22181
885.023	22318
885.148	22443
885.274	22413
885.399	22436
885.524	22215
885.65	22219
885.775	22154
885.9	22067
886.025	22207
886.15	22074
886.275	21819
886.4	21686
886.525	21869
886.65	21660
886.775	21812
886.9	21812
887.025	21865
887.149	21747
887.274	21477
887.399	21477
887.523	21374
887.648	21161
887.773	21230
887.897	21279
888.021	21344
888.146	21230
888.27	21329
888.395	21150
888.519	21233
888.643	21218
888.767	21272
888.891	20971
889.015	20845
889.139	20963
889.263	20769
889.387	20785
889.511	20998
889.635	20925
889.759	20712
889.883	20750
890.006	20838
890.13	20902
890.254	20632
890.377	20655
890.501	20568
890.624	20427
890.748	20450
890.871	20339
890.995	20244
891.118	20210
891.241	20271
891.364	20309
891.488	20419
891.611	20161
891.734	20294
891.857	20244
891.98	20115
892.103	20263
892.226	20210
892.349	20199
892.471	20043
892.594	20073
892.717	20046
892.839	20058
892.962	20092
893.085	20119
893.207	19925
893.33	19974
893.452	20024
893.575	20084
893.697	19875
893.819	20088
893.941	20161
894.064	20111
894.186	19928
894.308	19807
894.43	20020
894.552	20005
894.674	20027
894.796	19765
894.918	19795
895.04	19871
895.161	19928
895.283	19826
895.405	19757
895.526	19788
895.648	19849
895.769	19913
895.891	19803
896.012	19898
896.134	19986
896.255	19830
896.376	19906
896.498	19799
896.619	19936
896.74	19879
896.861	20005
896.982	20221
897.103	20301
897.224	20153
897.345	19989
897.466	20008
897.587	20039
897.708	20157
897.828	19993
897.949	19970
898.07	19936
898.19	19963
898.311	20077
898.431	19947
898.552	19970
898.672	19879
898.792	19959
898.913	19974
899.033	19833
899.153	19761
899.273	19731
899.393	19643
899.513	19746
899.633	19651
899.753	19582
899.873	19567
899.993	19708
900.113	19620
900.232	19616
900.352	19594
900.472	19643
900.591	19518
900.711	19540
900.83	19483
900.95	19590
901.069	19514
901.189	19392
901.308	19171
901.427	19148
901.546	19091
901.665	19088
901.784	19118
901.904	18932
902.023	18802
902.141	18601
902.26	18665
902.379	18665
902.498	18612
902.617	18521
902.735	18506
902.854	18585
902.973	18418
903.091	18254
903.21	18277
903.328	18213
903.446	18076
903.565	18060
903.683	18095
903.801	17870
903.919	17935
904.038	17851
904.156	17775
904.274	17832
904.392	17771
904.51	17786
904.627	17695
904.745	17813
904.863	17798
904.981	17509
905.098	17535
905.216	17543
905.334	17387
905.451	17471
905.569	17402
905.686	17448
905.803	17326
905.921	17189
906.038	17349
906.155	17121
906.272	17048
906.389	17098
906.506	16991
906.623	16930
906.74	16946
906.857	16847
906.974	16828
907.091	16968
907.208	16961
907.324	16946
907.441	16877
907.557	16740
907.674	16599
907.79	16497
907.907	16546
908.023	16523
908.139	16675
908.256	16485
908.372	16466
908.488	16546
908.604	16390
908.72	16257
908.836	16462
908.952	16211
909.068	16337
909.184	16306
909.3	16291
909.415	16276
909.531	16333
909.647	16071
909.762	15968
909.878	15994
909.993	16025
910.108	15975
910.224	15964
910.339	15945
910.454	15842
910.57	15793
910.685	15873
910.8	15972
910.915	15960
911.03	15850
911.145	15633
911.259	15648
911.374	15671
911.489	15469
911.604	15477
911.718	15325
911.833	15302
911.947	15154
912.062	15154
912.176	15302
912.291	15382
912.405	15294
912.519	15401
912.633	15561
912.748	15397
912.862	15233
912.976	15180
913.09	15036
913.204	15184
913.318	15176
913.431	15165
913.545	15176
913.659	15207
913.772	15146
913.886	14963
914	14948
914.113	15089
914.226	15169
914.34	14971
914.453	14861
914.566	15032
914.68	14921
914.793	14857
914.906	14621
915.019	14648
915.132	14526
915.245	14575
915.358	14564
915.47	14556
915.583	14564
915.696	14621
915.809	14617
915.921	14705
916.034	14549
916.146	14484
916.259	14507
916.371	14571
916.483	14568
916.595	14511
916.708	14419
916.82	14328
916.932	14404
917.044	14446
917.156	14381
917.268	14282
917.38	14275
917.491	14328
917.603	14332
917.715	14328
917.826	14317
917.938	14172
918.049	14119
918.161	14229
918.272	14336
918.384	14313
918.495	14168
918.606	14069
918.717	14039
918.828	14008
918.939	14119
919.05	14050
919.161	13940
919.272	13765
919.383	13837
919.494	13997
919.604	14149
919.715	14077
919.826	13868
919.936	13947
920.047	14031
920.157	13928
920.267	14164
920.378	13928
920.488	14008
920.598	14073
920.708	14214
920.818	14005
920.928	14115
921.038	14267
921.148	14164
921.258	13982
921.368	13795
921.477	13677
921.587	13670
921.697	13594
921.806	13647
921.916	13594
922.025	13320
922.134	13282
922.244	13270
922.353	13358
922.462	13171
922.571	13160
922.68	12985
922.789	12973
922.898	12996
923.007	12901
923.116	12970
923.224	12894
923.333	12909
923.442	12821
923.55	12696
923.659	12886
923.767	12875
923.876	12700
923.984	12890
924.092	12772
924.201	12722
924.309	12662
924.417	12639
924.525	12631
924.633	12635
924.741	13540
924.849	12395
924.956	12536
925.064	12410
925.172	12330
925.279	12433
925.387	12479
925.494	12437
925.602	12506
925.709	12578
925.816	12262
925.924	12376
926.031	12498
926.138	12384
926.245	12422
926.352	12251
926.459	12407
926.566	12475
926.673	12224
926.779	12167
926.886	12197
926.993	11984
927.099	11954
927.206	11954
927.312	11767
927.419	12030
927.525	11984
927.631	12003
927.737	11927
927.843	11885
927.95	11733
928.056	11798
928.162	11824
928.267	11817
928.373	12353
928.479	11870
928.585	11714
928.69	11760
928.796	11733
928.901	11680
929.007	11566
929.112	11615
929.218	11611
929.323	11672
929.428	11608
929.533	11676
929.638	11493
929.743	11421
929.848	11547
929.953	11482
930.058	11360
930.163	11246
930.267	11299
930.372	11318
930.477	11162
930.581	11391
930.685	11303
930.79	11155
930.894	11151
930.998	11105
931.103	11269
931.207	10885
931.311	10782
931.415	10679
931.519	10485
931.623	10360
