Data from test_V78500241_1800.txt Node
Date: Fri Mar 25 14:46:14 CST 2022
User: usil
Spectrometer: V785-0024
Trigger mode: 0
Integration Time (sec): 4.000000E-1
Scans to average: 1
Nonlinearity correction enabled: false
Boxcar width: 0
Storing dark spectrum: false
XAxis mode: Wavelengths
Number of Pixels in Spectrum: 1024
>>>>>Begin Spectral Data<<<<<
801.071	22154
801.214	22154
801.356	21922
801.499	21694
801.641	21587
801.783	21549
801.926	21557
802.068	21583
802.211	21458
802.353	21214
802.496	21077
802.638	21108
802.78	21024
802.923	20853
803.065	20872
803.208	20864
803.35	20929
803.492	20902
803.635	20914
803.777	20883
803.919	21058
804.061	21252
804.204	20956
804.346	20906
804.488	20899
804.63	20853
804.773	20606
804.915	20910
805.057	21055
805.199	20762
805.341	20781
805.483	21028
805.626	20891
805.768	20883
805.91	20967
806.052	20800
806.194	20674
806.336	20929
806.478	20838
806.62	20781
806.762	20880
806.904	20971
807.046	21214
807.188	21169
807.33	21123
807.472	21192
807.614	21043
807.756	21024
807.898	21047
808.04	20887
808.182	20876
808.324	20887
808.465	20929
808.607	21081
808.749	21226
808.891	21329
809.033	21450
809.174	21165
809.316	21169
809.458	21230
809.6	21074
809.741	21279
809.883	21294
810.025	21325
810.166	21283
810.308	21298
810.45	21332
810.591	21169
810.733	20933
810.875	21043
811.016	20941
811.158	20842
811.299	20937
811.441	21112
811.582	21116
811.724	20948
811.865	20998
812.007	20876
812.148	20868
812.29	21028
812.431	21096
812.573	21264
812.714	21302
812.855	21378
812.997	21538
813.138	21667
813.279	21542
813.421	21439
813.562	21351
813.703	21226
813.845	21154
813.986	20868
814.127	20708
814.268	20594
814.41	20541
814.551	20556
814.692	20564
814.833	20454
814.974	20495
815.115	20461
815.256	20457
815.397	20328
815.539	20237
815.68	20324
815.821	20195
815.962	20248
816.103	20259
816.244	20119
816.385	19894
816.526	19951
816.666	19860
816.807	19586
816.948	19658
817.089	19757
817.23	19689
817.371	19689
817.512	19807
817.653	19635
817.793	19643
817.934	19613
818.075	19746
818.216	19578
818.356	19635
818.497	19483
818.638	19312
818.778	19400
818.919	19304
819.06	19312
819.2	19373
819.341	19506
819.481	19601
819.622	19624
819.762	19818
819.903	19845
820.043	19708
820.184	19632
820.324	19662
820.465	19597
820.605	19609
820.746	19590
820.886	19510
821.026	19670
821.167	19537
821.307	19594
821.447	19605
821.588	19449
821.728	19377
821.868	19285
822.008	19038
822.149	18947
822.289	19038
822.429	18772
822.569	18745
822.709	18700
822.849	18578
822.99	18498
823.13	18547
823.27	18433
823.41	18376
823.55	18209
823.69	18334
823.83	18350
823.97	18308
824.11	18087
824.25	18159
824.389	18110
824.529	18133
824.669	18060
824.809	18213
824.949	18213
825.089	18201
825.228	18076
825.368	18019
825.508	17882
825.648	17809
825.787	17855
825.927	17999
826.067	17980
826.206	17889
826.346	17927
826.485	17870
826.625	17916
826.765	17961
826.904	17961
827.044	17687
827.183	17646
827.323	17535
827.462	17482
827.601	17638
827.741	17608
827.88	17573
828.02	17398
828.159	17497
828.298	17516
828.437	17615
828.577	17505
828.716	17794
828.855	17471
828.994	17296
829.134	17433
829.273	17353
829.412	17360
829.551	17337
829.69	17402
829.829	17296
829.968	17353
830.107	17425
830.246	17391
830.385	17223
830.524	17216
830.663	17181
830.802	17041
830.941	16927
831.08	16987
831.219	17029
831.357	17025
831.496	17193
831.635	16889
831.774	16915
831.913	16748
832.051	16755
832.19	16706
832.329	16793
832.467	16607
832.606	16607
832.744	16653
832.883	16573
833.022	16675
833.16	16653
833.299	16675
833.437	16717
833.576	16641
833.714	16717
833.852	16729
833.991	16675
834.129	16683
834.267	16778
834.406	16763
834.544	16736
834.682	16801
834.821	16611
834.959	16862
835.097	16649
835.235	16790
835.373	16748
835.511	16660
835.65	16603
835.788	16679
835.926	16440
836.064	16428
836.202	16451
836.34	16615
836.478	16656
836.615	16603
836.753	16519
836.891	16573
837.029	16664
837.167	16569
837.305	16497
837.443	16504
837.58	16459
837.718	16455
837.856	16474
837.993	16417
838.131	16402
838.269	16360
838.406	16363
838.544	16303
838.681	16162
838.819	16158
838.956	16002
839.094	16040
839.231	16021
839.369	16223
839.506	16360
839.643	16287
839.781	16086
839.918	15975
840.055	15979
840.193	16010
840.33	15907
840.467	16010
840.604	16086
840.742	16356
840.879	15941
841.016	15888
841.153	15865
841.29	16131
841.427	16040
841.564	16063
841.701	15987
841.838	15964
841.975	15953
842.112	15899
842.249	15720
842.385	15694
842.522	16055
842.659	15835
842.796	15797
842.933	15755
843.069	15625
843.206	15747
843.343	15808
843.479	15827
843.616	15747
843.752	15584
843.889	15625
844.025	15747
844.162	15622
844.298	15846
844.435	15622
844.571	15564
844.708	15644
844.844	15747
844.98	15770
845.117	15728
845.253	15485
845.389	15466
845.525	15625
845.661	15526
845.798	15386
845.934	15492
846.07	15374
846.206	15405
846.342	15462
846.478	15477
846.614	15127
846.75	15081
846.886	15070
847.022	15275
847.158	15180
847.294	15123
847.429	15089
847.565	15173
847.701	15496
847.837	14941
847.972	14853
848.108	15039
848.244	15013
848.379	14849
848.515	14697
848.65	14667
848.786	14735
848.921	14705
849.057	14838
849.192	14834
849.328	14773
849.463	14758
849.598	14739
849.734	14667
849.869	14560
850.004	14598
850.14	14621
850.275	14545
850.41	14457
850.545	14613
850.68	14552
850.815	14579
850.95	14480
851.085	14678
851.22	14674
851.355	14537
851.49	14465
851.625	14537
851.76	14419
851.895	14469
852.03	14381
852.165	14537
852.299	14564
852.434	14575
852.569	14537
852.703	14473
852.838	14651
852.973	14602
853.107	14632
853.242	14442
853.376	14317
853.511	14214
853.645	14431
853.78	14442
853.914	14415
854.048	14358
854.183	14320
854.317	14385
854.451	14610
854.585	14446
854.72	14343
854.854	14431
854.988	14298
855.122	14286
855.256	14294
855.39	14244
855.524	14499
855.658	14552
855.792	14465
855.926	14469
856.06	14434
856.194	14495
856.327	14332
856.461	14393
856.595	14282
856.729	14374
856.862	14351
856.996	14442
857.13	14450
857.263	14457
857.397	14461
857.53	14370
857.664	14499
857.797	14434
857.931	14438
858.064	14419
858.197	14423
858.331	14427
858.464	14339
858.597	14351
858.731	14423
858.864	14400
858.997	14358
859.13	14286
859.263	14415
859.396	14431
859.529	14328
859.662	14324
859.795	14362
859.928	14385
860.061	14552
860.194	14610
860.327	14362
860.46	14317
860.592	14469
860.725	14610
860.858	14522
860.99	14355
861.123	14377
861.256	14393
861.388	14313
861.521	14937
861.653	14355
861.786	14161
861.918	14278
862.05	14347
862.183	14324
862.315	14275
862.447	14438
862.58	14286
862.712	14206
862.844	14153
862.976	14259
863.108	14195
863.24	14442
863.372	14180
863.504	14100
863.636	14164
863.768	14191
863.9	14138
864.032	14043
864.164	14180
864.296	14275
864.428	14263
864.559	14221
864.691	14214
864.823	14240
864.954	14206
865.086	14142
865.217	14225
865.349	14024
865.48	14119
865.612	14229
865.743	14366
865.875	14256
866.006	14111
866.137	14119
866.269	14111
866.4	14157
866.531	14054
866.662	14050
866.793	14180
866.924	14119
867.055	14126
867.186	14195
867.317	14115
867.448	13989
867.579	14111
867.71	14043
867.841	14065
867.972	14145
868.103	14100
868.233	14206
868.364	14134
868.495	14214
868.625	14503
868.756	14442
868.886	14347
869.017	14267
869.147	14590
869.278	14446
869.408	14393
869.539	14374
869.669	14412
869.799	14427
869.929	14537
870.06	14575
870.19	14750
870.32	14686
870.45	14716
870.58	14773
870.71	14918
870.84	14925
870.97	14773
871.1	14659
871.23	14960
871.36	14937
871.489	14872
871.619	14998
871.749	15001
871.879	15017
872.008	15173
872.138	15032
872.267	15028
872.397	14868
872.526	14750
872.656	14705
872.785	14724
872.915	14960
873.044	15017
873.173	15028
873.303	15074
873.432	15169
873.561	15097
873.69	15043
873.819	15032
873.948	15161
874.077	15058
874.206	15036
874.335	15058
874.464	15173
874.593	15321
874.722	15260
874.851	15272
874.979	15389
875.108	15378
875.237	15340
875.365	15249
875.494	15260
875.623	15408
875.751	15291
875.88	15424
876.008	15542
876.136	15515
876.265	15793
876.393	15926
876.521	15857
876.65	15846
876.778	15797
876.906	15629
877.034	15747
877.162	15785
877.29	15644
877.418	15739
877.546	15800
877.674	15682
877.802	15709
877.93	15686
878.058	15667
878.185	15675
878.313	15698
878.441	15846
878.568	15584
878.696	15728
878.824	15766
878.951	15781
879.079	15934
879.206	16006
879.333	15983
879.461	15774
879.588	15899
879.715	15926
879.842	15991
879.97	15831
880.097	15595
880.224	15648
880.351	15526
880.478	15656
880.605	15564
880.732	15603
880.859	15949
880.986	15690
881.112	15599
881.239	15534
881.366	15428
881.493	15332
881.619	15272
881.746	15283
881.872	15264
881.999	15313
882.125	15252
882.252	15268
882.378	15302
882.505	15477
882.631	15192
882.757	15074
882.883	15169
883.01	15104
883.136	15150
883.262	15047
883.388	14952
883.514	15020
883.64	15104
883.766	15005
883.892	14944
884.018	14944
884.143	15066
884.269	15199
884.395	14857
884.52	14621
884.646	14811
884.772	14727
884.897	14606
885.023	14815
885.148	14834
885.274	14918
885.399	14906
885.524	14773
885.65	14815
885.775	14826
885.9	14811
886.025	14826
886.15	14781
886.275	14883
886.4	14648
886.525	14602
886.65	14689
886.775	14701
886.9	14899
887.025	14967
887.149	14872
887.274	14606
887.399	14621
887.523	14556
887.648	14606
887.773	14488
887.897	14720
888.021	14655
888.146	14522
888.27	14651
888.395	14785
888.519	14545
888.643	14724
888.767	14701
888.891	14644
889.015	14514
889.139	14533
889.263	14412
889.387	14613
889.511	14708
889.635	14602
889.759	14492
889.883	14446
890.006	14564
890.13	14571
890.254	14423
890.377	14446
890.501	14248
890.624	14237
890.748	14408
890.871	14214
890.995	14168
891.118	14035
891.241	14176
891.364	14210
891.488	14317
891.611	14153
891.734	14145
891.857	14240
891.98	14221
892.103	14294
892.226	14263
892.349	14183
892.471	14103
892.594	14142
892.717	14233
892.839	14172
892.962	14221
893.085	14355
893.207	14290
893.33	14161
893.452	14130
893.575	14218
893.697	14096
893.819	14324
893.941	14415
894.064	14290
894.186	14237
894.308	14149
894.43	14309
894.552	14374
894.674	14294
894.796	14233
894.918	14172
895.04	14233
895.161	14320
895.283	14229
895.405	14233
895.526	14267
895.648	14301
895.769	14339
895.891	14362
896.012	14457
896.134	14450
896.255	14347
896.376	14313
896.498	14385
896.619	14381
896.74	14408
896.861	14484
896.982	14689
897.103	14864
897.224	14667
897.345	14499
897.466	14617
897.587	14648
897.708	14823
897.828	14754
897.949	14587
898.07	14427
898.19	14636
898.311	14769
898.431	14701
898.552	14708
898.672	14640
898.792	14773
898.913	14777
899.033	14610
899.153	14514
899.273	14507
899.393	14568
899.513	14526
899.633	14526
899.753	14564
899.873	14571
899.993	14556
900.113	14530
900.232	14610
900.352	14530
900.472	14454
900.591	14400
900.711	14511
900.83	14305
900.95	14598
901.069	14450
901.189	14358
901.308	14206
901.427	14115
901.546	14183
901.665	14153
901.784	14103
901.904	13936
902.023	13864
902.141	13674
902.26	13734
902.379	13753
902.498	13655
902.617	13578
902.735	13658
902.854	13597
902.973	13597
903.091	13460
903.21	13377
903.328	13518
903.446	13312
903.565	13228
903.683	13149
903.801	13168
903.919	13232
904.038	13175
904.156	13023
904.274	13160
904.392	13061
904.51	12928
904.627	13076
904.745	13099
904.863	13122
904.981	12837
905.098	12749
905.216	12722
905.334	12707
905.451	12814
905.569	12760
905.686	12745
905.803	12730
905.921	12673
906.038	12608
906.155	12597
906.272	12498
906.389	12490
906.506	12308
906.623	12350
906.74	12292
906.857	12213
906.974	12224
907.091	12376
907.208	12403
907.324	12342
907.441	12251
907.557	12030
907.674	12064
907.79	12038
907.907	12034
908.023	12045
908.139	12072
908.256	11984
908.372	11954
908.488	11950
908.604	11840
908.72	11695
908.836	11836
908.952	11847
909.068	11767
909.184	11977
909.3	11794
909.415	11817
909.531	11828
909.647	11642
909.762	11611
909.878	11532
909.993	11592
910.108	11573
910.224	11608
910.339	11642
910.454	11497
910.57	11482
910.685	11273
910.8	11707
910.915	11665
911.03	11478
911.145	11303
911.259	11273
911.374	11280
911.489	11204
911.604	11204
911.718	11048
911.833	11102
911.947	10972
912.062	10995
912.176	10953
912.291	11033
912.405	11037
912.519	11296
912.633	11273
912.748	11140
912.862	11064
912.976	10911
913.09	10752
913.204	10869
913.318	11018
913.431	11052
913.545	11033
913.659	11067
913.772	10957
913.886	10759
914	10729
914.113	10984
914.226	10949
914.34	10900
914.453	10752
914.566	10854
914.68	10725
914.793	10694
914.906	10558
915.019	10546
915.132	10508
915.245	10592
915.358	10519
915.47	10538
915.583	10664
915.696	10596
915.809	10634
915.921	10778
916.034	10558
916.146	10512
916.259	10512
916.371	10542
916.483	10550
916.595	10535
916.708	10538
916.82	10485
916.932	10497
917.044	10489
917.156	10489
917.268	10352
917.38	10360
917.491	10318
917.603	10367
917.715	10466
917.826	10497
917.938	10421
918.049	10306
918.161	10363
918.272	10493
918.384	10512
918.495	10382
918.606	10325
918.717	10215
918.828	10249
918.939	10276
919.05	10173
919.161	10246
919.272	10006
919.383	10105
919.494	10287
919.604	10382
919.715	10284
919.826	10185
919.936	10196
920.047	10382
920.157	10196
920.267	10466
920.378	10238
920.488	10223
920.598	10451
920.708	10596
920.818	10394
920.928	10329
921.038	10637
921.148	10599
921.258	10295
921.368	10234
921.477	10135
921.587	10124
921.697	10067
921.806	10143
921.916	10021
922.025	9861
922.134	9785
922.244	9747
922.353	9903
922.462	9713
922.571	9660
922.68	9507
922.789	9564
922.898	9538
923.007	9492
923.116	9599
923.224	9439
923.333	9542
923.442	9477
923.55	9431
923.659	9462
923.767	9454
923.876	9378
923.984	9439
924.092	9306
924.201	9408
924.309	9389
924.417	9321
924.525	9332
924.633	9329
924.741	10341
924.849	9138
924.956	9291
925.064	9176
925.172	9127
925.279	9138
925.387	9131
925.494	9173
925.602	9321
925.709	9264
925.816	9154
925.924	9203
926.031	9253
926.138	9135
926.245	9203
926.352	9089
926.459	9199
926.566	9298
926.673	9051
926.779	9024
926.886	9055
926.993	8861
927.099	8864
927.206	8899
927.312	8788
927.419	8982
927.525	8895
927.631	8960
927.737	8853
927.843	8781
927.95	8708
928.056	8750
928.162	8792
928.267	8838
928.373	9466
928.479	8815
928.585	8625
928.69	8853
928.796	8796
928.901	8701
929.007	8632
929.112	8693
929.218	8697
929.323	8701
929.428	8545
929.533	8800
929.638	8541
929.743	8518
929.848	8617
929.953	8518
930.058	8549
930.163	8351
930.267	8381
930.372	8480
930.477	8362
930.581	8556
930.685	8507
930.79	8267
930.894	8336
930.998	8309
931.103	8473
931.207	8088
931.311	8016
931.415	7978
931.519	7814
931.623	7849
