Data from test_V78500241_1599.txt Node
Date: Fri Mar 25 14:44:50 CST 2022
User: usil
Spectrometer: V785-0024
Trigger mode: 0
Integration Time (sec): 4.000000E-1
Scans to average: 1
Nonlinearity correction enabled: false
Boxcar width: 0
Storing dark spectrum: false
XAxis mode: Wavelengths
Number of Pixels in Spectrum: 1024
>>>>>Begin Spectral Data<<<<<
801.071	22295
801.214	22299
801.356	21964
801.499	21846
801.641	21720
801.783	21720
801.926	21789
802.068	21648
802.211	21652
802.353	21389
802.496	21397
802.638	21199
802.78	21207
802.923	21100
803.065	20990
803.208	21028
803.35	21055
803.492	21222
803.635	21230
803.777	21039
803.919	21176
804.061	21420
804.204	21138
804.346	21043
804.488	20960
804.63	20982
804.773	20975
804.915	20963
805.057	21058
805.199	21036
805.341	21100
805.483	21112
805.626	20994
805.768	20952
805.91	20982
806.052	20864
806.194	20952
806.336	21161
806.478	20994
806.62	21005
806.762	21165
806.904	21192
807.046	21298
807.188	21317
807.33	21237
807.472	21492
807.614	21325
807.756	21382
807.898	21207
808.04	21233
808.182	21188
808.324	21058
808.465	21291
808.607	21321
808.749	21389
808.891	21549
809.033	21686
809.174	21538
809.316	21462
809.458	21424
809.6	21447
809.741	21583
809.883	21549
810.025	21660
810.166	21660
810.308	21492
810.45	21538
810.591	21428
810.733	21260
810.875	21154
811.016	21135
811.158	21119
811.299	21195
811.441	21306
811.582	21275
811.724	21218
811.865	21096
812.007	21051
812.148	21199
812.29	21237
812.431	21367
812.573	21553
812.714	21561
812.855	21682
812.997	21774
813.138	21720
813.279	21835
813.421	21595
813.562	21587
813.703	21424
813.845	21294
813.986	21039
814.127	20960
814.268	20788
814.41	20712
814.551	20636
814.692	20686
814.833	20705
814.974	20716
815.115	20579
815.256	20514
815.397	20613
815.539	20522
815.68	20503
815.821	20511
815.962	20488
816.103	20514
816.244	20313
816.385	20256
816.526	20157
816.666	20016
816.807	19917
816.948	19928
817.089	19986
817.23	19822
817.371	19811
817.512	19856
817.653	19811
817.793	19753
817.934	19784
818.075	19955
818.216	19932
818.356	19738
818.497	19609
818.638	19514
818.778	19544
818.919	19597
819.06	19571
819.2	19647
819.341	19738
819.481	19639
819.622	19845
819.762	20046
819.903	20035
820.043	19978
820.184	19811
820.324	19776
820.465	19837
820.605	19826
820.746	19727
820.886	19757
821.026	19799
821.167	19765
821.307	19807
821.447	19738
821.588	19658
821.728	19445
821.868	19343
822.008	19171
822.149	19316
822.289	19141
822.429	19069
822.569	18989
822.709	18856
822.849	18779
822.99	18795
823.13	18650
823.27	18684
823.41	18502
823.55	18517
823.69	18502
823.83	18506
823.97	18574
824.11	18258
824.25	18281
824.389	18372
824.529	18304
824.669	18410
824.809	18452
824.949	18384
825.089	18369
825.228	18334
825.368	18129
825.508	18129
825.648	18064
825.787	18079
825.927	18178
826.067	18026
826.206	18087
826.346	18098
826.485	18148
826.625	18045
826.765	18235
826.904	17965
827.044	17882
827.183	17798
827.323	17684
827.462	17870
827.601	17752
827.741	17726
827.88	17691
828.02	17680
828.159	17733
828.298	17760
828.437	17889
828.577	17714
828.716	17828
828.855	17764
828.994	17649
829.134	17474
829.273	17577
829.412	17448
829.551	17455
829.69	17573
829.829	17547
829.968	17600
830.107	17467
830.246	17589
830.385	17395
830.524	17246
830.663	17387
830.802	17223
830.941	17094
831.08	17140
831.219	17166
831.357	17117
831.496	17433
831.635	17071
831.774	17117
831.913	16953
832.051	16820
832.19	16896
832.329	16968
832.467	16767
832.606	16801
832.744	16744
832.883	16835
833.022	16725
833.16	16763
833.299	16869
833.437	16793
833.576	16908
833.714	16748
833.852	16889
833.991	16828
834.129	16976
834.267	16896
834.406	16881
834.544	16961
834.682	16809
834.821	16740
834.959	16953
835.097	16805
835.235	16919
835.373	16866
835.511	16805
835.65	16748
835.788	16702
835.926	16599
836.064	16577
836.202	16611
836.34	16660
836.478	16786
836.615	16558
836.753	16835
836.891	16744
837.029	16782
837.167	16729
837.305	16725
837.443	16618
837.58	16485
837.718	16683
837.856	16698
837.993	16523
838.131	16653
838.269	16512
838.406	16519
838.544	16561
838.681	16287
838.819	16204
838.956	16143
839.094	16177
839.231	16219
839.369	16287
839.506	16546
839.643	16314
839.781	16238
839.918	16078
840.055	16097
840.193	16128
840.33	16093
840.467	16105
840.604	16185
840.742	16318
840.879	16105
841.016	15956
841.153	16124
841.29	16284
841.427	16196
841.564	16158
841.701	16200
841.838	16078
841.975	16021
842.112	16036
842.249	15983
842.385	15816
842.522	16124
842.659	15789
842.796	15945
842.933	15960
843.069	15884
843.206	15831
843.343	15968
843.479	15911
843.616	15903
843.752	15690
843.889	15709
844.025	15899
844.162	15759
844.298	15762
844.435	15709
844.571	15694
844.708	15838
844.844	15911
844.98	15816
845.117	15816
845.253	15641
845.389	15580
845.525	15591
845.661	15618
845.798	15603
845.934	15652
846.07	15553
846.206	15701
846.342	15736
846.478	15538
846.614	15397
846.75	15157
846.886	15226
847.022	15340
847.158	15386
847.294	15268
847.429	15230
847.565	15192
847.701	15515
847.837	15043
847.972	15001
848.108	15127
848.244	15028
848.379	14902
848.515	14834
848.65	14876
848.786	14842
848.921	14800
849.057	15020
849.192	14918
849.328	14933
849.463	14941
849.598	14883
849.734	14796
849.869	14659
850.004	14697
850.14	14629
850.275	14617
850.41	14469
850.545	14644
850.68	14625
850.815	14644
850.95	14511
851.085	14800
851.22	14708
851.355	14644
851.49	14610
851.625	14575
851.76	14537
851.895	14351
852.03	14511
852.165	14594
852.299	14689
852.434	14758
852.569	14724
852.703	14663
852.838	14708
852.973	14693
853.107	14765
853.242	14587
853.376	14476
853.511	14370
853.645	14415
853.78	14549
853.914	14568
854.048	14408
854.183	14488
854.317	14480
854.451	14629
854.585	14484
854.72	14362
854.854	14549
854.988	14408
855.122	14362
855.256	14355
855.39	14492
855.524	14541
855.658	14522
855.792	14590
855.926	14640
856.06	14575
856.194	14537
856.327	14552
856.461	14385
856.595	14423
856.729	14450
856.862	14602
856.996	14568
857.13	14610
857.263	14632
857.397	14670
857.53	14465
857.664	14545
857.797	14568
857.931	14651
858.064	14579
858.197	14632
858.331	14571
858.464	14492
858.597	14461
858.731	14454
858.864	14552
858.997	14545
859.13	14613
859.263	14533
859.396	14568
859.529	14537
859.662	14579
859.795	14526
859.928	14511
860.061	14705
860.194	14636
860.327	14571
860.46	14560
860.592	14651
860.725	14621
860.858	14613
860.99	14431
861.123	14415
861.256	14469
861.388	14602
861.521	15378
861.653	14545
861.786	14431
861.918	14324
862.05	14484
862.183	14408
862.315	14541
862.447	14568
862.58	14393
862.712	14332
862.844	14278
862.976	14328
863.108	14301
863.24	14804
863.372	14210
863.504	14286
863.636	14328
863.768	14324
863.9	14282
864.032	14275
864.164	14267
864.296	14332
864.428	14454
864.559	14347
864.691	14438
864.823	14374
864.954	14202
865.086	14298
865.217	14336
865.349	14221
865.48	14355
865.612	14263
865.743	14446
865.875	14282
866.006	14256
866.137	14328
866.269	14191
866.4	14263
866.531	14199
866.662	14298
866.793	14214
866.924	14240
867.055	14286
867.186	14278
867.317	14275
867.448	14107
867.579	14275
867.71	14309
867.841	14252
867.972	14229
868.103	14248
868.233	14298
868.364	14225
868.495	14282
868.625	14423
868.756	14602
868.886	14476
869.017	14488
869.147	14602
869.278	14735
869.408	14526
869.539	14530
869.669	14613
869.799	14545
869.929	14590
870.06	14670
870.19	14857
870.32	14971
870.45	14918
870.58	14864
870.71	15077
870.84	15032
870.97	14982
871.1	14975
871.23	15119
871.36	15104
871.489	15051
871.619	15001
871.749	15100
871.879	15039
872.008	15313
872.138	15112
872.267	15032
872.397	14963
872.526	14952
872.656	14979
872.785	14921
872.915	15184
873.044	15249
873.173	15146
873.303	15226
873.432	15199
873.561	15203
873.69	15157
873.819	15173
873.948	15199
874.077	15188
874.206	15028
874.335	15237
874.464	15302
874.593	15450
874.722	15329
874.851	15477
874.979	15439
875.108	15515
875.237	15473
875.365	15447
875.494	15485
875.623	15507
875.751	15428
875.88	15538
876.008	15641
876.136	15709
876.265	15918
876.393	15987
876.521	16029
876.65	15892
876.778	15880
876.906	15774
877.034	15865
877.162	15816
877.29	15816
877.418	15831
877.546	15968
877.674	15732
877.802	15861
877.93	15823
878.058	15838
878.185	15846
878.313	15827
878.441	15911
878.568	15785
878.696	15937
878.824	15861
878.951	15998
879.079	16051
879.206	16306
879.333	15994
879.461	16025
879.588	16147
879.715	16093
879.842	16124
879.97	15949
880.097	15793
880.224	15713
880.351	15793
880.478	15804
880.605	15686
880.732	15694
880.859	15960
880.986	15846
881.112	15747
881.239	15724
881.366	15496
881.493	15504
881.619	15408
881.746	15462
881.872	15344
881.999	15329
882.125	15393
882.252	15435
882.378	15412
882.505	15488
882.631	15412
882.757	15214
882.883	15272
883.01	15195
883.136	15180
883.262	15020
883.388	15089
883.514	15291
883.64	15279
883.766	15089
883.892	15024
884.018	15028
884.143	15214
884.269	15294
884.395	15001
884.52	14914
884.646	14990
884.772	14868
884.897	14724
885.023	15024
885.148	15001
885.274	15081
885.399	14918
885.524	14921
885.65	14887
885.775	14998
885.9	14986
886.025	15062
886.15	14883
886.275	14861
886.4	14743
886.525	14876
886.65	14872
886.775	14788
886.9	14967
887.025	15138
887.149	14937
887.274	14773
887.399	14632
887.523	14735
887.648	14625
887.773	14682
887.897	14864
888.021	14735
888.146	14731
888.27	14864
888.395	14883
888.519	14807
888.643	14826
888.767	14838
888.891	14750
889.015	14575
889.139	14625
889.263	14564
889.387	14731
889.511	14807
889.635	14720
889.759	14492
889.883	14492
890.006	14644
890.13	14659
890.254	14530
890.377	14629
890.501	14385
890.624	14450
890.748	14507
890.871	14328
890.995	14294
891.118	14191
891.241	14214
891.364	14256
891.488	14469
891.611	14267
891.734	14305
891.857	14347
891.98	14377
892.103	14298
892.226	14298
892.349	14176
892.471	14233
892.594	14298
892.717	14290
892.839	14225
892.962	14362
893.085	14431
893.207	14233
893.33	14164
893.452	14237
893.575	14355
893.697	14275
893.819	14400
893.941	14484
894.064	14377
894.186	14267
894.308	14240
894.43	14381
894.552	14480
894.674	14431
894.796	14263
894.918	14370
895.04	14370
895.161	14480
895.283	14393
895.405	14263
895.526	14431
895.648	14298
895.769	14423
895.891	14480
896.012	14469
896.134	14480
896.255	14370
896.376	14450
896.498	14514
896.619	14514
896.74	14530
896.861	14556
896.982	14845
897.103	14914
897.224	14842
897.345	14708
897.466	14640
897.587	14686
897.708	14895
897.828	14739
897.949	14667
898.07	14678
898.19	14598
898.311	14800
898.431	14800
898.552	14857
898.672	14914
898.792	14868
898.913	14937
899.033	14659
899.153	14667
899.273	14590
899.393	14621
899.513	14743
899.633	14648
899.753	14693
899.873	14659
899.993	14682
900.113	14731
900.232	14678
900.352	14754
900.472	14590
900.591	14629
900.711	14541
900.83	14454
900.95	14594
901.069	14735
901.189	14381
901.308	14210
901.427	14138
901.546	14172
901.665	14206
901.784	14332
901.904	14073
902.023	14084
902.141	13757
902.26	13799
902.379	13955
902.498	13826
902.617	13696
902.735	13776
902.854	13776
902.973	13677
903.091	13483
903.21	13419
903.328	13533
903.446	13464
903.565	13259
903.683	13407
903.801	13365
903.919	13365
904.038	13285
904.156	13190
904.274	13110
904.392	13076
904.51	13160
904.627	13084
904.745	13213
904.863	13175
904.981	12966
905.098	12779
905.216	12776
905.334	12920
905.451	12859
905.569	12810
905.686	12878
905.803	12802
905.921	12673
906.038	12722
906.155	12688
906.272	12616
906.389	12612
906.506	12460
906.623	12414
906.74	12346
906.857	12216
906.974	12334
907.091	12426
907.208	12509
907.324	12441
907.441	12380
907.557	12239
907.674	12220
907.79	12079
907.907	12110
908.023	12083
908.139	12144
908.256	12125
908.372	12136
908.488	12064
908.604	11942
908.72	11908
908.836	11775
908.952	11847
909.068	11961
909.184	11965
909.3	11885
909.415	11961
909.531	11904
909.647	11726
909.762	11680
909.878	11707
909.993	11741
910.108	11710
910.224	11592
910.339	11699
910.454	11547
910.57	11478
910.685	11482
910.8	11718
910.915	11714
911.03	11421
911.145	11398
911.259	11330
911.374	11372
911.489	11261
911.604	11204
911.718	11056
911.833	11151
911.947	11071
912.062	10915
912.176	11045
912.291	11197
912.405	11227
912.519	11356
912.633	11364
912.748	11216
912.862	11105
912.976	10991
913.09	10896
913.204	10949
913.318	10987
913.431	11170
913.545	11052
913.659	11143
913.772	11025
913.886	10987
914	10885
914.113	10984
914.226	11056
914.34	10934
914.453	10847
914.566	10965
914.68	10927
914.793	10805
914.906	10592
915.019	10736
915.132	10569
915.245	10622
915.358	10603
915.47	10645
915.583	10675
915.696	10733
915.809	10805
915.921	10793
916.034	10733
916.146	10664
916.259	10542
916.371	10672
916.483	10691
916.595	10565
916.708	10573
916.82	10523
916.932	10599
917.044	10615
917.156	10569
917.268	10508
917.38	10432
917.491	10424
917.603	10466
917.715	10622
917.826	10546
917.938	10413
918.049	10348
918.161	10504
918.272	10588
918.384	10626
918.495	10470
918.606	10424
918.717	10306
918.828	10322
918.939	10329
919.05	10257
919.161	10333
919.272	10097
919.383	10223
919.494	10375
919.604	10577
919.715	10398
919.826	10299
919.936	10325
920.047	10390
920.157	10314
920.267	10588
920.378	10337
920.488	10398
920.598	10550
920.708	10733
920.818	10546
920.928	10596
921.038	10752
921.148	10675
921.258	10428
921.368	10314
921.477	10200
921.587	10268
921.697	10067
921.806	10188
921.916	10097
922.025	9922
922.134	9934
922.244	9865
922.353	9979
922.462	9759
922.571	9774
922.68	9580
922.789	9618
922.898	9641
923.007	9492
923.116	9542
923.224	9576
923.333	9595
923.442	9485
923.55	9447
923.659	9500
923.767	9515
923.876	9466
923.984	9610
924.092	9416
924.201	9466
924.309	9458
924.417	9443
924.525	9344
924.633	9454
924.741	10287
924.849	9195
924.956	9340
925.064	9279
925.172	9195
925.279	9192
925.387	9253
925.494	9195
925.602	9336
925.709	9370
925.816	9192
925.924	9207
926.031	9336
926.138	9249
926.245	9321
926.352	9184
926.459	9313
926.566	9344
926.673	9253
926.779	9123
926.886	9074
926.993	8952
927.099	8967
927.206	8925
927.312	8986
927.419	9043
927.525	9043
927.631	9055
927.737	8887
927.843	8899
927.95	8724
928.056	8845
928.162	8944
928.267	8952
928.373	9443
928.479	9013
928.585	8708
928.69	8891
928.796	8857
928.901	8811
929.007	8686
929.112	8785
929.218	8769
929.323	8766
929.428	8731
929.533	8838
929.638	8659
929.743	8686
929.848	8766
929.953	8617
930.058	8682
930.163	8450
930.267	8377
930.372	8629
930.477	8423
930.581	8705
930.685	8492
930.79	8377
930.894	8461
930.998	8396
931.103	8575
931.207	8187
931.311	8149
931.415	8142
931.519	7936
931.623	7959
