Data from test_V78500241_3186.txt Node
Date: Fri Mar 25 14:55:53 CST 2022
User: usil
Spectrometer: V785-0024
Trigger mode: 0
Integration Time (sec): 4.000000E-1
Scans to average: 1
Nonlinearity correction enabled: false
Boxcar width: 0
Storing dark spectrum: false
XAxis mode: Wavelengths
Number of Pixels in Spectrum: 1024
>>>>>Begin Spectral Data<<<<<
801.071	22093
801.214	21926
801.356	21690
801.499	21557
801.641	21507
801.783	21462
801.926	21386
802.068	21405
802.211	21287
802.353	21298
802.496	21051
802.638	20815
802.78	20876
802.923	20758
803.065	20735
803.208	20731
803.35	20750
803.492	20731
803.635	20815
803.777	20769
803.919	20754
804.061	21009
804.204	20731
804.346	20655
804.488	20537
804.63	20629
804.773	20530
804.915	20636
805.057	20857
805.199	20667
805.341	20686
805.483	20701
805.626	20678
805.768	20613
805.91	20583
806.052	20670
806.194	20530
806.336	20674
806.478	20552
806.62	20564
806.762	20689
806.904	20792
807.046	20937
807.188	20990
807.33	20868
807.472	21013
807.614	20933
807.756	20941
807.898	20830
808.04	20575
808.182	20788
808.324	20720
808.465	20765
808.607	20830
808.749	20952
808.891	21112
809.033	21214
809.174	20960
809.316	20952
809.458	21009
809.6	20960
809.741	20937
809.883	21096
810.025	21161
810.166	21146
810.308	21245
810.45	21135
810.591	21005
810.733	20952
810.875	20727
811.016	20686
811.158	20712
811.299	20861
811.441	20937
811.582	20906
811.724	20663
811.865	20800
812.007	20785
812.148	20678
812.29	20796
812.431	20887
812.573	20830
812.714	21062
812.855	21291
812.997	21374
813.138	21481
813.279	21298
813.421	21275
813.562	21154
813.703	21020
813.845	20845
813.986	20674
814.127	20473
814.268	20210
814.41	20336
814.551	20202
814.692	20488
814.833	20374
814.974	20358
815.115	20294
815.256	20191
815.397	20149
815.539	20134
815.68	19940
815.821	20065
815.962	20073
816.103	20035
816.244	19928
816.385	19761
816.526	19784
816.666	19601
816.807	19422
816.948	19510
817.089	19601
817.23	19411
817.371	19464
817.512	19445
817.653	19502
817.793	19320
817.934	19426
818.075	19426
818.216	19491
818.356	19362
818.497	19297
818.638	19171
818.778	19061
818.919	19122
819.06	19164
819.2	19285
819.341	19247
819.481	19304
819.622	19369
819.762	19571
819.903	19590
820.043	19293
820.184	19407
820.324	19362
820.465	19525
820.605	19422
820.746	19346
820.886	19225
821.026	19369
821.167	19422
821.307	19506
821.447	19388
821.588	19198
821.728	19221
821.868	18989
822.008	18791
822.149	18764
822.289	18719
822.429	18566
822.569	18608
822.709	18433
822.849	18448
822.99	18338
823.13	18311
823.27	18258
823.41	18247
823.55	18205
823.69	18167
823.83	18159
823.97	18110
824.11	17920
824.25	17961
824.389	17866
824.529	17931
824.669	17927
824.809	18060
824.949	17999
825.089	18019
825.228	18015
825.368	17668
825.508	17676
825.648	17699
825.787	17760
825.927	17699
826.067	17676
826.206	17596
826.346	17611
826.485	17726
826.625	17687
826.765	17684
826.904	17684
827.044	17440
827.183	17486
827.323	17330
827.462	17436
827.601	17429
827.741	17334
827.88	17254
828.02	17356
828.159	17356
828.298	17417
828.437	17512
828.577	17307
828.716	17353
828.855	17292
828.994	17147
829.134	17140
829.273	17178
829.412	17117
829.551	16999
829.69	17254
829.829	17166
829.968	17284
830.107	17143
830.246	17204
830.385	17060
830.524	17029
830.663	16881
830.802	16854
830.941	16748
831.08	16698
831.219	16805
831.357	16869
831.496	16980
831.635	16782
831.774	16668
831.913	16634
832.051	16550
832.19	16630
832.329	16694
832.467	16508
832.606	16470
832.744	16493
832.883	16478
833.022	16348
833.16	16428
833.299	16481
833.437	16409
833.576	16569
833.714	16489
833.852	16535
833.991	16481
834.129	16611
834.267	16466
834.406	16409
834.544	16459
834.682	16455
834.821	16348
834.959	16660
835.097	16443
835.235	16611
835.373	16379
835.511	16489
835.65	16413
835.788	16390
835.926	16284
836.064	16226
836.202	16181
836.34	16440
836.478	16424
836.615	16424
836.753	16356
836.891	16436
837.029	16459
837.167	16325
837.305	16291
837.443	16303
837.58	16162
837.718	16242
837.856	16257
837.993	16257
838.131	16249
838.269	16166
838.406	16238
838.544	16207
838.681	16017
838.819	16002
838.956	15797
839.094	15823
839.231	15956
839.369	15934
839.506	16169
839.643	16006
839.781	15857
839.918	15808
840.055	15915
840.193	15804
840.33	15766
840.467	15785
840.604	15789
840.742	16013
840.879	15705
841.016	15629
841.153	15679
841.29	15861
841.427	15781
841.564	15857
841.701	15835
841.838	15713
841.975	15705
842.112	15736
842.249	15614
842.385	15648
842.522	15876
842.659	15595
842.796	15610
842.933	15515
843.069	15504
843.206	15618
843.343	15679
843.479	15625
843.616	15698
843.752	15488
843.889	15443
844.025	15584
844.162	15321
844.298	15469
844.435	15264
844.571	15306
844.708	15431
844.844	15568
844.98	15542
845.117	15504
845.253	15275
845.389	15245
845.525	15268
845.661	15260
845.798	15252
845.934	15199
846.07	15173
846.206	15214
846.342	15340
846.478	15112
846.614	15039
846.75	14918
846.886	14929
847.022	15039
847.158	14994
847.294	15058
847.429	14914
847.565	14944
847.701	15188
847.837	14678
847.972	14636
848.108	14716
848.244	14781
848.379	14560
848.515	14511
848.65	14476
848.786	14537
848.921	14590
849.057	14667
849.192	14659
849.328	14575
849.463	14583
849.598	14446
849.734	14408
849.869	14454
850.004	14267
850.14	14267
850.275	14377
850.41	14210
850.545	14229
850.68	14237
850.815	14362
850.95	14324
851.085	14549
851.22	14393
851.355	14252
851.49	14317
851.625	14252
851.76	14294
851.895	14294
852.03	14149
852.165	14282
852.299	14396
852.434	14263
852.569	14240
852.703	14370
852.838	14385
852.973	14518
853.107	14442
853.242	14294
853.376	14294
853.511	14126
853.645	14210
853.78	14290
853.914	14240
854.048	14233
854.183	14062
854.317	14172
854.451	14366
854.585	14244
854.72	14149
854.854	14138
854.988	14043
855.122	14081
855.256	14016
855.39	14103
855.524	14275
855.658	14206
855.792	14218
855.926	14164
856.06	14240
856.194	14286
856.327	14183
856.461	14202
856.595	14092
856.729	14214
856.862	14298
856.996	14259
857.13	14309
857.263	14358
857.397	14355
857.53	14206
857.664	14187
857.797	14282
857.931	14252
858.064	14309
858.197	14343
858.331	14191
858.464	14096
858.597	14077
858.731	14153
858.864	14202
858.997	14229
859.13	14206
859.263	14237
859.396	14240
859.529	14214
859.662	14195
859.795	14123
859.928	14229
860.061	14355
860.194	14328
860.327	14199
860.46	14233
860.592	14370
860.725	14317
860.858	14328
860.99	14172
861.123	14046
861.256	14020
861.388	14263
861.521	14910
861.653	14012
861.786	14001
861.918	13906
862.05	14145
862.183	14050
862.315	14233
862.447	14229
862.58	14130
862.712	13970
862.844	13875
862.976	13967
863.108	14069
863.24	14259
863.372	13909
863.504	13978
863.636	13982
863.768	14081
863.9	13997
864.032	13917
864.164	13940
864.296	14001
864.428	14062
864.559	14031
864.691	14088
864.823	14065
864.954	13894
865.086	13963
865.217	14024
865.349	13909
865.48	13898
865.612	13936
865.743	14168
865.875	13951
866.006	13913
866.137	13974
866.269	13856
866.4	13928
866.531	13982
866.662	13822
866.793	13837
866.924	13913
867.055	13894
867.186	13936
867.317	13936
867.448	13894
867.579	14005
867.71	13868
867.841	13940
867.972	13944
868.103	13955
868.233	13883
868.364	13940
868.495	14073
868.625	14298
868.756	14305
868.886	14073
869.017	14145
869.147	14278
869.278	14358
869.408	14225
869.539	14221
869.669	14282
869.799	14210
869.929	14419
870.06	14309
870.19	14526
870.32	14522
870.45	14518
870.58	14560
870.71	14678
870.84	14655
870.97	14594
871.1	14587
871.23	14746
871.36	14762
871.489	14727
871.619	14731
871.749	14785
871.879	14880
872.008	14925
872.138	14765
872.267	14842
872.397	14625
872.526	14659
872.656	14636
872.785	14743
872.915	14895
873.044	14933
873.173	14872
873.303	14986
873.432	14880
873.561	14948
873.69	14899
873.819	14891
873.948	14944
874.077	14834
874.206	14739
874.335	14929
874.464	15081
874.593	15013
874.722	15093
874.851	15165
874.979	15127
875.108	15222
875.237	15089
875.365	15146
875.494	15100
875.623	15188
875.751	15218
875.88	15199
876.008	15294
876.136	15367
876.265	15595
876.393	15774
876.521	15671
876.65	15618
876.778	15648
876.906	15553
877.034	15511
877.162	15515
877.29	15500
877.418	15542
877.546	15595
877.674	15656
877.802	15504
877.93	15656
878.058	15549
878.185	15447
878.313	15519
878.441	15568
878.568	15439
878.696	15492
878.824	15553
878.951	15709
879.079	15774
879.206	15915
879.333	15793
879.461	15759
879.588	15690
879.715	15720
879.842	15854
879.97	15641
880.097	15481
880.224	15408
880.351	15488
880.478	15447
880.605	15428
880.732	15481
880.859	15732
880.986	15378
881.112	15329
881.239	15393
881.366	15222
881.493	15142
881.619	15081
881.746	15051
881.872	15051
881.999	15116
882.125	15097
882.252	15036
882.378	15195
882.505	15199
882.631	15077
882.757	14861
882.883	14872
883.01	14876
883.136	14735
883.262	14746
883.388	14754
883.514	14967
883.64	15013
883.766	14918
883.892	14807
884.018	14792
884.143	14777
884.269	14948
884.395	14765
884.52	14617
884.646	14701
884.772	14598
884.897	14594
885.023	14552
885.148	14720
885.274	14746
885.399	14788
885.524	14701
885.65	14640
885.775	14640
885.9	14613
886.025	14743
886.15	14655
886.275	14632
886.4	14537
886.525	14560
886.65	14560
886.775	14590
886.9	14743
887.025	14823
887.149	14590
887.274	14503
887.399	14434
887.523	14370
887.648	14396
887.773	14229
887.897	14442
888.021	14511
888.146	14385
888.27	14492
888.395	14514
888.519	14446
888.643	14537
888.767	14518
888.891	14374
889.015	14370
889.139	14396
889.263	14431
889.387	14347
889.511	14423
889.635	14442
889.759	14248
889.883	14301
890.006	14298
890.13	14412
890.254	14210
890.377	14313
890.501	14100
890.624	13986
890.748	14153
890.871	13917
890.995	13913
891.118	13913
891.241	13944
891.364	14027
891.488	14145
891.611	13955
891.734	14077
891.857	14012
891.98	14039
892.103	14111
892.226	13970
892.349	14035
892.471	13864
892.594	14012
892.717	14050
892.839	14005
892.962	14001
893.085	14077
893.207	13902
893.33	13868
893.452	13967
893.575	14088
893.697	14050
893.819	14263
893.941	14168
894.064	14119
894.186	13947
894.308	13970
894.43	14157
894.552	14237
894.674	14084
894.796	13967
894.918	13974
895.04	14050
895.161	14107
895.283	14237
895.405	14088
895.526	14180
895.648	14111
895.769	14199
895.891	14206
896.012	14195
896.134	14218
896.255	14111
896.376	14134
896.498	14100
896.619	14256
896.74	14168
896.861	14191
896.982	14503
897.103	14667
897.224	14495
897.345	14465
897.466	14358
897.587	14412
897.708	14636
897.828	14480
897.949	14412
898.07	14355
898.19	14484
898.311	14602
898.431	14377
898.552	14480
898.672	14693
898.792	14583
898.913	14613
899.033	14438
899.153	14351
899.273	14256
899.393	14309
899.513	14488
899.633	14400
899.753	14389
899.873	14362
899.993	14545
900.113	14415
900.232	14374
900.352	14374
900.472	14358
900.591	14221
900.711	14244
900.83	14286
900.95	14278
901.069	14415
901.189	14161
901.308	13921
901.427	13970
901.546	13932
901.665	13944
901.784	13940
901.904	13818
902.023	13674
902.141	13556
902.26	13476
902.379	13430
902.498	13441
902.617	13449
902.735	13525
902.854	13559
902.973	13350
903.091	13217
903.21	13316
903.328	13255
903.446	13190
903.565	13057
903.683	13149
903.801	13042
903.919	13057
904.038	13053
904.156	12951
904.274	12924
904.392	12867
904.51	12821
904.627	12886
904.745	12939
904.863	12970
904.981	12662
905.098	12582
905.216	12456
905.334	12566
905.451	12681
905.569	12540
905.686	12677
905.803	12635
905.921	12418
906.038	12536
906.155	12437
906.272	12270
906.389	12323
906.506	12152
906.623	12213
906.74	12186
906.857	12102
906.974	12098
907.091	12232
907.208	12380
907.324	12235
907.441	12098
907.557	11961
907.674	12007
907.79	11874
907.907	11920
908.023	11920
908.139	12068
908.256	11874
908.372	11821
908.488	11920
908.604	11741
908.72	11688
908.836	11661
908.952	11634
909.068	11699
909.184	11821
909.3	11699
909.415	11718
909.531	11722
909.647	11474
909.762	11482
909.878	11448
909.993	11501
910.108	11402
910.224	11459
910.339	11448
910.454	11345
910.57	11223
910.685	11239
910.8	11490
910.915	11459
911.03	11296
911.145	11174
911.259	11140
911.374	11181
911.489	11098
911.604	11064
911.718	10980
911.833	11025
911.947	10908
912.062	10740
912.176	10889
912.291	10942
912.405	10904
912.519	11159
912.633	11159
912.748	10991
912.862	10862
912.976	10790
913.09	10675
913.204	10790
913.318	10881
913.431	10847
913.545	10843
913.659	10843
913.772	10847
913.886	10664
914	10634
914.113	10835
914.226	10812
914.34	10717
914.453	10634
914.566	10721
914.68	10679
914.793	10637
914.906	10481
915.019	10306
915.132	10367
915.245	10413
915.358	10466
915.47	10348
915.583	10462
915.696	10474
915.809	10535
915.921	10592
916.034	10436
916.146	10443
916.259	10322
916.371	10516
916.483	10417
916.595	10284
916.708	10371
916.82	10352
916.932	10230
917.044	10314
917.156	10382
917.268	10230
917.38	10249
917.491	10253
917.603	10261
917.715	10367
917.826	10398
917.938	10211
918.049	10109
918.161	10287
918.272	10459
918.384	10394
918.495	10272
918.606	10055
918.717	10082
918.828	10192
918.939	10257
919.05	10078
919.161	10128
919.272	9953
919.383	10017
919.494	10162
919.604	10360
919.715	10074
919.826	10109
919.936	10090
920.047	10116
920.157	10230
920.267	10390
920.378	10200
920.488	10192
920.598	10310
920.708	10512
920.818	10329
920.928	10341
921.038	10504
921.148	10512
921.258	10242
921.368	10086
921.477	10055
921.587	9964
921.697	9842
921.806	10021
921.916	9903
922.025	9724
922.134	9709
922.244	9648
922.353	9812
922.462	9622
922.571	9496
922.68	9393
922.789	9405
922.898	9466
923.007	9367
923.116	9443
923.224	9477
923.333	9424
923.442	9321
923.55	9275
923.659	9253
923.767	9348
923.876	9226
923.984	9268
924.092	9253
924.201	9298
924.309	9279
924.417	9351
924.525	9245
924.633	9211
924.741	10154
924.849	9043
924.956	9203
925.064	9055
925.172	8979
925.279	9013
925.387	9089
925.494	9051
925.602	9184
925.709	9195
925.816	8990
925.924	9081
926.031	9146
926.138	9032
926.245	9077
926.352	9070
926.459	9146
926.566	9157
926.673	8990
926.779	8914
926.886	8937
926.993	8883
927.099	8773
927.206	8724
927.312	8762
927.419	8834
927.525	8781
927.631	8766
927.737	8678
927.843	8693
927.95	8568
928.056	8587
928.162	8720
928.267	8750
928.373	9264
928.479	8815
928.585	8636
928.69	8678
928.796	8720
928.901	8568
929.007	8484
929.112	8571
929.218	8610
929.323	8480
929.428	8552
929.533	8629
929.638	8480
929.743	8450
929.848	8526
929.953	8454
930.058	8396
930.163	8263
930.267	8275
930.372	8438
930.477	8244
930.581	8507
930.685	8317
930.79	8267
930.894	8256
930.998	8180
931.103	8366
931.207	8058
931.311	7955
931.415	7879
931.519	7655
931.623	7696
