Data from test_V78500241_1402.txt Node
Date: Fri Mar 25 14:43:28 CST 2022
User: usil
Spectrometer: V785-0024
Trigger mode: 0
Integration Time (sec): 4.000000E-1
Scans to average: 1
Nonlinearity correction enabled: false
Boxcar width: 0
Storing dark spectrum: false
XAxis mode: Wavelengths
Number of Pixels in Spectrum: 1024
>>>>>Begin Spectral Data<<<<<
801.071	22413
801.214	22386
801.356	21998
801.499	22010
801.641	21903
801.783	21816
801.926	21876
802.068	21842
802.211	21656
802.353	21759
802.496	21397
802.638	21386
802.78	21336
802.923	21268
803.065	21081
803.208	21157
803.35	21161
803.492	21214
803.635	21214
803.777	21116
803.919	21260
804.061	21637
804.204	21279
804.346	21108
804.488	21150
804.63	21184
804.773	20872
804.915	21184
805.057	21291
805.199	21005
805.341	21161
805.483	21135
805.626	21169
805.768	20990
805.91	20967
806.052	21184
806.194	20948
806.336	21116
806.478	20994
806.62	21096
806.762	21142
806.904	21367
807.046	21576
807.188	21348
807.33	21526
807.472	21568
807.614	21450
807.756	21424
807.898	21344
808.04	21283
808.182	21363
808.324	21313
808.465	21401
808.607	21622
808.749	21728
808.891	21800
809.033	21857
809.174	21857
809.316	21705
809.458	21739
809.6	21526
809.741	21679
809.883	21542
810.025	21625
810.166	21587
810.308	21671
810.45	21637
810.591	21614
810.733	21405
810.875	21283
811.016	21226
811.158	21211
811.299	21268
811.441	21378
811.582	21351
811.724	21192
811.865	21180
812.007	21188
812.148	21272
812.29	21386
812.431	21321
812.573	21629
812.714	21557
812.855	21736
812.997	21781
813.138	22002
813.279	21755
813.421	21736
813.562	21603
813.703	21507
813.845	21344
813.986	21127
814.127	21028
814.268	20678
814.41	20857
814.551	20716
814.692	20864
814.833	20743
814.974	20693
815.115	20750
815.256	20716
815.397	20564
815.539	20617
815.68	20541
815.821	20465
815.962	20431
816.103	20530
816.244	20431
816.385	20187
816.526	20259
816.666	20157
816.807	20020
816.948	19940
817.089	20119
817.23	19970
817.371	19841
817.512	19986
817.653	19849
817.793	19784
817.934	19951
818.075	19982
818.216	19959
818.356	19852
818.497	19723
818.638	19609
818.778	19586
818.919	19597
819.06	19597
819.2	19719
819.341	19769
819.481	19830
819.622	19963
819.762	20122
819.903	19959
820.043	19940
820.184	19818
820.324	19837
820.465	19936
820.605	19917
820.746	19818
820.886	19868
821.026	19947
821.167	19947
821.307	19951
821.447	20020
821.588	19639
821.728	19521
821.868	19419
822.008	19422
822.149	19320
822.289	19282
822.429	19023
822.569	19000
822.709	18981
822.849	18875
822.99	18783
823.13	18840
823.27	18787
823.41	18688
823.55	18521
823.69	18623
823.83	18620
823.97	18464
824.11	18433
824.25	18391
824.389	18342
824.529	18403
824.669	18372
824.809	18635
824.949	18498
825.089	18376
825.228	18426
825.368	18224
825.508	18155
825.648	18171
825.787	18095
825.927	18213
826.067	18110
826.206	18155
826.346	18197
826.485	18197
826.625	18133
826.765	18304
826.904	18209
827.044	17927
827.183	17961
827.323	17897
827.462	17954
827.601	17847
827.741	17866
827.88	17836
828.02	17722
828.159	17904
828.298	17946
828.437	17908
828.577	17855
828.716	17969
828.855	17882
828.994	17600
829.134	17573
829.273	17600
829.412	17570
829.551	17585
829.69	17543
829.829	17630
829.968	17703
830.107	17653
830.246	17474
830.385	17501
830.524	17535
830.663	17459
830.802	17376
830.941	17212
831.08	17208
831.219	17280
831.357	17288
831.496	17547
831.635	17261
831.774	17261
831.913	17174
832.051	16987
832.19	17056
832.329	17033
832.467	16976
832.606	16900
832.744	16896
832.883	16965
833.022	16885
833.16	16889
833.299	16980
833.437	16976
833.576	16999
833.714	16976
833.852	16961
833.991	16942
834.129	17033
834.267	17033
834.406	16961
834.544	16923
834.682	17102
834.821	17083
834.959	17098
835.097	16885
835.235	17060
835.373	17018
835.511	17010
835.65	16847
835.788	16953
835.926	16740
836.064	16672
836.202	16748
836.34	16930
836.478	16995
836.615	16828
836.753	16927
836.891	16961
837.029	16854
837.167	16866
837.305	16793
837.443	16790
837.58	16626
837.718	16839
837.856	16733
837.993	16717
838.131	16744
838.269	16653
838.406	16679
838.544	16500
838.681	16447
838.819	16466
838.956	16310
839.094	16257
839.231	16272
839.369	16451
839.506	16717
839.643	16577
839.781	16337
839.918	16329
840.055	16253
840.193	16207
840.33	16253
840.467	16310
840.604	16268
840.742	16447
840.879	16211
841.016	16246
841.153	16158
841.29	16341
841.427	16348
841.564	16352
841.701	16322
841.838	16268
841.975	16078
842.112	16204
842.249	16093
842.385	16044
842.522	16329
842.659	16059
842.796	15972
842.933	16059
843.069	15994
843.206	16082
843.343	16128
843.479	16166
843.616	16090
843.752	15774
843.889	15888
844.025	16074
844.162	15831
844.298	15991
844.435	15850
844.571	15812
844.708	16017
844.844	16025
844.98	16074
845.117	16017
845.253	15793
845.389	15831
845.525	15819
845.661	15869
845.798	15850
845.934	15949
846.07	15953
846.206	15994
846.342	15953
846.478	15804
846.614	15637
846.75	15454
846.886	15393
847.022	15625
847.158	15443
847.294	15500
847.429	15488
847.565	15405
847.701	15633
847.837	15097
847.972	15070
848.108	15310
848.244	15192
848.379	15081
848.515	15017
848.65	15058
848.786	14998
848.921	14990
849.057	15184
849.192	14998
849.328	14982
849.463	15009
849.598	15017
849.734	14937
849.869	14819
850.004	14750
850.14	14785
850.275	14781
850.41	14667
850.545	14765
850.68	14708
850.815	14765
850.95	14712
851.085	14956
851.22	14765
851.355	14754
851.49	14800
851.625	14758
851.76	14773
851.895	14659
852.03	14674
852.165	14750
852.299	14857
852.434	14864
852.569	14796
852.703	14800
852.838	14895
852.973	14857
853.107	14933
853.242	14724
853.376	14701
853.511	14514
853.645	14587
853.78	14788
853.914	14545
854.048	14606
854.183	14583
854.317	14598
854.451	14807
854.585	14590
854.72	14674
854.854	14689
854.988	14507
855.122	14564
855.256	14484
855.39	14602
855.524	14727
855.658	14708
855.792	14648
855.926	14716
856.06	14788
856.194	14754
856.327	14606
856.461	14648
856.595	14644
856.729	14590
856.862	14792
856.996	14636
857.13	14697
857.263	14682
857.397	14769
857.53	14716
857.664	14648
857.797	14804
857.931	14686
858.064	14606
858.197	14678
858.331	14682
858.464	14651
858.597	14484
858.731	14701
858.864	14613
858.997	14621
859.13	14602
859.263	14610
859.396	14720
859.529	14651
859.662	14518
859.795	14594
859.928	14640
860.061	14632
860.194	14823
860.327	14659
860.46	14663
860.592	14701
860.725	14876
860.858	14811
860.99	14602
861.123	14533
861.256	14594
861.388	14655
861.521	15416
861.653	14484
861.786	14480
861.918	14522
862.05	14465
862.183	14533
862.315	14667
862.447	14636
862.58	14621
862.712	14415
862.844	14431
862.976	14457
863.108	14473
863.24	14914
863.372	14370
863.504	14438
863.636	14309
863.768	14473
863.9	14465
864.032	14400
864.164	14404
864.296	14450
864.428	14560
864.559	14511
864.691	14499
864.823	14495
864.954	14396
865.086	14396
865.217	14408
865.349	14298
865.48	14278
865.612	14442
865.743	14541
865.875	14336
866.006	14446
866.137	14400
866.269	14343
866.4	14332
866.531	14301
866.662	14267
866.793	14385
866.924	14332
867.055	14362
867.186	14415
867.317	14347
867.448	14282
867.579	14298
867.71	14336
867.841	14324
867.972	14374
868.103	14336
868.233	14499
868.364	14461
868.495	14450
868.625	14590
868.756	14762
868.886	14473
869.017	14590
869.147	14686
869.278	14743
869.408	14625
869.539	14716
869.669	14731
869.799	14697
869.929	14758
870.06	14785
870.19	14937
870.32	14956
870.45	15013
870.58	15066
870.71	15112
870.84	15104
870.97	14990
871.1	14986
871.23	15214
871.36	15184
871.489	15085
871.619	15097
871.749	15192
871.879	15245
872.008	15393
872.138	15222
872.267	15173
872.397	15085
872.526	15077
872.656	15100
872.785	15001
872.915	15321
873.044	15367
873.173	15241
873.303	15313
873.432	15348
873.561	15382
873.69	15214
873.819	15321
873.948	15325
874.077	15348
874.206	15275
874.335	15336
874.464	15526
874.593	15557
874.722	15580
874.851	15584
874.979	15625
875.108	15595
875.237	15511
875.365	15469
875.494	15553
875.623	15724
875.751	15523
875.88	15633
876.008	15728
876.136	15774
876.265	15949
876.393	16124
876.521	16101
876.65	16055
876.778	16013
876.906	16010
877.034	15918
877.162	15934
877.29	16013
877.418	16063
877.546	16048
877.674	16101
877.802	16017
877.93	15998
878.058	15922
878.185	15926
878.313	16036
878.441	16071
878.568	15903
878.696	15892
878.824	16036
878.951	16093
879.079	16207
879.206	16470
879.333	16234
879.461	16082
879.588	16318
879.715	16306
879.842	16481
879.97	16181
880.097	15991
880.224	15934
880.351	15869
880.478	15968
880.605	15808
880.732	15880
880.859	16150
880.986	15854
881.112	15884
881.239	15743
881.366	15584
881.493	15633
881.619	15401
881.746	15515
881.872	15599
881.999	15511
882.125	15595
882.252	15599
882.378	15660
882.505	15747
882.631	15526
882.757	15408
882.883	15397
883.01	15397
883.136	15302
883.262	15275
883.388	15180
883.514	15359
883.64	15416
883.766	15313
883.892	15085
884.018	15127
884.143	15306
884.269	15397
884.395	15154
884.52	14998
884.646	14975
884.772	14994
884.897	15009
885.023	15062
885.148	15104
885.274	15249
885.399	15119
885.524	14990
885.65	15039
885.775	15055
885.9	15055
886.025	15127
886.15	15036
886.275	14960
886.4	14921
886.525	15032
886.65	15020
886.775	14979
886.9	15192
887.025	15287
887.149	15009
887.274	14960
887.399	14830
887.523	14819
887.648	14788
887.773	14796
887.897	14971
888.021	14906
888.146	14785
888.27	15039
888.395	15058
888.519	14902
888.643	14906
888.767	15017
888.891	14796
889.015	14811
889.139	14678
889.263	14853
889.387	14792
889.511	14910
889.635	14891
889.759	14670
889.883	14575
890.006	14705
890.13	14864
890.254	14594
890.377	14689
890.501	14530
890.624	14389
890.748	14587
890.871	14465
890.995	14374
891.118	14275
891.241	14362
891.364	14423
891.488	14533
891.611	14324
891.734	14473
891.857	14503
891.98	14415
892.103	14446
892.226	14526
892.349	14465
892.471	14290
892.594	14317
892.717	14415
892.839	14324
892.962	14434
893.085	14442
893.207	14393
893.33	14305
893.452	14305
893.575	14351
893.697	14336
893.819	14533
893.941	14655
894.064	14552
894.186	14423
894.308	14278
894.43	14514
894.552	14549
894.674	14423
894.796	14347
894.918	14457
895.04	14480
895.161	14408
895.283	14461
895.405	14438
895.526	14423
895.648	14598
895.769	14514
895.891	14560
896.012	14575
896.134	14613
896.255	14537
896.376	14511
896.498	14484
896.619	14533
896.74	14545
896.861	14693
896.982	14887
897.103	15009
897.224	14815
897.345	14754
897.466	14842
897.587	14777
897.708	14952
897.828	14834
897.949	14705
898.07	14727
898.19	14834
898.311	14952
898.431	14864
898.552	14876
898.672	14967
898.792	14963
898.913	14952
899.033	14834
899.153	14769
899.273	14659
899.393	14655
899.513	14769
899.633	14823
899.753	14796
899.873	14686
899.993	14815
900.113	14800
900.232	14811
900.352	14788
900.472	14720
900.591	14610
900.711	14606
900.83	14533
900.95	14621
901.069	14674
901.189	14564
901.308	14454
901.427	14275
901.546	14168
901.665	14278
901.784	14347
901.904	14199
902.023	14084
902.141	13921
902.26	13906
902.379	13932
902.498	13902
902.617	13677
902.735	13875
902.854	13826
902.973	13696
903.091	13529
903.21	13575
903.328	13499
903.446	13502
903.565	13407
903.683	13480
903.801	13263
903.919	13358
904.038	13320
904.156	13213
904.274	13369
904.392	13324
904.51	13259
904.627	13278
904.745	13232
904.863	13251
904.981	13057
905.098	12844
905.216	12966
905.334	12993
905.451	12905
905.569	12848
905.686	12981
905.803	12863
905.921	12738
906.038	12814
906.155	12757
906.272	12601
906.389	12696
906.506	12521
906.623	12429
906.74	12490
906.857	12376
906.974	12403
907.091	12604
907.208	12654
907.324	12544
907.441	12391
907.557	12239
907.674	12277
907.79	12190
907.907	12213
908.023	12334
908.139	12194
908.256	12125
908.372	12239
908.488	12152
908.604	11977
908.72	11965
908.836	12060
908.952	11958
909.068	11954
909.184	12045
909.3	11939
909.415	12068
909.531	12007
909.647	11821
909.762	11832
909.878	11741
909.993	11783
910.108	11760
910.224	11722
910.339	11870
910.454	11653
910.57	11554
910.685	11532
910.8	11908
910.915	11752
911.03	11611
911.145	11448
911.259	11509
911.374	11455
911.489	11395
911.604	11341
911.718	11220
911.833	11265
911.947	11075
912.062	11083
912.176	11189
912.291	11269
912.405	11170
912.519	11364
912.633	11402
912.748	11185
912.862	11162
912.976	11162
913.09	10911
913.204	11041
913.318	11151
913.431	11102
913.545	11216
913.659	11261
913.772	11113
913.886	10942
914	10934
914.113	11022
914.226	11010
914.34	11075
914.453	10885
914.566	11117
914.68	10908
914.793	10854
914.906	10668
915.019	10656
915.132	10653
915.245	10744
915.358	10694
915.47	10721
915.583	10679
915.696	10729
915.809	10801
915.921	10911
916.034	10710
916.146	10653
916.259	10615
916.371	10759
916.483	10729
916.595	10637
916.708	10634
916.82	10603
916.932	10656
917.044	10641
917.156	10599
917.268	10481
917.38	10596
917.491	10462
917.603	10535
917.715	10660
917.826	10588
917.938	10481
918.049	10451
918.161	10569
918.272	10618
918.384	10733
918.495	10527
918.606	10409
918.717	10261
918.828	10497
918.939	10462
919.05	10310
919.161	10363
919.272	10249
919.383	10238
919.494	10481
919.604	10634
919.715	10344
919.826	10303
919.936	10455
920.047	10535
920.157	10440
920.267	10569
920.378	10512
920.488	10440
920.598	10561
920.708	10740
920.818	10611
920.928	10618
921.038	10797
921.148	10645
921.258	10493
921.368	10367
921.477	10295
921.587	10268
921.697	10196
921.806	10200
921.916	10105
922.025	10040
922.134	9926
922.244	9941
922.353	10010
922.462	9873
922.571	9781
922.68	9694
922.789	9622
922.898	9637
923.007	9622
923.116	9694
923.224	9652
923.333	9629
923.442	9538
923.55	9545
923.659	9523
923.767	9584
923.876	9542
923.984	9587
924.092	9458
924.201	9523
924.309	9549
924.417	9519
924.525	9424
924.633	9492
924.741	10424
924.849	9291
924.956	9447
925.064	9321
925.172	9203
925.279	9230
925.387	9302
925.494	9306
925.602	9443
925.709	9393
925.816	9226
925.924	9302
926.031	9378
926.138	9355
926.245	9393
926.352	9192
926.459	9279
926.566	9363
926.673	9268
926.779	9180
926.886	9176
926.993	8963
927.099	9036
927.206	8933
927.312	9001
927.419	9009
927.525	8986
927.631	9070
927.737	8906
927.843	8864
927.95	8830
928.056	8868
928.162	8944
928.267	8883
928.373	9591
928.479	8998
928.585	8731
928.69	8880
928.796	8910
928.901	8807
929.007	8682
929.112	8838
929.218	8785
929.323	8697
929.428	8727
929.533	8910
929.638	8785
929.743	8682
929.848	8746
929.953	8682
930.058	8564
930.163	8484
930.267	8503
930.372	8659
930.477	8419
930.581	8670
930.685	8526
930.79	8400
930.894	8465
930.998	8469
931.103	8530
931.207	8233
931.311	8107
931.415	8138
931.519	7940
931.623	7932
