Data from test_V78500241_2912.txt Node
Date: Fri Mar 25 14:53:59 CST 2022
User: usil
Spectrometer: V785-0024
Trigger mode: 0
Integration Time (sec): 4.000000E-1
Scans to average: 1
Nonlinearity correction enabled: false
Boxcar width: 0
Storing dark spectrum: false
XAxis mode: Wavelengths
Number of Pixels in Spectrum: 1024
>>>>>Begin Spectral Data<<<<<
801.071	22154
801.214	21987
801.356	21743
801.499	21599
801.641	21519
801.783	21454
801.926	21614
802.068	21332
802.211	21272
802.353	21291
802.496	21047
802.638	20944
802.78	20975
802.923	20876
803.065	20731
803.208	20697
803.35	20777
803.492	20849
803.635	20925
803.777	20849
803.919	20902
804.061	21104
804.204	20925
804.346	20705
804.488	20598
804.63	20674
804.773	20617
804.915	20804
805.057	20823
805.199	20731
805.341	20823
805.483	20929
805.626	20864
805.768	20758
805.91	20720
806.052	20724
806.194	20579
806.336	20765
806.478	20602
806.62	20686
806.762	20731
806.904	20887
807.046	21074
807.188	20990
807.33	21138
807.472	21051
807.614	20990
807.756	20895
807.898	20853
808.04	20735
808.182	20769
808.324	20819
808.465	20853
808.607	20998
808.749	21176
808.891	21245
809.033	21180
809.174	21199
809.316	21093
809.458	21116
809.6	21058
809.741	21165
809.883	21104
810.025	21336
810.166	21230
810.308	21157
810.45	21241
810.591	21169
810.733	21036
810.875	20804
811.016	20823
811.158	20849
811.299	20845
811.441	20944
811.582	20906
811.724	20880
811.865	20819
812.007	20857
812.148	20849
812.29	20868
812.431	21013
812.573	21112
812.714	21260
812.855	21302
812.997	21401
813.138	21553
813.279	21420
813.421	21408
813.562	21294
813.703	21043
813.845	20982
813.986	20705
814.127	20530
814.268	20377
814.41	20473
814.551	20305
814.692	20362
814.833	20351
814.974	20256
815.115	20415
815.256	20267
815.397	20176
815.539	20259
815.68	20088
815.821	20119
815.962	20134
816.103	20157
816.244	19997
816.385	19807
816.526	19757
816.666	19788
816.807	19544
816.948	19632
817.089	19616
817.23	19540
817.371	19537
817.512	19590
817.653	19422
817.793	19499
817.934	19460
818.075	19556
818.216	19518
818.356	19430
818.497	19415
818.638	19164
818.778	19247
818.919	19312
819.06	19251
819.2	19274
819.341	19491
819.481	19434
819.622	19616
819.762	19776
819.903	19624
820.043	19449
820.184	19578
820.324	19510
820.465	19453
820.605	19426
820.746	19415
820.886	19388
821.026	19472
821.167	19453
821.307	19632
821.447	19537
821.588	19339
821.728	19293
821.868	19069
822.008	18871
822.149	18916
822.289	18825
822.429	18715
822.569	18620
822.709	18601
822.849	18441
822.99	18494
823.13	18357
823.27	18441
823.41	18186
823.55	18148
823.69	18270
823.83	18136
823.97	18102
824.11	17950
824.25	17984
824.389	17954
824.529	17931
824.669	18053
824.809	18129
824.949	18083
825.089	17939
825.228	18030
825.368	17798
825.508	17722
825.648	17718
825.787	17802
825.927	17847
826.067	17729
826.206	17699
826.346	17748
826.485	17832
826.625	17813
826.765	17897
826.904	17687
827.044	17581
827.183	17459
827.323	17398
827.462	17551
827.601	17554
827.741	17334
827.88	17455
828.02	17341
828.159	17322
828.298	17444
828.437	17444
828.577	17429
828.716	17478
828.855	17269
828.994	17216
829.134	17181
829.273	17254
829.412	17105
829.551	17128
829.69	17231
829.829	17178
829.968	17299
830.107	17273
830.246	17269
830.385	17117
830.524	17109
830.663	17014
830.802	16957
830.941	16786
831.08	16710
831.219	16862
831.357	16847
831.496	16961
831.635	16835
831.774	16664
831.913	16675
832.051	16672
832.19	16672
832.329	16664
832.467	16577
832.606	16455
832.744	16550
832.883	16474
833.022	16440
833.16	16474
833.299	16493
833.437	16474
833.576	16577
833.714	16531
833.852	16531
833.991	16512
834.129	16546
834.267	16622
834.406	16573
834.544	16611
834.682	16550
834.821	16512
834.959	16618
835.097	16516
835.235	16683
835.373	16546
835.511	16580
835.65	16470
835.788	16447
835.926	16265
836.064	16204
836.202	16356
836.34	16443
836.478	16535
836.615	16519
836.753	16432
836.891	16474
837.029	16462
837.167	16306
837.305	16432
837.443	16341
837.58	16352
837.718	16371
837.856	16276
837.993	16246
838.131	16219
838.269	16261
838.406	16234
838.544	16272
838.681	16044
838.819	15987
838.956	15808
839.094	15857
839.231	15888
839.369	15987
839.506	16287
839.643	16109
839.781	16017
839.918	15720
840.055	15945
840.193	15739
840.33	15854
840.467	15884
840.604	15827
840.742	16086
840.879	15675
841.016	15781
841.153	15785
841.29	16002
841.427	15831
841.564	15918
841.701	15876
841.838	15728
841.975	15667
842.112	15766
842.249	15679
842.385	15622
842.522	15865
842.659	15652
842.796	15694
842.933	15633
843.069	15568
843.206	15587
843.343	15679
843.479	15599
843.616	15652
843.752	15370
843.889	15420
844.025	15709
844.162	15492
844.298	15477
844.435	15382
844.571	15348
844.708	15511
844.844	15504
844.98	15584
845.117	15496
845.253	15294
845.389	15340
845.525	15389
845.661	15260
845.798	15154
845.934	15294
846.07	15283
846.206	15241
846.342	15325
846.478	15161
846.614	14960
846.75	14952
846.886	14941
847.022	15104
847.158	15013
847.294	14948
847.429	15028
847.565	14921
847.701	15310
847.837	14689
847.972	14549
848.108	14746
848.244	14861
848.379	14636
848.515	14670
848.65	14587
848.786	14644
848.921	14564
849.057	14765
849.192	14689
849.328	14568
849.463	14560
849.598	14617
849.734	14465
849.869	14530
850.004	14393
850.14	14294
850.275	14457
850.41	14244
850.545	14336
850.68	14313
850.815	14358
850.95	14313
851.085	14480
851.22	14442
851.355	14252
851.49	14381
851.625	14358
851.76	14286
851.895	14172
852.03	14278
852.165	14336
852.299	14473
852.434	14457
852.569	14370
852.703	14336
852.838	14370
852.973	14522
853.107	14347
853.242	14336
853.376	14142
853.511	14039
853.645	14107
853.78	14355
853.914	14240
854.048	14191
854.183	14168
854.317	14267
854.451	14423
854.585	14157
854.72	14252
854.854	14298
854.988	14088
855.122	14164
855.256	14027
855.39	14206
855.524	14275
855.658	14244
855.792	14176
855.926	14195
856.06	14244
856.194	14343
856.327	14225
856.461	14191
856.595	14176
856.729	14126
856.862	14324
856.996	14240
857.13	14225
857.263	14298
857.397	14377
857.53	14294
857.664	14309
857.797	14248
857.931	14286
858.064	14210
858.197	14294
858.331	14320
858.464	14210
858.597	14039
858.731	14180
858.864	14229
858.997	14199
859.13	14286
859.263	14240
859.396	14259
859.529	14210
859.662	14043
859.795	14172
859.928	14278
860.061	14381
860.194	14313
860.327	14233
860.46	14210
860.592	14225
860.725	14419
860.858	14377
860.99	14107
861.123	14065
861.256	14229
861.388	14256
861.521	14842
861.653	14092
861.786	14039
861.918	14149
862.05	14096
862.183	14191
862.315	14206
862.447	14275
862.58	14176
862.712	13913
862.844	13925
862.976	14062
863.108	14096
863.24	14355
863.372	13826
863.504	14062
863.636	13890
863.768	14035
863.9	13970
864.032	13925
864.164	13959
864.296	14016
864.428	14020
864.559	14050
864.691	14119
864.823	14058
864.954	13974
865.086	14046
865.217	13925
865.349	14008
865.48	13993
865.612	14005
865.743	14103
865.875	14054
866.006	13970
866.137	13959
866.269	13986
866.4	13982
866.531	13898
866.662	13944
866.793	13913
866.924	13841
867.055	13993
867.186	13902
867.317	13967
867.448	13875
867.579	13841
867.71	13845
867.841	13856
867.972	14020
868.103	14005
868.233	13986
868.364	13959
868.495	14088
868.625	14164
868.756	14282
868.886	14123
869.017	14138
869.147	14229
869.278	14355
869.408	14267
869.539	14248
869.669	14355
869.799	14233
869.929	14400
870.06	14221
870.19	14484
870.32	14495
870.45	14594
870.58	14598
870.71	14648
870.84	14800
870.97	14621
871.1	14629
871.23	14777
871.36	14800
871.489	14727
871.619	14857
871.749	14796
871.879	14800
872.008	14876
872.138	14788
872.267	14796
872.397	14727
872.526	14644
872.656	14655
872.785	14678
872.915	14845
873.044	14914
873.173	14807
873.303	14804
873.432	14921
873.561	14986
873.69	14876
873.819	14918
873.948	15013
874.077	14842
874.206	14887
874.335	14899
874.464	14982
874.593	15142
874.722	15013
874.851	15093
874.979	15173
875.108	15142
875.237	15176
875.365	15161
875.494	15119
875.623	15306
875.751	15062
875.88	15291
876.008	15329
876.136	15302
876.265	15690
876.393	15774
876.521	15774
876.65	15679
876.778	15663
876.906	15496
877.034	15587
877.162	15584
877.29	15561
877.418	15568
877.546	15595
877.674	15629
877.802	15511
877.93	15587
878.058	15584
878.185	15473
878.313	15610
878.441	15637
878.568	15454
878.696	15424
878.824	15713
878.951	15694
879.079	15831
879.206	15846
879.333	15739
879.461	15644
879.588	15682
879.715	15835
879.842	15842
879.97	15622
880.097	15382
880.224	15439
880.351	15298
880.478	15526
880.605	15424
880.732	15462
880.859	15591
880.986	15439
881.112	15515
881.239	15306
881.366	15313
881.493	15074
881.619	15085
881.746	15043
881.872	15112
881.999	15066
882.125	15123
882.252	15104
882.378	15097
882.505	15279
882.631	15005
882.757	14853
882.883	14925
883.01	14906
883.136	14914
883.262	14777
883.388	14689
883.514	14861
883.64	14941
883.766	14902
883.892	14689
884.018	14773
884.143	14826
884.269	14971
884.395	14727
884.52	14625
884.646	14701
884.772	14476
884.897	14541
885.023	14594
885.148	14606
885.274	14864
885.399	14773
885.524	14705
885.65	14617
885.775	14705
885.9	14617
886.025	14655
886.15	14773
886.275	14598
886.4	14484
886.525	14629
886.65	14564
886.775	14564
886.9	14727
887.025	14941
887.149	14712
887.274	14427
887.399	14423
887.523	14434
887.648	14400
887.773	14389
887.897	14530
888.021	14446
888.146	14423
888.27	14606
888.395	14644
888.519	14514
888.643	14450
888.767	14473
888.891	14507
889.015	14286
889.139	14305
889.263	14263
889.387	14358
889.511	14602
889.635	14518
889.759	14206
889.883	14336
890.006	14294
890.13	14389
890.254	14320
890.377	14267
890.501	14191
890.624	14180
890.748	14164
890.871	14039
890.995	13982
891.118	13925
891.241	14008
891.364	14001
891.488	14244
891.611	13951
891.734	13909
891.857	14031
891.98	14035
892.103	14096
892.226	14096
892.349	14069
892.471	13833
892.594	14035
892.717	13997
892.839	13944
892.962	13959
893.085	14119
893.207	13989
893.33	13890
893.452	13875
893.575	14073
893.697	13993
893.819	14183
893.941	14229
894.064	14107
894.186	13997
894.308	13951
894.43	14168
894.552	14210
894.674	14195
894.796	14046
894.918	14043
895.04	13944
895.161	14183
895.283	14210
895.405	14046
895.526	14199
895.648	14206
895.769	14153
895.891	14248
896.012	14263
896.134	14252
896.255	14168
896.376	14126
896.498	14107
896.619	14164
896.74	14187
896.861	14214
896.982	14503
897.103	14724
897.224	14526
897.345	14503
897.466	14381
897.587	14461
897.708	14670
897.828	14526
897.949	14393
898.07	14408
898.19	14465
898.311	14537
898.431	14537
898.552	14617
898.672	14621
898.792	14568
898.913	14533
899.033	14412
899.153	14454
899.273	14271
899.393	14313
899.513	14358
899.633	14324
899.753	14408
899.873	14301
899.993	14457
900.113	14404
900.232	14484
900.352	14366
900.472	14313
900.591	14298
900.711	14259
900.83	14199
900.95	14343
901.069	14389
901.189	14282
901.308	14039
901.427	13868
901.546	13841
901.665	13978
901.784	13997
901.904	13860
902.023	13811
902.141	13605
902.26	13548
902.379	13563
902.498	13525
902.617	13354
902.735	13548
902.854	13480
902.973	13426
903.091	13339
903.21	13213
903.328	13232
903.446	13175
903.565	13046
903.683	13103
903.801	13057
903.919	13103
904.038	13069
904.156	12886
904.274	13027
904.392	12928
904.51	12897
904.627	12848
904.745	12935
904.863	12973
904.981	12734
905.098	12623
905.216	12585
905.334	12578
905.451	12570
905.569	12593
905.686	12604
905.803	12532
905.921	12410
906.038	12528
906.155	12384
906.272	12342
906.389	12319
906.506	12163
906.623	12201
906.74	12114
906.857	12060
906.974	12057
907.091	12296
907.208	12323
907.324	12281
907.441	12068
907.557	12003
907.674	11958
907.79	11874
907.907	11882
908.023	11942
908.139	11931
908.256	11859
908.372	11847
908.488	11836
908.604	11688
908.72	11600
908.836	11790
908.952	11703
909.068	11657
909.184	11703
909.3	11665
909.415	11771
909.531	11756
909.647	11433
909.762	11402
909.878	11433
909.993	11429
910.108	11505
910.224	11417
910.339	11455
910.454	11353
910.57	11353
910.685	11250
910.8	11509
910.915	11543
911.03	11261
911.145	11155
911.259	11216
911.374	11174
911.489	11075
911.604	11071
911.718	10915
911.833	10889
911.947	10824
912.062	10847
912.176	10923
912.291	10862
912.405	10881
912.519	11060
912.633	11083
912.748	11064
912.862	10889
912.976	10797
913.09	10675
913.204	10824
913.318	10797
913.431	10999
913.545	10786
913.659	10930
913.772	10858
913.886	10649
914	10641
914.113	10748
914.226	10854
914.34	10752
914.453	10672
914.566	10744
914.68	10599
914.793	10641
914.906	10485
915.019	10405
915.132	10344
915.245	10424
915.358	10382
915.47	10447
915.583	10466
915.696	10504
915.809	10569
915.921	10561
916.034	10424
916.146	10363
916.259	10386
916.371	10493
916.483	10417
916.595	10257
916.708	10447
916.82	10432
916.932	10314
917.044	10379
917.156	10329
917.268	10280
917.38	10287
917.491	10207
917.603	10322
917.715	10348
917.826	10382
917.938	10215
918.049	10147
918.161	10291
918.272	10405
918.384	10382
918.495	10287
918.606	10150
918.717	10010
918.828	10196
918.939	10128
919.05	10025
919.161	10131
919.272	9892
919.383	9964
919.494	10162
919.604	10268
919.715	10154
919.826	10139
919.936	10150
920.047	10173
920.157	10200
920.267	10386
920.378	10162
920.488	10116
920.598	10318
920.708	10523
920.818	10417
920.928	10314
921.038	10493
921.148	10519
921.258	10188
921.368	10112
921.477	10051
921.587	9930
921.697	9861
921.806	10090
921.916	9911
922.025	9778
922.134	9797
922.244	9705
922.353	9781
922.462	9652
922.571	9576
922.68	9397
922.789	9370
922.898	9450
923.007	9332
923.116	9416
923.224	9420
923.333	9378
923.442	9218
923.55	9275
923.659	9313
923.767	9428
923.876	9260
923.984	9386
924.092	9264
924.201	9256
924.309	9249
924.417	9226
924.525	9245
924.633	9264
924.741	10143
924.849	9047
924.956	9233
925.064	9108
925.172	9001
925.279	9055
925.387	9123
925.494	8979
925.602	9199
925.709	9150
925.816	9001
925.924	9058
926.031	9154
926.138	9051
926.245	9135
926.352	9005
926.459	9199
926.566	9150
926.673	9020
926.779	8971
926.886	8960
926.993	8792
927.099	8800
927.206	8769
927.312	8777
927.419	8796
927.525	8830
927.631	8880
927.737	8758
927.843	8636
927.95	8533
928.056	8670
928.162	8678
928.267	8712
928.373	9405
928.479	8830
928.585	8537
928.69	8659
928.796	8750
928.901	8636
929.007	8526
929.112	8579
929.218	8507
929.323	8522
929.428	8541
929.533	8636
929.638	8469
929.743	8503
929.848	8610
929.953	8514
930.058	8431
930.163	8259
930.267	8294
930.372	8423
930.477	8240
930.581	8476
930.685	8438
930.79	8240
930.894	8244
930.998	8210
931.103	8381
931.207	8031
931.311	7944
931.415	7955
931.519	7632
931.623	7742
