Data from test_V78500241_1200.txt Node
Date: Fri Mar 25 14:42:04 CST 2022
User: usil
Spectrometer: V785-0024
Trigger mode: 0
Integration Time (sec): 4.000000E-1
Scans to average: 1
Nonlinearity correction enabled: false
Boxcar width: 0
Storing dark spectrum: false
XAxis mode: Wavelengths
Number of Pixels in Spectrum: 1024
>>>>>Begin Spectral Data<<<<<
801.071	22405
801.214	22272
801.356	22131
801.499	22002
801.641	21732
801.783	21709
801.926	21770
802.068	21637
802.211	21618
802.353	21507
802.496	21382
802.638	21252
802.78	21340
802.923	21207
803.065	21017
803.208	21089
803.35	21074
803.492	21192
803.635	21199
803.777	21074
803.919	21199
804.061	21538
804.204	21211
804.346	21043
804.488	21032
804.63	20948
804.773	20998
804.915	21062
805.057	21142
805.199	21017
805.341	21127
805.483	21184
805.626	21043
805.768	20994
805.91	21062
806.052	21127
806.194	20941
806.336	21355
806.478	21135
806.62	21055
806.762	21199
806.904	21195
807.046	21545
807.188	21420
807.33	21313
807.472	21473
807.614	21291
807.756	21279
807.898	21317
808.04	21108
808.182	21275
808.324	21157
808.465	21195
808.607	21382
808.749	21523
808.891	21667
809.033	21679
809.174	21603
809.316	21618
809.458	21523
809.6	21424
809.741	21428
809.883	21568
810.025	21705
810.166	21644
810.308	21553
810.45	21519
810.591	21458
810.733	21336
810.875	21325
811.016	21199
811.158	21169
811.299	21275
811.441	21355
811.582	21374
811.724	21275
811.865	21192
812.007	21272
812.148	21283
812.29	21203
812.431	21325
812.573	21492
812.714	21633
812.855	21732
812.997	21690
813.138	21945
813.279	21850
813.421	21736
813.562	21557
813.703	21507
813.845	21443
813.986	21039
814.127	20975
814.268	20861
814.41	20849
814.551	20765
814.692	20754
814.833	20750
814.974	20663
815.115	20739
815.256	20533
815.397	20670
815.539	20598
815.68	20549
815.821	20473
815.962	20476
816.103	20613
816.244	20290
816.385	20248
816.526	20191
816.666	20126
816.807	19978
816.948	20001
817.089	20183
817.23	20073
817.371	19856
817.512	19826
817.653	19849
817.793	19769
817.934	19989
818.075	19936
818.216	19993
818.356	19913
818.497	19689
818.638	19548
818.778	19681
818.919	19590
819.06	19677
819.2	19712
819.341	19799
819.481	19670
819.622	19959
819.762	20210
819.903	20050
820.043	19963
820.184	19944
820.324	19963
820.465	19902
820.605	19902
820.746	19925
820.886	19753
821.026	19978
821.167	19746
821.307	19883
821.447	19955
821.588	19818
821.728	19525
821.868	19525
822.008	19331
822.149	19312
822.289	19289
822.429	19069
822.569	19076
822.709	19091
822.849	18924
822.99	18840
823.13	18802
823.27	18821
823.41	18661
823.55	18532
823.69	18593
823.83	18654
823.97	18555
824.11	18410
824.25	18338
824.389	18376
824.529	18395
824.669	18315
824.809	18589
824.949	18429
825.089	18544
825.228	18555
825.368	18232
825.508	18235
825.648	18209
825.787	18353
825.927	18247
826.067	18129
826.206	18159
826.346	18140
826.485	18110
826.625	18163
826.765	18346
826.904	18136
827.044	18045
827.183	17923
827.323	17855
827.462	17988
827.601	17821
827.741	17920
827.88	17939
828.02	17703
828.159	17809
828.298	17931
828.437	17832
828.577	17897
828.716	18106
828.855	17904
828.994	17653
829.134	17699
829.273	17657
829.412	17630
829.551	17661
829.69	17623
829.829	17638
829.968	17802
830.107	17653
830.246	17634
830.385	17668
830.524	17448
830.663	17486
830.802	17444
830.941	17288
831.08	17212
831.219	17376
831.357	17364
831.496	17448
831.635	17193
831.774	17071
831.913	17185
832.051	17178
832.19	17025
832.329	17029
832.467	16965
832.606	16908
832.744	16885
832.883	16987
833.022	16904
833.16	16946
833.299	17067
833.437	17033
833.576	17124
833.714	17037
833.852	17048
833.991	17109
834.129	17140
834.267	17014
834.406	16980
834.544	17071
834.682	17056
834.821	17170
834.959	17147
835.097	17010
835.235	17178
835.373	17147
835.511	17041
835.65	16942
835.788	17003
835.926	16911
836.064	16793
836.202	16866
836.34	16949
836.478	16999
836.615	16938
836.753	16980
836.891	16980
837.029	16987
837.167	16980
837.305	16824
837.443	16740
837.58	16839
837.718	16816
837.856	16896
837.993	16767
838.131	16793
838.269	16725
838.406	16729
838.544	16683
838.681	16561
838.819	16474
838.956	16363
839.094	16272
839.231	16443
839.369	16447
839.506	16759
839.643	16538
839.781	16375
839.918	16363
840.055	16284
840.193	16375
840.33	16299
840.467	16341
840.604	16356
840.742	16618
840.879	16246
841.016	16280
841.153	16234
841.29	16352
841.427	16394
841.564	16318
841.701	16352
841.838	16413
841.975	16268
842.112	16226
842.249	16135
842.385	16071
842.522	16211
842.659	16093
842.796	16120
842.933	16112
843.069	16147
843.206	16082
843.343	16265
843.479	16185
843.616	16162
843.752	15964
843.889	15846
844.025	15956
844.162	16006
844.298	16002
844.435	15915
844.571	15869
844.708	16067
844.844	16112
844.98	16067
845.117	16044
845.253	15850
845.389	15713
845.525	15911
845.661	15899
845.798	15728
845.934	15892
846.07	15724
846.206	15804
846.342	16006
846.478	15785
846.614	15587
846.75	15488
846.886	15397
847.022	15591
847.158	15454
847.294	15458
847.429	15584
847.565	15500
847.701	15694
847.837	15214
847.972	15142
848.108	15199
848.244	15298
848.379	15131
848.515	15085
848.65	15058
848.786	15081
848.921	15024
849.057	15123
849.192	15119
849.328	15009
849.463	15207
849.598	15051
849.734	15081
849.869	14902
850.004	14800
850.14	14994
850.275	14861
850.41	14842
850.545	14815
850.68	14773
850.815	14842
850.95	14864
851.085	14979
851.22	14921
851.355	14921
851.49	14777
851.625	14849
851.76	14743
851.895	14678
852.03	14792
852.165	14781
852.299	14861
852.434	14971
852.569	14868
852.703	14891
852.838	14929
852.973	15036
853.107	15100
853.242	14815
853.376	14686
853.511	14629
853.645	14689
853.78	14876
853.914	14823
854.048	14708
854.183	14716
854.317	14754
854.451	14914
854.585	14705
854.72	14716
854.854	14796
854.988	14625
855.122	14663
855.256	14560
855.39	14617
855.524	14929
855.658	14838
855.792	14788
855.926	14773
856.06	14674
856.194	14720
856.327	14697
856.461	14621
856.595	14594
856.729	14670
856.862	14800
856.996	14678
857.13	14868
857.263	14842
857.397	14785
857.53	14716
857.664	14712
857.797	14906
857.931	14830
858.064	14689
858.197	14914
858.331	14686
858.464	14659
858.597	14579
858.731	14697
858.864	14716
858.997	14571
859.13	14655
859.263	14731
859.396	14842
859.529	14712
859.662	14724
859.795	14693
859.928	14765
860.061	14785
860.194	14937
860.327	14678
860.46	14773
860.592	14800
860.725	14815
860.858	14765
860.99	14716
861.123	14640
861.256	14682
861.388	14739
861.521	15393
861.653	14640
861.786	14526
861.918	14590
862.05	14663
862.183	14670
862.315	14594
862.447	14781
862.58	14708
862.712	14457
862.844	14400
862.976	14503
863.108	14499
863.24	14948
863.372	14343
863.504	14476
863.636	14499
863.768	14526
863.9	14492
864.032	14381
864.164	14476
864.296	14590
864.428	14606
864.559	14526
864.691	14564
864.823	14575
864.954	14450
865.086	14541
865.217	14396
865.349	14381
865.48	14446
865.612	14480
865.743	14530
865.875	14495
866.006	14465
866.137	14495
866.269	14442
866.4	14469
866.531	14389
866.662	14396
866.793	14396
866.924	14358
867.055	14412
867.186	14393
867.317	14484
867.448	14355
867.579	14408
867.71	14393
867.841	14309
867.972	14404
868.103	14355
868.233	14431
868.364	14408
868.495	14587
868.625	14636
868.756	14796
868.886	14610
869.017	14667
869.147	14746
869.278	14781
869.408	14636
869.539	14720
869.669	14773
869.799	14830
869.929	14773
870.06	14826
870.19	14929
870.32	14887
870.45	15017
870.58	15199
870.71	15195
870.84	15184
870.97	15104
871.1	15138
871.23	15313
871.36	15359
871.489	15169
871.619	15272
871.749	15325
871.879	15351
872.008	15439
872.138	15230
872.267	15294
872.397	15184
872.526	15077
872.656	15112
872.785	15154
872.915	15313
873.044	15450
873.173	15291
873.303	15424
873.432	15477
873.561	15466
873.69	15359
873.819	15363
873.948	15408
874.077	15443
874.206	15386
874.335	15416
874.464	15500
874.593	15637
874.722	15568
874.851	15679
874.979	15682
875.108	15751
875.237	15488
875.365	15603
875.494	15584
875.623	15739
875.751	15641
875.88	15690
876.008	15827
876.136	15816
876.265	16078
876.393	16192
876.521	16101
876.65	16143
876.778	16147
876.906	16071
877.034	16093
877.162	15991
877.29	15983
877.418	16101
877.546	16105
877.674	16067
877.802	16135
877.93	16067
878.058	16017
878.185	15991
878.313	16036
878.441	16032
878.568	15987
878.696	15998
878.824	16169
878.951	16234
879.079	16265
879.206	16398
879.333	16265
879.461	16162
879.588	16249
879.715	16287
879.842	16497
879.97	16219
880.097	15915
880.224	15991
880.351	15975
880.478	16017
880.605	16002
880.732	15926
880.859	16242
880.986	16010
881.112	15991
881.239	15884
881.366	15663
881.493	15701
881.619	15595
881.746	15496
881.872	15625
881.999	15561
882.125	15595
882.252	15530
882.378	15606
882.505	15732
882.631	15549
882.757	15393
882.883	15507
883.01	15428
883.136	15477
883.262	15294
883.388	15214
883.514	15408
883.64	15469
883.766	15359
883.892	15150
884.018	15226
884.143	15454
884.269	15477
884.395	15074
884.52	15112
884.646	15100
884.772	15138
884.897	15020
885.023	15123
885.148	15230
885.274	15233
885.399	15138
885.524	15047
885.65	15028
885.775	15024
885.9	15108
886.025	15131
886.15	15165
886.275	15100
886.4	14990
886.525	15100
886.65	15043
886.775	14990
886.9	15119
887.025	15226
887.149	15116
887.274	14933
887.399	14849
887.523	14990
887.648	14735
887.773	14762
887.897	15085
888.021	14994
888.146	14956
888.27	14975
888.395	15032
888.519	14986
888.643	15024
888.767	14975
888.891	14937
889.015	14750
889.139	14842
889.263	14705
889.387	14842
889.511	14830
889.635	14842
889.759	14758
889.883	14663
890.006	14842
890.13	14902
890.254	14727
890.377	14625
890.501	14594
890.624	14537
890.748	14731
890.871	14522
890.995	14522
891.118	14347
891.241	14457
891.364	14511
891.488	14537
891.611	14343
891.734	14442
891.857	14556
891.98	14480
892.103	14511
892.226	14549
892.349	14332
892.471	14218
892.594	14419
892.717	14446
892.839	14389
892.962	14476
893.085	14473
893.207	14419
893.33	14343
893.452	14454
893.575	14552
893.697	14419
893.819	14587
893.941	14667
894.064	14526
894.186	14492
894.308	14434
894.43	14560
894.552	14629
894.674	14667
894.796	14381
894.918	14511
895.04	14549
895.161	14617
895.283	14522
895.405	14434
895.526	14560
895.648	14602
895.769	14556
895.891	14568
896.012	14682
896.134	14667
896.255	14575
896.376	14499
896.498	14617
896.619	14644
896.74	14545
896.861	14674
896.982	14994
897.103	15043
897.224	14933
897.345	14876
897.466	14868
897.587	14921
897.708	14982
897.828	14952
897.949	14838
898.07	14796
898.19	14838
898.311	15097
898.431	14891
898.552	14891
898.672	14994
898.792	15081
898.913	14948
899.033	14864
899.153	14777
899.273	14693
899.393	14727
899.513	14708
899.633	14834
899.753	14712
899.873	14777
899.993	14826
900.113	14815
900.232	14804
900.352	14735
900.472	14682
900.591	14655
900.711	14682
900.83	14708
900.95	14819
901.069	14743
901.189	14564
901.308	14351
901.427	14305
901.546	14263
901.665	14358
901.784	14332
901.904	14218
902.023	14183
902.141	14031
902.26	13879
902.379	14046
902.498	13928
902.617	13864
902.735	13978
902.854	13917
902.973	13814
903.091	13613
903.21	13582
903.328	13662
903.446	13510
903.565	13453
903.683	13518
903.801	13411
903.919	13411
904.038	13521
904.156	13312
904.274	13407
904.392	13247
904.51	13206
904.627	13308
904.745	13343
904.863	13278
904.981	13122
905.098	12993
905.216	12947
905.334	13129
905.451	12939
905.569	12958
905.686	12989
905.803	13000
905.921	12711
906.038	12829
906.155	12764
906.272	12707
906.389	12665
906.506	12555
906.623	12589
906.74	12483
906.857	12483
906.974	12483
907.091	12681
907.208	12684
907.324	12551
907.441	12494
907.557	12270
907.674	12277
907.79	12171
907.907	12338
908.023	12350
908.139	12327
908.256	12281
908.372	12251
908.488	12197
908.604	12106
908.72	12072
908.836	12144
908.952	12068
909.068	12125
909.184	12148
909.3	12068
909.415	12152
909.531	12049
909.647	11859
909.762	11859
909.878	11786
909.993	11855
910.108	11783
910.224	11836
910.339	11840
910.454	11764
910.57	11642
910.685	11642
910.8	11893
910.915	11863
911.03	11710
911.145	11589
911.259	11539
911.374	11501
911.489	11486
911.604	11391
911.718	11254
911.833	11368
911.947	11151
912.062	11174
912.176	11216
912.291	11223
912.405	11303
912.519	11414
912.633	11463
912.748	11288
912.862	11280
912.976	11113
913.09	11033
913.204	11079
913.318	11250
913.431	11246
913.545	11296
913.659	11265
913.772	11147
913.886	11018
914	11033
914.113	11113
914.226	11113
914.34	11128
914.453	10953
914.566	11067
914.68	10904
914.793	10976
914.906	10877
915.019	10790
915.132	10714
915.245	10774
915.358	10755
915.47	10835
915.583	10835
915.696	10869
915.809	10877
915.921	10862
916.034	10717
916.146	10759
916.259	10599
916.371	10809
916.483	10744
916.595	10660
916.708	10740
916.82	10672
916.932	10717
917.044	10630
917.156	10626
917.268	10542
917.38	10649
917.491	10607
917.603	10660
917.715	10656
917.826	10672
917.938	10599
918.049	10500
918.161	10622
918.272	10687
918.384	10664
918.495	10592
918.606	10474
918.717	10440
918.828	10535
918.939	10455
919.05	10314
919.161	10447
919.272	10230
919.383	10299
919.494	10538
919.604	10725
919.715	10497
919.826	10409
919.936	10413
920.047	10588
920.157	10554
920.267	10626
920.378	10474
920.488	10356
920.598	10691
920.708	10805
920.818	10683
920.928	10626
921.038	10729
921.148	10797
921.258	10497
921.368	10417
921.477	10306
921.587	10375
921.697	10230
921.806	10348
921.916	10238
922.025	10101
922.134	10006
922.244	10021
922.353	10067
922.462	9892
922.571	9880
922.68	9675
922.789	9663
922.898	9705
923.007	9656
923.116	9743
923.224	9778
923.333	9698
923.442	9572
923.55	9545
923.659	9618
923.767	9671
923.876	9542
923.984	9675
924.092	9553
924.201	9568
924.309	9599
924.417	9504
924.525	9507
924.633	9504
924.741	10265
924.849	9374
924.956	9428
925.064	9241
925.172	9253
925.279	9291
925.387	9424
925.494	9397
925.602	9481
925.709	9405
925.816	9329
925.924	9260
926.031	9435
926.138	9367
926.245	9344
926.352	9294
926.459	9378
926.566	9386
926.673	9340
926.779	9192
926.886	9256
926.993	9058
927.099	9085
927.206	9028
927.312	8998
927.419	9119
927.525	9047
927.631	9211
927.737	9055
927.843	9001
927.95	8781
928.056	8994
928.162	8899
928.267	8990
928.373	9660
928.479	9017
928.585	8800
928.69	8906
928.796	8952
928.901	8830
929.007	8750
929.112	8910
929.218	8773
929.323	8754
929.428	8731
929.533	8921
929.638	8617
929.743	8716
929.848	8785
929.953	8750
930.058	8693
930.163	8530
930.267	8552
930.372	8659
930.477	8503
930.581	8724
930.685	8579
930.79	8431
930.894	8533
930.998	8450
931.103	8590
931.207	8206
931.311	8176
931.415	8199
931.519	7978
931.623	7974
