Data from test_V78500241_433.txt Node
Date: Fri Mar 25 14:36:44 CST 2022
User: usil
Spectrometer: V785-0024
Trigger mode: 0
Integration Time (sec): 4.000000E-1
Scans to average: 1
Nonlinearity correction enabled: false
Boxcar width: 0
Storing dark spectrum: false
XAxis mode: Wavelengths
Number of Pixels in Spectrum: 1024
>>>>>Begin Spectral Data<<<<<
801.071	26526
801.214	26488
801.356	26240
801.499	26134
801.641	26005
801.783	26043
801.926	26054
802.068	25852
802.211	25833
802.353	25803
802.496	25734
802.638	25708
802.78	25537
802.923	25567
803.065	25518
803.208	25411
803.35	25457
803.492	25472
803.635	25700
803.777	25453
803.919	25586
804.061	25875
804.204	25544
804.346	25460
804.488	25430
804.63	25514
804.773	25308
804.915	25495
805.057	25655
805.199	25396
805.341	25495
805.483	25575
805.626	25624
805.768	25472
805.91	25540
806.052	25460
806.194	25381
806.336	25780
806.478	25525
806.62	25491
806.762	25643
806.904	25803
807.046	25928
807.188	25947
807.33	25784
807.472	26039
807.614	25776
807.756	25856
807.898	25788
808.04	25731
808.182	25594
808.324	25704
808.465	25594
808.607	25723
808.749	25932
808.891	26138
809.033	26305
809.174	26065
809.316	25887
809.458	26027
809.6	26020
809.741	26084
809.883	26145
810.025	26149
810.166	26221
810.308	26244
810.45	26024
810.591	26111
810.733	25902
810.875	25811
811.016	25731
811.158	25784
811.299	25807
811.441	26069
811.582	25913
811.724	25875
811.865	25868
812.007	25780
812.148	25944
812.29	25837
812.431	26008
812.573	26092
812.714	26294
812.855	26282
812.997	26457
813.138	26537
813.279	26476
813.421	26328
813.562	26214
813.703	26142
813.845	25955
813.986	25696
814.127	25594
814.268	25331
814.41	25514
814.551	25449
814.692	25422
814.833	25464
814.974	25285
815.115	25403
815.256	25141
815.397	25289
815.539	25274
815.68	25198
815.821	25152
815.962	25198
816.103	25084
816.244	25004
816.385	24901
816.526	24806
816.666	24498
816.807	24635
816.948	24623
817.089	24654
817.23	24669
817.371	24608
817.512	24582
817.653	24578
817.793	24509
817.934	24544
818.075	24528
818.216	24528
818.356	24376
818.497	24418
818.638	24224
818.778	24216
818.919	24140
819.06	24167
819.2	24456
819.341	24384
819.481	24353
819.622	24528
819.762	24741
819.903	24688
820.043	24528
820.184	24574
820.324	24525
820.465	24654
820.605	24407
820.746	24395
820.886	24369
821.026	24490
821.167	24441
821.307	24521
821.447	24395
821.588	24144
821.728	24224
821.868	24155
822.008	23942
822.149	23969
822.289	23836
822.429	23509
822.569	23535
822.709	23596
822.849	23356
822.99	23296
823.13	23269
823.27	23193
823.41	23102
823.55	23037
823.69	23170
823.83	23170
823.97	22984
824.11	22957
824.25	22828
824.389	22946
824.529	22980
824.669	22812
824.809	23170
824.949	23006
825.089	23022
825.228	23025
825.368	22725
825.508	22656
825.648	22733
825.787	22725
825.927	22653
826.067	22535
826.206	22656
826.346	22691
826.485	22774
826.625	22694
826.765	22767
826.904	22729
827.044	22424
827.183	22443
827.323	22295
827.462	22246
827.601	22360
827.741	22356
827.88	22253
828.02	22234
828.159	22314
828.298	22390
828.437	22348
828.577	22246
828.716	22303
828.855	22242
828.994	21998
829.134	22006
829.273	22093
829.412	21991
829.551	22010
829.69	22032
829.829	22150
829.968	22124
830.107	22135
830.246	22040
830.385	21873
830.524	21857
830.663	21827
830.802	21865
830.941	21599
831.08	21675
831.219	21732
831.357	21766
831.496	21903
831.635	21568
831.774	21557
831.913	21477
832.051	21382
832.19	21420
832.329	21378
832.467	21401
832.606	21298
832.744	21157
832.883	21283
833.022	21249
833.16	21184
833.299	21268
833.437	21363
833.576	21386
833.714	21214
833.852	21336
833.991	21348
834.129	21332
834.267	21355
834.406	21321
834.544	21252
834.682	21291
834.821	21443
834.959	21374
835.097	21344
835.235	21230
835.373	21260
835.511	21241
835.65	21135
835.788	21150
835.926	21062
836.064	20929
836.202	20998
836.34	21199
836.478	21192
836.615	21176
836.753	20971
836.891	21169
837.029	21131
837.167	21207
837.305	21203
837.443	21116
837.58	21013
837.718	21024
837.856	21028
837.993	20982
838.131	20986
838.269	20956
838.406	20857
838.544	20788
838.681	20682
838.819	20560
838.956	20495
839.094	20419
839.231	20465
839.369	20507
839.506	20895
839.643	20636
839.781	20511
839.918	20240
840.055	20476
840.193	20355
840.33	20317
840.467	20434
840.604	20320
840.742	20724
840.879	20221
841.016	20240
841.153	20290
841.29	20423
841.427	20446
841.564	20301
841.701	20313
841.838	20294
841.975	20294
842.112	20267
842.249	20126
842.385	19970
842.522	20248
842.659	20134
842.796	20122
842.933	20130
843.069	20005
843.206	19944
843.343	20138
843.479	19989
843.616	20081
843.752	19784
843.889	19826
844.025	19955
844.162	19925
844.298	19871
844.435	19856
844.571	19780
844.708	19776
844.844	19921
844.98	19967
845.117	19974
845.253	19883
845.389	19693
845.525	19624
845.661	19746
845.798	19537
845.934	19548
846.07	19590
846.206	19734
846.342	19753
846.478	19582
846.614	19377
846.75	19297
846.886	19297
847.022	19396
847.158	19297
847.294	19392
847.429	19270
847.565	19183
847.701	19563
847.837	19133
847.972	19019
848.108	19217
848.244	19118
848.379	18905
848.515	18894
848.65	18882
848.786	18970
848.921	18920
849.057	18886
849.192	18973
849.328	18951
849.463	18962
849.598	18977
849.734	18787
849.869	18821
850.004	18623
850.14	18570
850.275	18608
850.41	18585
850.545	18677
850.68	18566
850.815	18616
850.95	18642
851.085	18817
851.22	18696
851.355	18513
851.49	18528
851.625	18486
851.76	18623
851.895	18448
852.03	18426
852.165	18467
852.299	18745
852.434	18661
852.569	18646
852.703	18555
852.838	18540
852.973	18555
853.107	18795
853.242	18452
853.376	18410
853.511	18330
853.645	18429
853.78	18426
853.914	18460
854.048	18475
854.183	18376
854.317	18380
854.451	18635
854.585	18429
854.72	18437
854.854	18467
854.988	18350
855.122	18452
855.256	18315
855.39	18353
855.524	18464
855.658	18502
855.792	18494
855.926	18380
856.06	18574
856.194	18410
856.327	18437
856.461	18422
856.595	18361
856.729	18357
856.862	18471
856.996	18475
857.13	18445
857.263	18536
857.397	18589
857.53	18315
857.664	18498
857.797	18486
857.931	18445
858.064	18369
858.197	18479
858.331	18403
858.464	18380
858.597	18266
858.731	18273
858.864	18292
858.997	18486
859.13	18285
859.263	18330
859.396	18407
859.529	18388
859.662	18338
859.795	18334
859.928	18292
860.061	18521
860.194	18570
860.327	18281
860.46	18205
860.592	18471
860.725	18471
860.858	18384
860.99	18346
861.123	18243
861.256	18350
861.388	18372
861.521	19034
861.653	18254
861.786	18190
861.918	18235
862.05	18323
862.183	18403
862.315	18418
862.447	18414
862.58	18254
862.712	18155
862.844	18007
862.976	18228
863.108	18205
863.24	18384
863.372	18091
863.504	18102
863.636	17980
863.768	18095
863.9	18007
864.032	17927
864.164	17939
864.296	18030
864.428	18228
864.559	18152
864.691	18182
864.823	18068
864.954	18034
865.086	18076
865.217	18087
865.349	17980
865.48	17939
865.612	17977
865.743	18136
865.875	17920
866.006	17954
866.137	17950
866.269	17977
866.4	17946
866.531	17954
866.662	17893
866.793	17916
866.924	17961
867.055	17977
867.186	17923
867.317	17999
867.448	17832
867.579	17935
867.71	17885
867.841	17874
867.972	17977
868.103	17939
868.233	17980
868.364	17923
868.495	17961
868.625	18178
868.756	18308
868.886	18091
869.017	18235
869.147	18308
869.278	18228
869.408	18098
869.539	18235
869.669	18266
869.799	18167
869.929	18308
870.06	18254
870.19	18551
870.32	18365
870.45	18448
870.58	18494
870.71	18669
870.84	18642
870.97	18452
871.1	18665
871.23	18734
871.36	18726
871.489	18665
871.619	18711
871.749	18749
871.879	18844
872.008	18757
872.138	18719
872.267	18719
872.397	18684
872.526	18646
872.656	18642
872.785	18582
872.915	18779
873.044	18856
873.173	18833
873.303	18787
873.432	18920
873.561	18791
873.69	18848
873.819	18806
873.948	18890
874.077	18776
874.206	18829
874.335	18776
874.464	18928
874.593	19053
874.722	18977
874.851	19095
874.979	19114
875.108	19103
875.237	19050
875.365	18985
875.494	19061
875.623	19126
875.751	18920
875.88	19164
876.008	19236
876.136	19228
876.265	19453
876.393	19548
876.521	19533
876.65	19537
876.778	19491
876.906	19324
877.034	19495
877.162	19434
877.29	19422
877.418	19506
877.546	19464
877.674	19491
877.802	19571
877.93	19499
878.058	19266
878.185	19304
878.313	19499
878.441	19525
878.568	19285
878.696	19434
878.824	19499
878.951	19597
879.079	19624
879.206	19693
879.333	19719
879.461	19620
879.588	19613
879.715	19537
879.842	19746
879.97	19559
880.097	19282
880.224	19293
880.351	19377
880.478	19388
880.605	19327
880.732	19343
880.859	19502
880.986	19396
881.112	19225
881.239	19255
881.366	19187
881.493	19000
881.619	18856
881.746	18916
881.872	18928
881.999	18814
882.125	18863
882.252	18924
882.378	18852
882.505	18973
882.631	18863
882.757	18734
882.883	18852
883.01	18844
883.136	18700
883.262	18604
883.388	18555
883.514	18620
883.64	18787
883.766	18700
883.892	18445
884.018	18547
884.143	18604
884.269	18650
884.395	18475
884.52	18353
884.646	18403
884.772	18216
884.897	18209
885.023	18292
885.148	18456
885.274	18532
885.399	18456
885.524	18502
885.65	18357
885.775	18445
885.9	18334
886.025	18475
886.15	18254
886.275	18258
886.4	18155
886.525	18292
886.65	18232
886.775	18350
886.9	18486
887.025	18498
887.149	18350
887.274	18129
887.399	18129
887.523	18041
887.648	18098
887.773	17946
887.897	18197
888.021	18155
888.146	18079
888.27	18133
888.395	18205
888.519	18174
888.643	18232
888.767	18289
888.891	18064
889.015	17897
889.139	18003
889.263	17882
889.387	18087
889.511	18174
889.635	18152
889.759	17946
889.883	17874
890.006	18003
890.13	18011
890.254	17912
890.377	17847
890.501	17570
890.624	17718
890.748	17710
890.871	17657
890.995	17554
891.118	17566
891.241	17562
891.364	17596
891.488	17703
891.611	17615
891.734	17570
891.857	17600
891.98	17741
892.103	17596
892.226	17535
892.349	17535
892.471	17356
892.594	17615
892.717	17573
892.839	17516
892.962	17566
893.085	17596
893.207	17585
893.33	17364
893.452	17398
893.575	17497
893.697	17490
893.819	17630
893.941	17691
894.064	17509
894.186	17501
894.308	17490
894.43	17573
894.552	17627
894.674	17566
894.796	17406
894.918	17509
895.04	17535
895.161	17604
895.283	17634
895.405	17467
895.526	17551
895.648	17619
895.769	17551
895.891	17646
896.012	17714
896.134	17581
896.255	17551
896.376	17558
896.498	17554
896.619	17699
896.74	17596
896.861	17634
896.982	17923
897.103	18087
897.224	17935
897.345	17786
897.466	17798
897.587	17783
897.708	18026
897.828	17866
897.949	17703
898.07	17642
898.19	17824
898.311	18019
898.431	17733
898.552	17775
898.672	17897
898.792	17885
898.913	17832
899.033	17684
899.153	17710
899.273	17585
899.393	17619
899.513	17608
899.633	17562
899.753	17691
899.873	17562
899.993	17627
900.113	17577
900.232	17570
900.352	17455
900.472	17455
900.591	17467
900.711	17398
900.83	17398
900.95	17532
901.069	17543
901.189	17417
901.308	17246
901.427	16999
901.546	17090
901.665	17121
901.784	17105
901.904	17064
902.023	16869
902.141	16626
902.26	16535
902.379	16744
902.498	16538
902.617	16538
902.735	16748
902.854	16645
902.973	16519
903.091	16306
903.21	16284
903.328	16356
903.446	16143
903.565	16109
903.683	16063
903.801	15922
903.919	16055
904.038	16048
904.156	15892
904.274	16010
904.392	15835
904.51	15857
904.627	15846
904.745	15869
904.863	15861
904.981	15686
905.098	15561
905.216	15568
905.334	15595
905.451	15633
905.569	15534
905.686	15587
905.803	15545
905.921	15386
906.038	15500
906.155	15382
906.272	15287
906.389	15218
906.506	15070
906.623	15123
906.74	15020
906.857	15043
906.974	14963
907.091	15169
907.208	15199
907.324	15097
907.441	14982
907.557	14861
907.674	14743
907.79	14788
907.907	14750
908.023	14731
908.139	14769
908.256	14727
908.372	14697
908.488	14697
908.604	14579
908.72	14552
908.836	14568
908.952	14530
909.068	14484
909.184	14648
909.3	14514
909.415	14583
909.531	14511
909.647	14225
909.762	14313
909.878	14237
909.993	14199
910.108	14259
910.224	14153
910.339	14176
910.454	14054
910.57	14092
910.685	13955
910.8	14275
910.915	14237
911.03	14100
911.145	13868
911.259	13822
911.374	13830
911.489	13811
911.604	13731
911.718	13620
911.833	13582
911.947	13445
912.062	13354
912.176	13529
912.291	13605
912.405	13700
912.519	13753
912.633	13849
912.748	13651
912.862	13559
912.976	13320
913.09	13343
913.204	13396
913.318	13472
913.431	13468
913.545	13563
913.659	13537
913.772	13434
913.886	13419
914	13228
914.113	13407
914.226	13438
914.34	13369
914.453	13057
914.566	13320
914.68	13240
914.793	13190
914.906	12977
915.019	12947
915.132	12875
915.245	12897
915.358	12966
915.47	13050
915.583	12985
915.696	12954
915.809	13088
915.921	13187
916.034	12993
916.146	12890
916.259	12833
916.371	12924
916.483	12939
916.595	12863
916.708	12825
916.82	12787
916.932	12810
917.044	12722
917.156	12757
917.268	12665
917.38	12772
917.491	12684
917.603	12681
917.715	12779
917.826	12787
917.938	12654
918.049	12513
918.161	12662
918.272	12829
918.384	12779
918.495	12726
918.606	12521
918.717	12483
918.828	12589
918.939	12490
919.05	12456
919.161	12471
919.272	12235
919.383	12323
919.494	12502
919.604	12673
919.715	12494
919.826	12330
919.936	12456
920.047	12544
920.157	12483
920.267	12662
920.378	12486
920.488	12429
920.598	12639
920.708	12722
920.818	12639
920.928	12544
921.038	12821
921.148	12753
921.258	12433
921.368	12372
921.477	12213
921.587	12171
921.697	12152
921.806	12353
921.916	12133
922.025	11935
922.134	11885
922.244	11847
922.353	12003
922.462	11863
922.571	11760
922.68	11638
922.789	11596
922.898	11585
923.007	11520
923.116	11596
923.224	11608
923.333	11497
923.442	11383
923.55	11448
923.659	11421
923.767	11463
923.876	11436
923.984	11493
924.092	11383
924.201	11337
924.309	11455
924.417	11398
924.525	11242
924.633	11311
924.741	12190
924.849	11201
924.956	11265
925.064	11090
925.172	11098
925.279	11048
925.387	11170
925.494	11151
925.602	11181
925.709	11136
925.816	10987
925.924	11045
926.031	11037
926.138	11094
926.245	11121
926.352	10987
926.459	11060
926.566	11143
926.673	10987
926.779	10908
926.886	10889
926.993	10809
927.099	10656
927.206	10733
927.312	10660
927.419	10812
927.525	10755
927.631	10763
927.737	10626
927.843	10615
927.95	10440
928.056	10611
928.162	10634
928.267	10710
928.373	11201
928.479	10634
928.585	10394
928.69	10577
928.796	10565
928.901	10421
929.007	10299
929.112	10466
929.218	10478
929.323	10413
929.428	10322
929.533	10558
929.638	10253
929.743	10280
929.848	10318
929.953	10329
930.058	10196
930.163	10101
930.267	10131
930.372	10188
930.477	10044
930.581	10272
930.685	10059
930.79	9964
930.894	9979
930.998	9793
931.103	10067
931.207	9720
931.311	9698
931.415	9622
931.519	9420
931.623	9344
