Data from test_V78500241_692.txt Node
Date: Fri Mar 25 14:38:32 CST 2022
User: usil
Spectrometer: V785-0024
Trigger mode: 0
Integration Time (sec): 4.000000E-1
Scans to average: 1
Nonlinearity correction enabled: false
Boxcar width: 0
Storing dark spectrum: false
XAxis mode: Wavelengths
Number of Pixels in Spectrum: 1024
>>>>>Begin Spectral Data<<<<<
801.071	27994
801.214	27922
801.356	27660
801.499	27523
801.641	27420
801.783	27485
801.926	27294
802.068	27241
802.211	27226
802.353	27192
802.496	27039
802.638	27055
802.78	26933
802.923	26720
803.065	26857
803.208	26963
803.35	26861
803.492	26910
803.635	27135
803.777	27081
803.919	27112
804.061	27408
804.204	27013
804.346	27058
804.488	27017
804.63	27127
804.773	27070
804.915	27256
805.057	27389
805.199	27348
805.341	27511
805.483	27610
805.626	27713
805.768	27549
805.91	27778
806.052	27979
806.194	28029
806.336	28466
806.478	28500
806.62	28405
806.762	28968
806.904	29341
807.046	29882
807.188	30239
807.33	30627
807.472	31274
807.614	31856
807.756	32857
807.898	33907
808.04	35292
808.182	37343
808.324	40074
808.465	43065
808.607	46527
808.749	49323
808.891	51047
809.033	51173
809.174	49419
809.316	46672
809.458	43266
809.6	39652
809.741	36992
809.883	34805
810.025	33443
810.166	32176
810.308	31270
810.45	30684
810.591	30254
810.733	29680
810.875	29326
811.016	28839
811.158	28675
811.299	28733
811.441	28527
811.582	28466
811.724	28147
811.865	28105
812.007	27903
812.148	27880
812.29	27964
812.431	27911
812.573	28074
812.714	28040
812.855	28147
812.997	28207
813.138	28223
813.279	28177
813.421	28002
813.562	27850
813.703	27568
813.845	27447
813.986	26998
814.127	26906
814.268	26758
814.41	26785
814.551	26754
814.692	26644
814.833	26712
814.974	26651
815.115	26807
815.256	26442
815.397	26423
815.539	26412
815.68	26259
815.821	26305
815.962	26240
816.103	26119
816.244	26039
816.385	25955
816.526	25860
816.666	25674
816.807	25575
816.948	25597
817.089	25506
817.23	25426
817.371	25483
817.512	25575
817.653	25449
817.793	25449
817.934	25479
818.075	25346
818.216	25559
818.356	25335
818.497	25274
818.638	25042
818.778	25164
818.919	25232
819.06	25206
819.2	25266
819.341	25274
819.481	25331
819.622	25571
819.762	25647
819.903	25571
820.043	25457
820.184	25373
820.324	25316
820.465	25476
820.605	25301
820.746	25308
820.886	24989
821.026	25114
821.167	25126
821.307	25388
821.447	25190
821.588	24928
821.728	24924
821.868	24696
822.008	24513
822.149	24498
822.289	24426
822.429	24213
822.569	24167
822.709	24076
822.849	23916
822.99	24053
823.13	23927
823.27	23897
823.41	23828
823.55	23604
823.69	23741
823.83	23794
823.97	23608
824.11	23505
824.25	23478
824.389	23501
824.529	23615
824.669	23535
824.809	23638
824.949	23570
825.089	23581
825.228	23589
825.368	23379
825.508	23200
825.648	23242
825.787	23356
825.927	23341
826.067	23303
826.206	23349
826.346	23269
826.485	23265
826.625	23353
826.765	23368
826.904	23258
827.044	23083
827.183	23117
827.323	23079
827.462	23052
827.601	23086
827.741	23018
827.88	22968
828.02	22790
828.159	22801
828.298	23067
828.437	22999
828.577	22717
828.716	23029
828.855	22755
828.994	22748
829.134	22622
829.273	22626
829.412	22561
829.551	22504
829.69	22618
829.829	22634
829.968	22603
830.107	22653
830.246	22603
830.385	22668
830.524	22478
830.663	22489
830.802	22322
830.941	22238
831.08	22223
831.219	22265
831.357	22367
831.496	22356
831.635	22242
831.774	22238
831.913	22135
832.051	22177
832.19	22082
832.329	22230
832.467	22090
832.606	22055
832.744	22013
832.883	22051
833.022	22223
833.16	22246
833.299	22459
833.437	22554
833.576	22664
833.714	22858
833.852	23044
833.991	23105
834.129	23292
834.267	23246
834.406	23090
834.544	23124
834.682	23060
834.821	22828
834.959	22984
835.097	22519
835.235	22500
835.373	22356
835.511	22337
835.65	22185
835.788	22093
835.926	21880
836.064	21781
836.202	21770
836.34	21857
836.478	21838
836.615	21842
836.753	21869
836.891	21876
837.029	21785
837.167	21637
837.305	21698
837.443	21530
837.58	21500
837.718	21625
837.856	21504
837.993	21485
838.131	21504
838.269	21306
838.406	21447
838.544	21389
838.681	21123
838.819	21100
838.956	20880
839.094	20963
839.231	20963
839.369	21119
839.506	21336
839.643	21218
839.781	20948
839.918	20895
840.055	20849
840.193	20895
840.33	20952
840.467	20830
840.604	20944
840.742	21116
840.879	20720
841.016	20914
841.153	20811
841.29	20998
841.427	20986
841.564	20937
841.701	20929
841.838	20895
841.975	20826
842.112	20891
842.249	20819
842.385	20693
842.522	20925
842.659	20758
842.796	20686
842.933	20697
843.069	20849
843.206	20727
843.343	20872
843.479	20754
843.616	20887
843.752	20701
843.889	20708
844.025	20834
844.162	20754
844.298	21085
844.435	21188
844.571	21363
844.708	21694
844.844	22044
844.98	22618
845.117	23277
845.253	24144
845.389	25974
845.525	29684
845.661	35661
845.798	42631
845.934	47653
846.07	49677
846.206	48022
846.342	43297
846.478	36433
846.614	30410
846.75	26583
846.886	24186
847.022	22911
847.158	22093
847.294	21587
847.429	21207
847.565	20800
847.701	20921
847.837	20396
847.972	20195
848.108	20153
848.244	20115
848.379	19989
848.515	19860
848.65	19868
848.786	19784
848.921	19708
849.057	19738
849.192	19765
849.328	19563
849.463	19689
849.598	19510
849.734	19552
849.869	19457
850.004	19369
850.14	19358
850.275	19381
850.41	19244
850.545	19240
850.68	19236
850.815	19411
850.95	19346
851.085	19510
851.22	19430
851.355	19362
851.49	19293
851.625	19343
851.76	19263
851.895	19240
852.03	19247
852.165	19426
852.299	19460
852.434	19521
852.569	19346
852.703	19434
852.838	19464
852.973	19632
853.107	19662
853.242	19487
853.376	19346
853.511	19255
853.645	19335
853.78	19601
853.914	19499
854.048	19586
854.183	19666
854.317	19499
854.451	19807
854.585	19651
854.72	19548
854.854	19559
854.988	19518
855.122	19506
855.256	19285
855.39	19297
855.524	19381
855.658	19255
855.792	19308
855.926	19327
856.06	19175
856.194	19263
856.327	19244
856.461	19228
856.595	19072
856.729	19095
856.862	19308
856.996	19107
857.13	19213
857.263	19061
857.397	19053
857.53	19034
857.664	19187
857.797	19133
857.931	19183
858.064	19099
858.197	19126
858.331	19042
858.464	19053
858.597	18875
858.731	19027
858.864	18920
858.997	18859
859.13	18916
859.263	19031
859.396	18985
859.529	18897
859.662	18947
859.795	18890
859.928	19091
860.061	19099
860.194	19110
860.327	18856
860.46	18928
860.592	19050
860.725	19034
860.858	19061
860.99	18928
861.123	18844
861.256	18913
861.388	18939
861.521	19544
861.653	18791
861.786	18779
861.918	18779
862.05	18989
862.183	18825
862.315	18909
862.447	18970
862.58	18886
862.712	18661
862.844	18593
862.976	18829
863.108	18707
863.24	18943
863.372	18513
863.504	18521
863.636	18589
863.768	18623
863.9	18654
864.032	18483
864.164	18521
864.296	18673
864.428	18711
864.559	18506
864.691	18726
864.823	18623
864.954	18650
865.086	18601
865.217	18490
865.349	18464
865.48	18563
865.612	18521
865.743	18631
865.875	18502
866.006	18475
866.137	18536
866.269	18528
866.4	18426
866.531	18414
866.662	18410
866.793	18448
866.924	18437
867.055	18452
867.186	18555
867.317	18410
867.448	18327
867.579	18418
867.71	18475
867.841	18479
867.972	18422
868.103	18452
868.233	18460
868.364	18399
868.495	18475
868.625	18654
868.756	18791
868.886	18627
869.017	18650
869.147	18821
869.278	18802
869.408	18722
869.539	18677
869.669	18844
869.799	18684
869.929	18878
870.06	18871
870.19	19099
870.32	19145
870.45	19061
870.58	19137
870.71	19160
870.84	19339
870.97	19274
871.1	19297
871.23	19426
871.36	19422
871.489	19263
871.619	19419
871.749	19392
871.879	19460
872.008	19559
872.138	19362
872.267	19601
872.397	19259
872.526	19381
872.656	19304
872.785	19373
872.915	19578
873.044	19719
873.173	19632
873.303	19620
873.432	19715
873.561	19757
873.69	19666
873.819	19727
873.948	19761
874.077	19731
874.206	19742
874.335	19727
874.464	20111
874.593	20161
874.722	20050
874.851	20157
874.979	20240
875.108	20290
875.237	20225
875.365	20176
875.494	20259
875.623	20469
875.751	20317
875.88	20404
876.008	20571
876.136	20811
876.265	21024
876.393	21249
876.521	21279
876.65	21287
876.778	21211
876.906	21249
877.034	21272
877.162	21332
877.29	21424
877.418	21553
877.546	21587
877.674	21778
877.802	21827
877.93	21964
878.058	22116
878.185	22325
878.313	22618
878.441	23056
878.568	23356
878.696	24007
878.824	24753
878.951	25913
879.079	27454
879.206	29558
879.333	31643
879.461	33306
879.588	34489
879.715	34287
879.842	33485
879.97	31552
880.097	29543
880.224	27888
880.351	26727
880.478	25799
880.605	25282
880.732	24783
880.859	24829
880.986	24376
881.112	24247
881.239	24038
881.366	23988
881.493	23824
881.619	23859
881.746	23805
881.872	23843
881.999	23733
882.125	23927
882.252	24053
882.378	24152
882.505	24247
882.631	24026
882.757	23958
882.883	24034
883.01	23897
883.136	23802
883.262	23847
883.388	23691
883.514	23767
883.64	23920
883.766	23608
883.892	23547
884.018	23589
884.143	23745
884.269	23821
884.395	23539
884.52	23668
884.646	23543
884.772	23531
884.897	23444
885.023	23577
885.148	23649
885.274	23718
885.399	23577
885.524	23254
885.65	23212
885.775	23162
885.9	22968
886.025	22927
886.15	22683
886.275	22459
886.4	22325
886.525	22177
886.65	22101
886.775	21922
886.9	22124
887.025	21922
887.149	21583
887.274	21439
887.399	21203
887.523	21222
887.648	21157
887.773	20857
887.897	20998
888.021	20880
888.146	20697
888.27	20842
888.395	20864
888.519	20826
888.643	20689
888.767	20682
888.891	20438
889.015	20301
889.139	20278
889.263	20267
889.387	20355
889.511	20248
889.635	20214
889.759	20103
889.883	20012
890.006	19955
890.13	20020
890.254	19967
890.377	19925
890.501	19639
890.624	19578
890.748	19552
890.871	19502
890.995	19335
891.118	19247
891.241	19480
891.364	19194
891.488	19392
891.611	19297
891.734	19343
891.857	19213
891.98	19255
892.103	19164
892.226	19202
892.349	19061
892.471	18894
892.594	18951
892.717	18928
892.839	18943
892.962	18901
893.085	18913
893.207	18722
893.33	18844
893.452	18741
893.575	18840
893.697	18696
893.819	18867
893.941	18848
894.064	18848
894.186	18399
894.308	18578
894.43	18627
894.552	18760
894.674	18715
894.796	18410
894.918	18532
895.04	18471
895.161	18536
895.283	18414
895.405	18369
895.526	18433
895.648	18521
895.769	18410
895.891	18414
896.012	18376
896.134	18460
896.255	18334
896.376	18209
896.498	18471
896.619	18395
896.74	18429
896.861	18372
896.982	18681
897.103	18791
897.224	18597
897.345	18654
897.466	18441
897.587	18604
897.708	18525
897.828	18661
897.949	18467
898.07	18407
898.19	18483
898.311	18631
898.431	18460
898.552	18494
898.672	18597
898.792	18604
898.913	18437
899.033	18452
899.153	18277
899.273	18239
899.393	18334
899.513	18311
899.633	18289
899.753	18327
899.873	18220
899.993	18395
900.113	18224
900.232	18216
900.352	18205
900.472	18152
900.591	18106
900.711	18155
900.83	18095
900.95	18247
901.069	18262
901.189	17961
901.308	17885
901.427	17699
901.546	17741
901.665	17657
901.784	17619
901.904	17581
902.023	17395
902.141	17269
902.26	17178
902.379	17121
902.498	17090
902.617	17064
902.735	17102
902.854	17083
902.973	16991
903.091	16755
903.21	16736
903.328	16691
903.446	16577
903.565	16554
903.683	16577
903.801	16588
903.919	16466
904.038	16462
904.156	16375
904.274	16329
904.392	16329
904.51	16185
904.627	16257
904.745	16306
904.863	16284
904.981	16135
905.098	15865
905.216	15888
905.334	15850
905.451	15831
905.569	15873
905.686	16032
905.803	15911
905.921	15633
906.038	15732
906.155	15816
906.272	15584
906.389	15663
906.506	15401
906.623	15412
906.74	15469
906.857	15332
906.974	15214
907.091	15504
907.208	15561
907.324	15401
907.441	15340
907.557	15180
907.674	15070
907.79	15077
907.907	15093
908.023	15283
908.139	15154
908.256	15089
908.372	15013
908.488	14986
908.604	14933
908.72	14781
908.836	14883
908.952	14788
909.068	14807
909.184	14944
909.3	14834
909.415	14830
909.531	14842
909.647	14689
909.762	14571
909.878	14579
909.993	14568
910.108	14541
910.224	14514
910.339	14617
910.454	14423
910.57	14328
910.685	14324
910.8	14598
910.915	14533
911.03	14358
911.145	14267
911.259	14157
911.374	14240
911.489	14126
911.604	14077
911.718	13951
911.833	13944
911.947	13894
912.062	13765
912.176	13883
912.291	13894
912.405	13906
912.519	14164
912.633	14092
912.748	13944
912.862	13944
912.976	13807
913.09	13666
913.204	13746
913.318	13795
913.431	13826
913.545	13826
913.659	13826
913.772	13655
913.886	13643
914	13620
914.113	13662
914.226	13681
914.34	13609
914.453	13510
914.566	13601
914.68	13559
914.793	13422
914.906	13339
915.019	13274
915.132	13240
915.245	13362
915.358	13331
915.47	13346
915.583	13369
915.696	13312
915.809	13415
915.921	13445
916.034	13358
916.146	13228
916.259	13198
916.371	13350
916.483	13289
916.595	13247
916.708	13289
916.82	13289
916.932	13263
917.044	13263
917.156	13213
917.268	13061
917.38	13110
917.491	13053
917.603	13076
917.715	13107
917.826	13145
917.938	12958
918.049	12886
918.161	13012
918.272	13160
918.384	13175
918.495	12897
918.606	12814
918.717	12726
918.828	12859
918.939	12745
919.05	12662
919.161	12768
919.272	12566
919.383	12578
919.494	12814
919.604	12993
919.715	12795
919.826	12711
919.936	12772
920.047	12886
920.157	12814
920.267	12856
920.378	12798
920.488	12730
920.598	12989
920.708	12890
920.818	12901
920.928	12920
921.038	13091
921.148	13000
921.258	12757
921.368	12604
921.477	12502
921.587	12479
921.697	12467
921.806	12623
921.916	12445
922.025	12262
922.134	12186
922.244	12076
922.353	12152
922.462	12011
922.571	12030
922.68	11863
922.789	11935
922.898	11809
923.007	11828
923.116	11908
923.224	11722
923.333	11729
923.442	11699
923.55	11665
923.659	11688
923.767	11726
923.876	11619
923.984	11748
924.092	11509
924.201	11592
924.309	11604
924.417	11668
924.525	11497
924.633	11642
924.741	12460
924.849	11398
924.956	11497
925.064	11402
925.172	11315
925.279	11303
925.387	11322
925.494	11322
925.602	11551
925.709	11402
925.816	11269
925.924	11311
926.031	11395
926.138	11364
926.245	11337
926.352	11204
926.459	11315
926.566	11478
926.673	11284
926.779	11117
926.886	11079
926.993	10946
927.099	11022
927.206	10900
927.312	10919
927.419	11014
927.525	10938
927.631	11018
927.737	10835
927.843	10820
927.95	10774
928.056	10778
928.162	10812
928.267	10881
928.373	11402
928.479	10942
928.585	10664
928.69	10812
928.796	10748
928.901	10679
929.007	10527
929.112	10660
929.218	10691
929.323	10558
929.428	10573
929.533	10706
929.638	10493
929.743	10615
929.848	10558
929.953	10561
930.058	10371
930.163	10276
930.267	10352
930.372	10500
930.477	10253
930.581	10497
930.685	10371
930.79	10173
930.894	10234
930.998	10166
931.103	10299
931.207	9949
931.311	9899
931.415	9823
931.519	9614
931.623	9618
