Data from test_V78500241_3696.txt Node
Date: Fri Mar 25 14:59:27 CST 2022
User: usil
Spectrometer: V785-0024
Trigger mode: 0
Integration Time (sec): 4.000000E-1
Scans to average: 1
Nonlinearity correction enabled: false
Boxcar width: 0
Storing dark spectrum: false
XAxis mode: Wavelengths
Number of Pixels in Spectrum: 1024
>>>>>Begin Spectral Data<<<<<
801.071	21983
801.214	21724
801.356	21500
801.499	21583
801.641	21332
801.783	21264
801.926	21329
802.068	21260
802.211	21264
802.353	21070
802.496	20914
802.638	20823
802.78	20788
802.923	20739
803.065	20621
803.208	20617
803.35	20674
803.492	20705
803.635	20796
803.777	20571
803.919	20659
804.061	20864
804.204	20689
804.346	20556
804.488	20507
804.63	20674
804.773	20454
804.915	20682
805.057	20750
805.199	20320
805.341	20556
805.483	20629
805.626	20571
805.768	20511
805.91	20625
806.052	20549
806.194	20484
806.336	20686
806.478	20571
806.62	20495
806.762	20583
806.904	20632
807.046	20899
807.188	20883
807.33	20853
807.472	20857
807.614	20773
807.756	20777
807.898	20594
808.04	20648
808.182	20461
808.324	20587
808.465	20621
808.607	20849
808.749	20842
808.891	21005
809.033	21024
809.174	21013
809.316	20807
809.458	20826
809.6	20906
809.741	20921
809.883	20998
810.025	20979
810.166	21001
810.308	20941
810.45	21047
810.591	20838
810.733	20693
810.875	20739
811.016	20621
811.158	20473
811.299	20739
811.441	20807
811.582	20693
811.724	20712
811.865	20511
812.007	20746
812.148	20632
812.29	20609
812.431	20845
812.573	20899
812.714	21070
812.855	21032
812.997	21184
813.138	21431
813.279	21249
813.421	21123
813.562	21089
813.703	20887
813.845	20834
813.986	20522
814.127	20351
814.268	20218
814.41	20225
814.551	20324
814.692	20309
814.833	20187
814.974	20126
815.115	20210
815.256	20058
815.397	19947
815.539	20016
815.68	19860
815.821	19887
815.962	19830
816.103	19849
816.244	19750
816.385	19597
816.526	19635
816.666	19529
816.807	19308
816.948	19441
817.089	19434
817.23	19339
817.371	19270
817.512	19244
817.653	19358
817.793	19217
817.934	19350
818.075	19270
818.216	19225
818.356	19320
818.497	19194
818.638	18985
818.778	18977
818.919	19046
819.06	19065
819.2	19057
819.341	19194
819.481	19225
819.622	19293
819.762	19483
819.903	19324
820.043	19350
820.184	19266
820.324	19312
820.465	19209
820.605	19282
820.746	19263
820.886	19061
821.026	19194
821.167	19228
821.307	19251
821.447	19228
821.588	19141
821.728	19023
821.868	18791
822.008	18768
822.149	18760
822.289	18703
822.429	18437
822.569	18350
822.709	18437
822.849	18186
822.99	18209
823.13	18235
823.27	18163
823.41	18083
823.55	17885
823.69	18026
823.83	17973
823.97	17885
824.11	17779
824.25	17707
824.389	17783
824.529	17805
824.669	17729
824.809	17779
824.949	17859
825.089	17809
825.228	17745
825.368	17600
825.508	17570
825.648	17554
825.787	17577
825.927	17585
826.067	17486
826.206	17562
826.346	17478
826.485	17646
826.625	17486
826.765	17684
826.904	17520
827.044	17341
827.183	17364
827.323	17200
827.462	17311
827.601	17288
827.741	17258
827.88	17277
828.02	17075
828.159	17250
828.298	17242
828.437	17379
828.577	17220
828.716	17349
828.855	17098
828.994	17029
829.134	16911
829.273	17083
829.412	17006
829.551	16824
829.69	16942
829.829	16953
829.968	17022
830.107	17075
830.246	16980
830.385	16980
830.524	16847
830.663	16831
830.802	16748
830.941	16649
831.08	16569
831.219	16672
831.357	16691
831.496	16771
831.635	16607
831.774	16577
831.913	16489
832.051	16428
832.19	16299
832.329	16447
832.467	16348
832.606	16333
832.744	16299
832.883	16303
833.022	16253
833.16	16352
833.299	16360
833.437	16417
833.576	16409
833.714	16348
833.852	16314
833.991	16424
834.129	16432
834.267	16409
834.406	16360
834.544	16424
834.682	16432
834.821	16367
834.959	16382
835.097	16238
835.235	16409
835.373	16459
835.511	16462
835.65	16329
835.788	16249
835.926	16093
836.064	16135
836.202	16116
836.34	16276
836.478	16280
836.615	16223
836.753	16394
836.891	16421
837.029	16337
837.167	16261
837.305	16200
837.443	16200
837.58	16063
837.718	16268
837.856	16173
837.993	16029
838.131	16219
838.269	16090
838.406	16044
838.544	16090
838.681	15899
838.819	15846
838.956	15701
839.094	15667
839.231	15747
839.369	15808
839.506	16162
839.643	16051
839.781	15663
839.918	15671
840.055	15705
840.193	15694
840.33	15701
840.467	15724
840.604	15671
840.742	15941
840.879	15591
841.016	15717
841.153	15663
841.29	15785
841.427	15747
841.564	15781
841.701	15793
841.838	15675
841.975	15663
842.112	15679
842.249	15584
842.385	15572
842.522	15705
842.659	15561
842.796	15507
842.933	15469
843.069	15587
843.206	15545
843.343	15572
843.479	15450
843.616	15584
843.752	15321
843.889	15370
844.025	15458
844.162	15279
844.298	15370
844.435	15283
844.571	15237
844.708	15355
844.844	15431
844.98	15443
845.117	15439
845.253	15184
845.389	15165
845.525	15233
845.661	15093
845.798	15135
845.934	15131
846.07	15028
846.206	15108
846.342	15233
846.478	15180
846.614	14948
846.75	14853
846.886	14857
847.022	14899
847.158	14864
847.294	14967
847.429	14830
847.565	14811
847.701	15066
847.837	14640
847.972	14522
848.108	14632
848.244	14670
848.379	14511
848.515	14465
848.65	14476
848.786	14499
848.921	14514
849.057	14560
849.192	14575
849.328	14442
849.463	14507
849.598	14461
849.734	14400
849.869	14282
850.004	14237
850.14	14221
850.275	14320
850.41	14142
850.545	14168
850.68	14157
850.815	14229
850.95	14237
851.085	14301
851.22	14389
851.355	14259
851.49	14183
851.625	14176
851.76	14275
851.895	14164
852.03	14176
852.165	14164
852.299	14256
852.434	14351
852.569	14240
852.703	14195
852.838	14339
852.973	14442
853.107	14252
853.242	14202
853.376	14100
853.511	14016
853.645	14092
853.78	14214
853.914	14103
854.048	14111
854.183	14046
854.317	14176
854.451	14267
854.585	14107
854.72	14134
854.854	14134
854.988	13970
855.122	14123
855.256	13944
855.39	14183
855.524	14172
855.658	14176
855.792	14157
855.926	14092
856.06	14180
856.194	14248
856.327	14142
856.461	14088
856.595	14016
856.729	14081
856.862	14286
856.996	14164
857.13	14221
857.263	14305
857.397	14214
857.53	14065
857.664	14206
857.797	14248
857.931	14324
858.064	14202
858.197	14233
858.331	14176
858.464	14244
858.597	14073
858.731	14081
858.864	14157
858.997	14035
859.13	14183
859.263	14126
859.396	14248
859.529	14092
859.662	14134
859.795	14107
859.928	14199
860.061	14294
860.194	14256
860.327	14210
860.46	14149
860.592	14317
860.725	14309
860.858	14237
860.99	14084
861.123	14111
861.256	14096
861.388	14058
861.521	14765
861.653	14103
861.786	14016
861.918	14043
862.05	14008
862.183	14130
862.315	14103
862.447	14111
862.58	14016
862.712	13951
862.844	13841
862.976	13951
863.108	14035
863.24	14465
863.372	13921
863.504	13928
863.636	13974
863.768	13997
863.9	14012
864.032	13951
864.164	13883
864.296	13917
864.428	14035
864.559	13879
864.691	14050
864.823	13936
864.954	13936
865.086	13967
865.217	13955
865.349	13856
865.48	13803
865.612	13947
865.743	14096
865.875	13871
866.006	13826
866.137	13902
866.269	13883
866.4	13868
866.531	13791
866.662	13833
866.793	13875
866.924	13917
867.055	13845
867.186	13989
867.317	13807
867.448	13860
867.579	13837
867.71	13803
867.841	13864
867.972	13875
868.103	13906
868.233	14012
868.364	13887
868.495	13906
868.625	14077
868.756	14309
868.886	14084
869.017	14202
869.147	14244
869.278	14267
869.408	14077
869.539	14103
869.669	14214
869.799	14199
869.929	14259
870.06	14351
870.19	14522
870.32	14393
870.45	14514
870.58	14556
870.71	14659
870.84	14735
870.97	14537
871.1	14571
871.23	14796
871.36	14792
871.489	14727
871.619	14758
871.749	14727
871.879	14807
872.008	14849
872.138	14792
872.267	14716
872.397	14522
872.526	14469
872.656	14686
872.785	14571
872.915	14667
873.044	14845
873.173	14895
873.303	14868
873.432	14853
873.561	14891
873.69	14796
873.819	14823
873.948	14864
874.077	14876
874.206	14853
874.335	14902
874.464	14971
874.593	15017
874.722	14979
874.851	15100
874.979	15245
875.108	15157
875.237	15036
875.365	15043
875.494	15188
875.623	15119
875.751	15150
875.88	15157
876.008	15325
876.136	15310
876.265	15614
876.393	15641
876.521	15660
876.65	15572
876.778	15568
876.906	15568
877.034	15466
877.162	15622
877.29	15428
877.418	15667
877.546	15618
877.674	15591
877.802	15526
877.93	15496
878.058	15519
878.185	15466
878.313	15515
878.441	15606
878.568	15424
878.696	15485
878.824	15523
878.951	15713
879.079	15724
879.206	15892
879.333	15682
879.461	15523
879.588	15606
879.715	15781
879.842	15861
879.97	15644
880.097	15367
880.224	15416
880.351	15504
880.478	15374
880.605	15329
880.732	15405
880.859	15606
880.986	15386
881.112	15477
881.239	15230
881.366	15176
881.493	15161
881.619	15051
881.746	15058
881.872	15024
881.999	15032
882.125	15013
882.252	15108
882.378	15119
882.505	15233
882.631	15093
882.757	14975
882.883	14918
883.01	14971
883.136	14720
883.262	14830
883.388	14834
883.514	14861
883.64	14975
883.766	14785
883.892	14686
884.018	14743
884.143	14762
884.269	14963
884.395	14686
884.52	14625
884.646	14564
884.772	14488
884.897	14396
885.023	14610
885.148	14754
885.274	14788
885.399	14667
885.524	14587
885.65	14629
885.775	14655
885.9	14590
886.025	14724
886.15	14682
886.275	14522
886.4	14503
886.525	14549
886.65	14518
886.775	14610
886.9	14682
887.025	14842
887.149	14495
887.274	14457
887.399	14298
887.523	14351
887.648	14419
887.773	14313
887.897	14533
888.021	14450
888.146	14442
888.27	14457
888.395	14446
888.519	14541
888.643	14415
888.767	14579
888.891	14286
889.015	14294
889.139	14347
889.263	14240
889.387	14427
889.511	14518
889.635	14438
889.759	14218
889.883	14195
890.006	14187
890.13	14385
890.254	14263
890.377	14339
890.501	14138
890.624	14054
890.748	14115
890.871	14027
890.995	13928
891.118	13879
891.241	14077
891.364	13982
891.488	14065
891.611	13944
891.734	13932
891.857	14058
891.98	13898
892.103	14012
892.226	13970
892.349	13921
892.471	13830
892.594	13936
892.717	14008
892.839	13917
892.962	13928
893.085	14115
893.207	13898
893.33	13868
893.452	13925
893.575	14035
893.697	13898
893.819	14149
893.941	14195
894.064	14115
894.186	13879
894.308	13967
894.43	14054
894.552	14210
894.674	14065
894.796	13898
894.918	14069
895.04	13932
895.161	14195
895.283	14039
895.405	13993
895.526	14081
895.648	14138
895.769	14202
895.891	14103
896.012	14176
896.134	14119
896.255	14149
896.376	14206
896.498	14115
896.619	14282
896.74	14214
896.861	14271
896.982	14450
897.103	14708
897.224	14404
897.345	14427
897.466	14332
897.587	14389
897.708	14465
897.828	14518
897.949	14381
898.07	14290
898.19	14351
898.311	14560
898.431	14492
898.552	14469
898.672	14629
898.792	14610
898.913	14575
899.033	14442
899.153	14343
899.273	14286
899.393	14275
899.513	14294
899.633	14358
899.753	14381
899.873	14377
899.993	14530
900.113	14324
900.232	14385
900.352	14282
900.472	14305
900.591	14210
900.711	14271
900.83	14153
900.95	14294
901.069	14332
901.189	14138
901.308	13879
901.427	13826
901.546	13883
901.665	13913
901.784	13833
901.904	13803
902.023	13696
902.141	13464
902.26	13533
902.379	13529
902.498	13415
902.617	13396
902.735	13464
902.854	13415
902.973	13407
903.091	13194
903.21	13126
903.328	13156
903.446	13198
903.565	13027
903.683	13042
903.801	13027
903.919	13015
904.038	12905
904.156	12840
904.274	12913
904.392	12798
904.51	12844
904.627	12814
904.745	12916
904.863	12966
904.981	12623
905.098	12570
905.216	12570
905.334	12669
905.451	12616
905.569	12479
905.686	12544
905.803	12574
905.921	12330
906.038	12361
906.155	12506
906.272	12292
906.389	12281
906.506	12251
906.623	12163
906.74	12178
906.857	12003
906.974	12091
907.091	12220
907.208	12296
907.324	12220
907.441	12068
907.557	11897
907.674	11942
907.79	11794
907.907	11843
908.023	11954
908.139	11836
908.256	11786
908.372	11767
908.488	11790
908.604	11600
908.72	11653
908.836	11684
908.952	11592
909.068	11630
909.184	11752
909.3	11657
909.415	11684
909.531	11619
909.647	11490
909.762	11448
909.878	11360
909.993	11433
910.108	11395
910.224	11341
910.339	11395
910.454	11318
910.57	11181
910.685	11246
910.8	11478
910.915	11368
911.03	11299
911.145	11121
911.259	11140
911.374	11170
911.489	11128
911.604	10953
911.718	10873
911.833	10911
911.947	10759
912.062	10702
912.176	10839
912.291	10885
912.405	10915
912.519	11128
912.633	11086
912.748	10892
912.862	10877
912.976	10755
913.09	10630
913.204	10736
913.318	10820
913.431	10828
913.545	10805
913.659	10942
913.772	10809
913.886	10637
914	10710
914.113	10740
914.226	10744
914.34	10725
914.453	10573
914.566	10721
914.68	10653
914.793	10607
914.906	10375
915.019	10478
915.132	10318
915.245	10379
915.358	10348
915.47	10405
915.583	10398
915.696	10455
915.809	10508
915.921	10565
916.034	10379
916.146	10417
916.259	10363
916.371	10440
916.483	10375
916.595	10314
916.708	10299
916.82	10337
916.932	10223
917.044	10291
917.156	10375
917.268	10284
917.38	10219
917.491	10196
917.603	10280
917.715	10352
917.826	10379
917.938	10135
918.049	10192
918.161	10268
918.272	10344
918.384	10375
918.495	10287
918.606	10177
918.717	10071
918.828	10044
918.939	10116
919.05	10021
919.161	10055
919.272	9960
919.383	10090
919.494	10124
919.604	10276
919.715	10181
919.826	10071
919.936	10120
920.047	10215
920.157	10139
920.267	10356
920.378	10169
920.488	10051
920.598	10337
920.708	10478
920.818	10344
920.928	10276
921.038	10504
921.148	10363
921.258	10166
921.368	10078
921.477	9998
921.587	9945
921.697	9846
921.806	10040
921.916	9865
922.025	9679
922.134	9648
922.244	9622
922.353	9766
922.462	9572
922.571	9534
922.68	9420
922.789	9306
922.898	9397
923.007	9359
923.116	9424
923.224	9462
923.333	9405
923.442	9294
923.55	9180
923.659	9294
923.767	9306
923.876	9142
923.984	9302
924.092	9260
924.201	9203
924.309	9245
924.417	9279
924.525	9180
924.633	9188
924.741	10021
924.849	8998
924.956	9195
925.064	9043
925.172	8960
925.279	8982
925.387	9119
925.494	9051
925.602	9169
925.709	9085
925.816	8971
925.924	8998
926.031	9207
926.138	9070
926.245	9112
926.352	9047
926.459	9150
926.566	9047
926.673	8963
926.779	8895
926.886	8902
926.993	8750
927.099	8708
927.206	8804
927.312	8739
927.419	8785
927.525	8804
927.631	8788
927.737	8678
927.843	8674
927.95	8537
928.056	8625
928.162	8644
928.267	8724
928.373	9192
928.479	8758
928.585	8503
928.69	8629
928.796	8716
928.901	8659
929.007	8408
929.112	8583
929.218	8556
929.323	8480
929.428	8465
929.533	8568
929.638	8454
929.743	8484
929.848	8545
929.953	8480
930.058	8385
930.163	8294
930.267	8237
930.372	8427
930.477	8210
930.581	8495
930.685	8336
930.79	8153
930.894	8286
930.998	8157
931.103	8301
931.207	8024
931.311	7989
931.415	7940
931.519	7685
931.623	7681
