Data from test_V78500241_1891.txt Node
Date: Fri Mar 25 14:46:52 CST 2022
User: usil
Spectrometer: V785-0024
Trigger mode: 0
Integration Time (sec): 4.000000E-1
Scans to average: 1
Nonlinearity correction enabled: false
Boxcar width: 0
Storing dark spectrum: false
XAxis mode: Wavelengths
Number of Pixels in Spectrum: 1024
>>>>>Begin Spectral Data<<<<<
801.071	22090
801.214	21907
801.356	21663
801.499	21637
801.641	21485
801.783	21447
801.926	21382
802.068	21469
802.211	21302
802.353	21173
802.496	21024
802.638	20918
802.78	20925
802.923	20823
803.065	20708
803.208	20807
803.35	20682
803.492	20899
803.635	20807
803.777	20724
803.919	20910
804.061	21230
804.204	20899
804.346	20735
804.488	20609
804.63	20720
804.773	20727
804.915	20727
805.057	20899
805.199	20720
805.341	20842
805.483	20762
805.626	20792
805.768	20621
805.91	20686
806.052	20750
806.194	20678
806.336	20899
806.478	20682
806.62	20731
806.762	20712
806.904	20902
807.046	20982
807.188	21070
807.33	21112
807.472	21051
807.614	20956
807.756	20994
807.898	20815
808.04	20648
808.182	20735
808.324	20762
808.465	20876
808.607	20941
808.749	21001
808.891	21275
809.033	21214
809.174	21112
809.316	21100
809.458	21047
809.6	21032
809.741	21195
809.883	21264
810.025	21241
810.166	21150
810.308	21218
810.45	21112
810.591	20944
810.733	20971
810.875	20933
811.016	20883
811.158	20724
811.299	20891
811.441	21024
811.582	20982
811.724	20883
811.865	20891
812.007	20792
812.148	20902
812.29	20845
812.431	20982
812.573	21188
812.714	21226
812.855	21355
812.997	21458
813.138	21595
813.279	21469
813.421	21382
813.562	21195
813.703	21119
813.845	21036
813.986	20807
814.127	20552
814.268	20541
814.41	20347
814.551	20393
814.692	20469
814.833	20282
814.974	20332
815.115	20492
815.256	20332
815.397	20183
815.539	20252
815.68	20233
815.821	19951
815.962	20206
816.103	20039
816.244	19864
816.385	19936
816.526	19738
816.666	19696
816.807	19540
816.948	19734
817.089	19681
817.23	19651
817.371	19464
817.512	19540
817.653	19453
817.793	19430
817.934	19563
818.075	19567
818.216	19651
818.356	19472
818.497	19388
818.638	19240
818.778	19221
818.919	19228
819.06	19278
819.2	19293
819.341	19278
819.481	19400
819.622	19552
819.762	19811
819.903	19655
820.043	19582
820.184	19586
820.324	19384
820.465	19590
820.605	19620
820.746	19483
820.886	19476
821.026	19540
821.167	19476
821.307	19495
821.447	19453
821.588	19381
821.728	19171
821.868	19202
822.008	18928
822.149	18837
822.289	18859
822.429	18612
822.569	18578
822.709	18582
822.849	18372
822.99	18395
823.13	18273
823.27	18224
823.41	18281
823.55	18209
823.69	18171
823.83	18235
823.97	18152
824.11	18019
824.25	17931
824.389	17969
824.529	18030
824.669	18095
824.809	18114
824.949	18079
825.089	18060
825.228	17984
825.368	17817
825.508	17802
825.648	17893
825.787	17821
825.927	17870
826.067	17737
826.206	17790
826.346	17786
826.485	17847
826.625	17760
826.765	17824
826.904	17726
827.044	17573
827.183	17505
827.323	17406
827.462	17474
827.601	17433
827.741	17528
827.88	17467
828.02	17497
828.159	17421
828.298	17463
828.437	17543
828.577	17402
828.716	17589
828.855	17444
828.994	17296
829.134	17193
829.273	17356
829.412	17239
829.551	17079
829.69	17292
829.829	17216
829.968	17360
830.107	17280
830.246	17277
830.385	17261
830.524	17105
830.663	17048
830.802	17022
830.941	16889
831.08	16866
831.219	16877
831.357	16900
831.496	17151
831.635	16858
831.774	16786
831.913	16679
832.051	16641
832.19	16664
832.329	16683
832.467	16504
832.606	16462
832.744	16459
832.883	16630
833.022	16588
833.16	16622
833.299	16588
833.437	16584
833.576	16569
833.714	16550
833.852	16569
833.991	16588
834.129	16611
834.267	16687
834.406	16649
834.544	16615
834.682	16660
834.821	16649
834.959	16774
835.097	16615
835.235	16672
835.373	16607
835.511	16607
835.65	16516
835.788	16512
835.926	16371
836.064	16337
836.202	16363
836.34	16569
836.478	16717
836.615	16531
836.753	16474
836.891	16516
837.029	16641
837.167	16523
837.305	16417
837.443	16382
837.58	16325
837.718	16390
837.856	16405
837.993	16379
838.131	16421
838.269	16223
838.406	16348
838.544	16265
838.681	16150
838.819	16025
838.956	15907
839.094	15884
839.231	16013
839.369	16006
839.506	16322
839.643	16158
839.781	15983
839.918	15983
840.055	15945
840.193	16017
840.33	15960
840.467	15911
840.604	16040
840.742	16204
840.879	15861
841.016	15918
841.153	15983
841.29	16071
841.427	16044
841.564	16044
841.701	16032
841.838	15922
841.975	15861
842.112	15892
842.249	15819
842.385	15682
842.522	15831
842.659	15797
842.796	15728
842.933	15709
843.069	15728
843.206	15682
843.343	15842
843.479	15660
843.616	15694
843.752	15526
843.889	15496
844.025	15728
844.162	15507
844.298	15641
844.435	15477
844.571	15431
844.708	15568
844.844	15850
844.98	15679
845.117	15610
845.253	15572
845.389	15431
845.525	15435
845.661	15481
845.798	15298
845.934	15344
846.07	15279
846.206	15348
846.342	15336
846.478	15382
846.614	15108
846.75	15036
846.886	15135
847.022	15264
847.158	15100
847.294	15013
847.429	15100
847.565	15020
847.701	15275
847.837	14804
847.972	14826
848.108	15024
848.244	14944
848.379	14735
848.515	14735
848.65	14785
848.786	14773
848.921	14743
849.057	14815
849.192	14769
849.328	14743
849.463	14705
849.598	14724
849.734	14712
849.869	14533
850.004	14492
850.14	14484
850.275	14408
850.41	14366
850.545	14393
850.68	14454
850.815	14469
850.95	14476
851.085	14625
851.22	14450
851.355	14450
851.49	14476
851.625	14522
851.76	14404
851.895	14408
852.03	14370
852.165	14476
852.299	14438
852.434	14473
852.569	14533
852.703	14434
852.838	14530
852.973	14594
853.107	14625
853.242	14499
853.376	14404
853.511	14305
853.645	14286
853.78	14408
853.914	14381
854.048	14309
854.183	14199
854.317	14336
854.451	14457
854.585	14358
854.72	14355
854.854	14385
854.988	14301
855.122	14275
855.256	14187
855.39	14301
855.524	14533
855.658	14389
855.792	14389
855.926	14396
856.06	14457
856.194	14427
856.327	14301
856.461	14339
856.595	14377
856.729	14305
856.862	14419
856.996	14396
857.13	14396
857.263	14393
857.397	14393
857.53	14324
857.664	14381
857.797	14503
857.931	14400
858.064	14450
858.197	14469
858.331	14370
858.464	14347
858.597	14206
858.731	14237
858.864	14298
858.997	14301
859.13	14358
859.263	14381
859.396	14385
859.529	14313
859.662	14294
859.795	14290
859.928	14278
860.061	14564
860.194	14415
860.327	14415
860.46	14366
860.592	14419
860.725	14431
860.858	14461
860.99	14343
861.123	14233
861.256	14172
861.388	14347
861.521	14967
861.653	14324
861.786	14187
861.918	14218
862.05	14218
862.183	14278
862.315	14305
862.447	14419
862.58	14347
862.712	14088
862.844	14084
862.976	14199
863.108	14145
863.24	14412
863.372	14024
863.504	14111
863.636	14096
863.768	14180
863.9	14119
864.032	14020
864.164	14081
864.296	14073
864.428	14225
864.559	14153
864.691	14195
864.823	14210
864.954	14164
865.086	14225
865.217	14031
865.349	14046
865.48	14088
865.612	14153
865.743	14339
865.875	14138
866.006	14107
866.137	14142
866.269	14103
866.4	13993
866.531	14115
866.662	14001
866.793	14081
866.924	14084
867.055	14077
867.186	14126
867.317	14115
867.448	13932
867.579	14024
867.71	14065
867.841	13940
867.972	14206
868.103	14130
868.233	14103
868.364	14050
868.495	14221
868.625	14301
868.756	14454
868.886	14301
869.017	14332
869.147	14400
869.278	14469
869.408	14336
869.539	14465
869.669	14412
869.799	14343
869.929	14393
870.06	14454
870.19	14648
870.32	14602
870.45	14697
870.58	14788
870.71	14857
870.84	14971
870.97	14750
871.1	14689
871.23	14826
871.36	14967
871.489	14842
871.619	14861
871.749	15017
871.879	15032
872.008	15093
872.138	14941
872.267	14918
872.397	14811
872.526	14762
872.656	14712
872.785	14716
872.915	14990
873.044	14990
873.173	14998
873.303	15020
873.432	14994
873.561	15100
873.69	14979
873.819	15005
873.948	14975
874.077	15043
874.206	15070
874.335	15001
874.464	15142
874.593	15249
874.722	15097
874.851	15313
874.979	15439
875.108	15412
875.237	15275
875.365	15230
875.494	15302
875.623	15408
875.751	15268
875.88	15370
876.008	15545
876.136	15526
876.265	15766
876.393	15827
876.521	15846
876.65	15766
876.778	15701
876.906	15724
877.034	15606
877.162	15743
877.29	15667
877.418	15743
877.546	15701
877.674	15682
877.802	15797
877.93	15671
878.058	15633
878.185	15641
878.313	15759
878.441	15785
878.568	15530
878.696	15633
878.824	15682
878.951	15762
879.079	15869
879.206	16097
879.333	15922
879.461	15850
879.588	15854
879.715	15884
879.842	16040
879.97	15865
880.097	15534
880.224	15481
880.351	15576
880.478	15572
880.605	15507
880.732	15526
880.859	15854
880.986	15587
881.112	15587
881.239	15454
881.366	15291
881.493	15272
881.619	15268
881.746	15291
881.872	15302
881.999	15199
882.125	15199
882.252	15313
882.378	15199
882.505	15355
882.631	15127
882.757	15036
882.883	15081
883.01	15089
883.136	15077
883.262	14880
883.388	14887
883.514	15157
883.64	15070
883.766	15036
883.892	14838
884.018	14853
884.143	15070
884.269	15066
884.395	14777
884.52	14670
884.646	14785
884.772	14815
884.897	14727
885.023	14773
885.148	14861
885.274	14918
885.399	14861
885.524	14834
885.65	14838
885.775	14815
885.9	14674
886.025	14899
886.15	14815
886.275	14746
886.4	14640
886.525	14773
886.65	14682
886.775	14689
886.9	15032
887.025	14967
887.149	14819
887.274	14606
887.399	14488
887.523	14488
887.648	14526
887.773	14495
887.897	14697
888.021	14655
888.146	14613
888.27	14602
888.395	14731
888.519	14613
888.643	14674
888.767	14659
888.891	14533
889.015	14461
889.139	14480
889.263	14450
889.387	14598
889.511	14571
889.635	14560
889.759	14431
889.883	14385
890.006	14556
890.13	14552
890.254	14339
890.377	14488
890.501	14161
890.624	14149
890.748	14393
890.871	14187
890.995	14062
891.118	14126
891.241	14161
891.364	14088
891.488	14240
891.611	14096
891.734	14134
891.857	14214
891.98	14180
892.103	14225
892.226	14164
892.349	14134
892.471	14043
892.594	14103
892.717	14126
892.839	14069
892.962	14195
893.085	14195
893.207	14145
893.33	14050
893.452	14096
893.575	14138
893.697	14115
893.819	14294
893.941	14358
894.064	14237
894.186	14214
894.308	14157
894.43	14320
894.552	14404
894.674	14267
894.796	14180
894.918	14244
895.04	14119
895.161	14225
895.283	14362
895.405	14134
895.526	14183
895.648	14313
895.769	14309
895.891	14393
896.012	14415
896.134	14358
896.255	14168
896.376	14320
896.498	14183
896.619	14381
896.74	14282
896.861	14450
896.982	14731
897.103	14746
897.224	14693
897.345	14552
897.466	14537
897.587	14568
897.708	14754
897.828	14625
897.949	14533
898.07	14434
898.19	14530
898.311	14743
898.431	14598
898.552	14655
898.672	14754
898.792	14663
898.913	14735
899.033	14503
899.153	14552
899.273	14503
899.393	14465
899.513	14526
899.633	14530
899.753	14503
899.873	14400
899.993	14571
900.113	14480
900.232	14446
900.352	14419
900.472	14419
900.591	14313
900.711	14324
900.83	14271
900.95	14408
901.069	14389
901.189	14324
901.308	14187
901.427	13989
901.546	14088
901.665	14058
901.784	14088
901.904	13940
902.023	13822
902.141	13746
902.26	13506
902.379	13765
902.498	13552
902.617	13525
902.735	13685
902.854	13613
902.973	13518
903.091	13339
903.21	13381
903.328	13350
903.446	13278
903.565	13244
903.683	13209
903.801	13129
903.919	13213
904.038	13194
904.156	12970
904.274	13088
904.392	13012
904.51	13110
904.627	12996
904.745	13118
904.863	13027
904.981	12814
905.098	12700
905.216	12722
905.334	12738
905.451	12791
905.569	12798
905.686	12833
905.803	12726
905.921	12506
906.038	12612
906.155	12608
906.272	12399
906.389	12414
906.506	12308
906.623	12395
906.74	12315
906.857	12102
906.974	12197
907.091	12388
907.208	12456
907.324	12448
907.441	12262
907.557	12057
907.674	12144
907.79	12019
907.907	12087
908.023	12098
908.139	12034
908.256	12117
908.372	12072
908.488	11999
908.604	11878
908.72	11832
908.836	11847
908.952	11843
909.068	11840
909.184	11863
909.3	11817
909.415	11859
909.531	11775
909.647	11661
909.762	11668
909.878	11661
909.993	11661
910.108	11611
910.224	11604
910.339	11539
910.454	11459
910.57	11474
910.685	11455
910.8	11676
910.915	11634
911.03	11482
911.145	11353
911.259	11356
911.374	11288
911.489	11246
911.604	11220
911.718	11022
911.833	11079
911.947	10976
912.062	10927
912.176	11067
912.291	11067
912.405	11033
912.519	11246
912.633	11265
912.748	11060
912.862	11136
912.976	10976
913.09	10847
913.204	10866
913.318	10908
913.431	11067
913.545	11003
913.659	11033
913.772	10980
913.886	10797
914	10839
914.113	10850
914.226	10949
914.34	10869
914.453	10782
914.566	10885
914.68	10717
914.793	10843
914.906	10531
915.019	10519
915.132	10542
915.245	10580
915.358	10500
915.47	10618
915.583	10584
915.696	10531
915.809	10729
915.921	10691
916.034	10558
916.146	10485
916.259	10569
916.371	10577
916.483	10558
916.595	10424
916.708	10550
916.82	10497
916.932	10493
917.044	10443
917.156	10394
917.268	10299
917.38	10386
917.491	10459
917.603	10379
917.715	10489
917.826	10481
917.938	10329
918.049	10265
918.161	10379
918.272	10569
918.384	10489
918.495	10436
918.606	10280
918.717	10204
918.828	10257
918.939	10287
919.05	10147
919.161	10230
919.272	10036
919.383	10135
919.494	10363
919.604	10478
919.715	10356
919.826	10223
919.936	10234
920.047	10348
920.157	10310
920.267	10474
920.378	10318
920.488	10318
920.598	10504
920.708	10626
920.818	10424
920.928	10504
921.038	10664
921.148	10493
921.258	10299
921.368	10265
921.477	10173
921.587	10128
921.697	10109
921.806	10223
921.916	10025
922.025	9781
922.134	9766
922.244	9785
922.353	9884
922.462	9701
922.571	9686
922.68	9572
922.789	9530
922.898	9538
923.007	9466
923.116	9595
923.224	9534
923.333	9545
923.442	9412
923.55	9469
923.659	9416
923.767	9443
923.876	9405
923.984	9458
924.092	9340
924.201	9416
924.309	9412
924.417	9447
924.525	9351
924.633	9367
924.741	10322
924.849	9195
924.956	9351
925.064	9112
925.172	9154
925.279	9180
925.387	9154
925.494	9184
925.602	9302
925.709	9313
925.816	9154
925.924	9169
926.031	9302
926.138	9161
926.245	9249
926.352	9135
926.459	9325
926.566	9218
926.673	9131
926.779	9093
926.886	9058
926.993	8899
927.099	8925
927.206	8933
927.312	8883
927.419	8902
927.525	8925
927.631	8933
927.737	8800
927.843	8819
927.95	8750
928.056	8800
928.162	8800
928.267	8883
928.373	9416
928.479	8861
928.585	8602
928.69	8796
928.796	8766
928.901	8739
929.007	8568
929.112	8651
929.218	8659
929.323	8613
929.428	8670
929.533	8712
929.638	8610
929.743	8590
929.848	8648
929.953	8598
930.058	8492
930.163	8336
930.267	8412
930.372	8541
930.477	8305
930.581	8594
930.685	8431
930.79	8301
930.894	8385
930.998	8347
931.103	8480
931.207	8142
931.311	8073
931.415	7982
931.519	7837
931.623	7803
