Data from test_V78500241_3698.txt Node
Date: Fri Mar 25 14:59:28 CST 2022
User: usil
Spectrometer: V785-0024
Trigger mode: 0
Integration Time (sec): 4.000000E-1
Scans to average: 1
Nonlinearity correction enabled: false
Boxcar width: 0
Storing dark spectrum: false
XAxis mode: Wavelengths
Number of Pixels in Spectrum: 1024
>>>>>Begin Spectral Data<<<<<
801.071	21903
801.214	21720
801.356	21473
801.499	21344
801.641	21359
801.783	21317
801.926	21256
802.068	21264
802.211	21180
802.353	21108
802.496	20880
802.638	20785
802.78	20678
802.923	20609
803.065	20621
803.208	20613
803.35	20686
803.492	20632
803.635	20724
803.777	20571
803.919	20571
804.061	20963
804.204	20579
804.346	20579
804.488	20575
804.63	20537
804.773	20484
804.915	20408
805.057	20571
805.199	20408
805.341	20484
805.483	20739
805.626	20674
805.768	20450
805.91	20393
806.052	20415
806.194	20339
806.336	20708
806.478	20571
806.62	20393
806.762	20625
806.904	20716
807.046	21043
807.188	21032
807.33	20826
807.472	20727
807.614	20659
807.756	20792
807.898	20556
808.04	20541
808.182	20552
808.324	20602
808.465	20754
808.607	20773
808.749	20804
808.891	20960
809.033	21089
809.174	20948
809.316	20693
809.458	20838
809.6	20883
809.741	20811
809.883	20880
810.025	21020
810.166	21081
810.308	21005
810.45	20933
810.591	20967
810.733	20655
810.875	20564
811.016	20545
811.158	20404
811.299	20731
811.441	20765
811.582	20788
811.724	20651
811.865	20632
812.007	20533
812.148	20632
812.29	20457
812.431	20792
812.573	20952
812.714	21020
812.855	21005
812.997	21344
813.138	21321
813.279	21287
813.421	21074
813.562	20944
813.703	20826
813.845	20701
813.986	20495
814.127	20237
814.268	20282
814.41	20119
814.551	20157
814.692	20339
814.833	20138
814.974	19894
815.115	20119
815.256	19967
815.397	20088
815.539	20065
815.68	19955
815.821	19700
815.962	19932
816.103	19879
816.244	19655
816.385	19643
816.526	19674
816.666	19400
816.807	19274
816.948	19453
817.089	19441
817.23	19221
817.371	19327
817.512	19236
817.653	19282
817.793	19255
817.934	19213
818.075	19202
818.216	19369
818.356	19278
818.497	19110
818.638	19107
818.778	18905
818.919	18905
819.06	18996
819.2	19095
819.341	19114
819.481	19126
819.622	19381
819.762	19411
819.903	19331
820.043	19327
820.184	19350
820.324	19236
820.465	19282
820.605	19263
820.746	19225
820.886	19099
821.026	19183
821.167	19145
821.307	19240
821.447	19285
821.588	19012
821.728	19019
821.868	18745
822.008	18585
822.149	18540
822.289	18650
822.429	18498
822.569	18338
822.709	18361
822.849	18228
822.99	18182
823.13	18129
823.27	18140
823.41	17965
823.55	18034
823.69	17996
823.83	17946
823.97	17878
824.11	17737
824.25	17786
824.389	17748
824.529	17779
824.669	17668
824.809	17771
824.949	17718
825.089	17802
825.228	17783
825.368	17596
825.508	17611
825.648	17589
825.787	17520
825.927	17608
826.067	17459
826.206	17455
826.346	17520
826.485	17509
826.625	17509
826.765	17608
826.904	17596
827.044	17227
827.183	17269
827.323	17280
827.462	17280
827.601	17277
827.741	17170
827.88	17212
828.02	17060
828.159	17200
828.298	17261
828.437	17277
828.577	17185
828.716	17509
828.855	17128
828.994	17010
829.134	16930
829.273	17033
829.412	16953
829.551	16847
829.69	16862
829.829	16972
829.968	17151
830.107	17003
830.246	16942
830.385	16908
830.524	16923
830.663	16824
830.802	16752
830.941	16512
831.08	16580
831.219	16744
831.357	16660
831.496	16839
831.635	16691
831.774	16542
831.913	16485
832.051	16481
832.19	16337
832.329	16519
832.467	16382
832.606	16238
832.744	16215
832.883	16310
833.022	16280
833.16	16284
833.299	16363
833.437	16333
833.576	16356
833.714	16382
833.852	16447
833.991	16447
834.129	16390
834.267	16432
834.406	16310
834.544	16413
834.682	16360
834.821	16390
834.959	16573
835.097	16314
835.235	16447
835.373	16390
835.511	16428
835.65	16234
835.788	16265
835.926	16128
836.064	16158
836.202	16040
836.34	16337
836.478	16421
836.615	16299
836.753	16291
836.891	16421
837.029	16284
837.167	16230
837.305	16261
837.443	16105
837.58	16093
837.718	16211
837.856	16192
837.993	16162
838.131	16181
838.269	16090
838.406	16093
838.544	16051
838.681	15884
838.819	15850
838.956	15720
839.094	15701
839.231	15682
839.369	15937
839.506	16116
839.643	15846
839.781	15736
839.918	15781
840.055	15717
840.193	15762
840.33	15717
840.467	15739
840.604	15766
840.742	15880
840.879	15530
841.016	15675
841.153	15614
841.29	15774
841.427	15675
841.564	15724
841.701	15671
841.838	15614
841.975	15625
842.112	15679
842.249	15477
842.385	15549
842.522	15686
842.659	15466
842.796	15382
842.933	15523
843.069	15504
843.206	15397
843.343	15530
843.479	15485
843.616	15564
843.752	15226
843.889	15348
844.025	15462
844.162	15237
844.298	15291
844.435	15298
844.571	15203
844.708	15268
844.844	15481
844.98	15348
845.117	15386
845.253	15199
845.389	15260
845.525	15161
845.661	15192
845.798	15051
845.934	15123
846.07	15062
846.206	15154
846.342	15100
846.478	15055
846.614	14975
846.75	14800
846.886	14834
847.022	14994
847.158	14876
847.294	14895
847.429	14910
847.565	14853
847.701	15131
847.837	14598
847.972	14526
848.108	14670
848.244	14689
848.379	14617
848.515	14347
848.65	14385
848.786	14480
848.921	14454
849.057	14640
849.192	14575
849.328	14465
849.463	14454
849.598	14454
849.734	14339
849.869	14355
850.004	14202
850.14	14275
850.275	14256
850.41	14176
850.545	14278
850.68	14191
850.815	14275
850.95	14145
851.085	14396
851.22	14339
851.355	14244
851.49	14157
851.625	14191
851.76	14195
851.895	14065
852.03	14008
852.165	14176
852.299	14237
852.434	14339
852.569	14282
852.703	14286
852.838	14218
852.973	14328
853.107	14275
853.242	14126
853.376	14046
853.511	13955
853.645	14027
853.78	14161
853.914	14202
854.048	14039
854.183	14100
854.317	14119
854.451	14271
854.585	14081
854.72	14180
854.854	14172
854.988	14027
855.122	14058
855.256	14039
855.39	14126
855.524	14221
855.658	14183
855.792	14180
855.926	14142
856.06	14123
856.194	14168
856.327	14119
856.461	14088
856.595	14081
856.729	14103
856.862	14339
856.996	14172
857.13	14168
857.263	14183
857.397	14320
857.53	14020
857.664	14153
857.797	14161
857.931	14282
858.064	14248
858.197	14183
858.331	14081
858.464	14050
858.597	13951
858.731	14039
858.864	14069
858.997	14103
859.13	14123
859.263	14088
859.396	14138
859.529	14084
859.662	14012
859.795	14020
859.928	14096
860.061	14267
860.194	14252
860.327	14149
860.46	14016
860.592	14221
860.725	14256
860.858	14221
860.99	14073
861.123	14031
861.256	14012
861.388	14073
861.521	14777
861.653	14008
861.786	13894
861.918	14005
862.05	14046
862.183	14084
862.315	14103
862.447	14088
862.58	14027
862.712	13856
862.844	13879
862.976	13970
863.108	13917
863.24	14328
863.372	13875
863.504	13814
863.636	13864
863.768	13955
863.9	13864
864.032	13845
864.164	13940
864.296	14005
864.428	13967
864.559	13967
864.691	13997
864.823	13947
864.954	13955
865.086	13940
865.217	13731
865.349	13860
865.48	13879
865.612	13963
865.743	14043
865.875	13841
866.006	13784
866.137	13807
866.269	13928
866.4	13837
866.531	13727
866.662	13826
866.793	13849
866.924	13879
867.055	13879
867.186	13887
867.317	13871
867.448	13811
867.579	13822
867.71	13731
867.841	13765
867.972	13849
868.103	13921
868.233	13887
868.364	13917
868.495	13928
868.625	14126
868.756	14233
868.886	14035
869.017	14107
869.147	14233
869.278	14275
869.408	14187
869.539	14088
869.669	14240
869.799	14111
869.929	14195
870.06	14214
870.19	14465
870.32	14358
870.45	14511
870.58	14587
870.71	14617
870.84	14625
870.97	14484
871.1	14522
871.23	14625
871.36	14708
871.489	14659
871.619	14678
871.749	14712
871.879	14815
872.008	14876
872.138	14743
872.267	14667
872.397	14682
872.526	14526
872.656	14541
872.785	14621
872.915	14724
873.044	14872
873.173	14735
873.303	14731
873.432	14781
873.561	14796
873.69	14811
873.819	14716
873.948	14887
874.077	14815
874.206	14663
874.335	14811
874.464	14948
874.593	15058
874.722	15108
874.851	15127
874.979	15119
875.108	15142
875.237	15112
875.365	15051
875.494	15085
875.623	15119
875.751	15001
875.88	15135
876.008	15222
876.136	15329
876.265	15500
876.393	15728
876.521	15629
876.65	15595
876.778	15492
876.906	15439
877.034	15496
877.162	15572
877.29	15412
877.418	15542
877.546	15557
877.674	15504
877.802	15424
877.93	15549
878.058	15397
878.185	15458
878.313	15606
878.441	15591
878.568	15340
878.696	15408
878.824	15549
878.951	15637
879.079	15743
879.206	15755
879.333	15690
879.461	15462
879.588	15515
879.715	15675
879.842	15907
879.97	15580
880.097	15294
880.224	15321
880.351	15310
880.478	15431
880.605	15306
880.732	15287
880.859	15576
880.986	15340
881.112	15344
881.239	15260
881.366	15214
881.493	14979
881.619	14982
881.746	15100
881.872	15104
881.999	14956
882.125	15062
882.252	15024
882.378	15013
882.505	15237
882.631	14994
882.757	14842
882.883	14849
883.01	14876
883.136	14765
883.262	14682
883.388	14712
883.514	14807
883.64	14899
883.766	14785
883.892	14636
884.018	14682
884.143	14838
884.269	14883
884.395	14587
884.52	14480
884.646	14621
884.772	14499
884.897	14431
885.023	14499
885.148	14640
885.274	14686
885.399	14636
885.524	14526
885.65	14533
885.775	14575
885.9	14522
886.025	14655
886.15	14636
886.275	14560
886.4	14412
886.525	14507
886.65	14461
886.775	14492
886.9	14686
887.025	14765
887.149	14469
887.274	14415
887.399	14396
887.523	14286
887.648	14358
887.773	14320
887.897	14412
888.021	14522
888.146	14423
888.27	14476
888.395	14556
888.519	14309
888.643	14545
888.767	14526
888.891	14301
889.015	14256
889.139	14199
889.263	14145
889.387	14358
889.511	14476
889.635	14347
889.759	14263
889.883	14199
890.006	14320
890.13	14415
890.254	14221
890.377	14191
890.501	13993
890.624	14096
890.748	14161
890.871	14035
890.995	13997
891.118	13826
891.241	13909
891.364	13852
891.488	14077
891.611	13852
891.734	13955
891.857	13997
891.98	14016
892.103	14031
892.226	14027
892.349	13917
892.471	13788
892.594	13921
892.717	13902
892.839	13909
892.962	13963
893.085	13993
893.207	13898
893.33	13822
893.452	13868
893.575	13986
893.697	13947
893.819	14096
893.941	14145
894.064	14157
894.186	13936
894.308	13940
894.43	14077
894.552	14168
894.674	14111
894.796	13826
894.918	13940
895.04	13940
895.161	14092
895.283	14119
895.405	13955
895.526	14069
895.648	14001
895.769	14161
895.891	14237
896.012	14229
896.134	14176
896.255	14164
896.376	14119
896.498	14119
896.619	14191
896.74	14134
896.861	14107
896.982	14545
897.103	14625
897.224	14457
897.345	14377
897.466	14339
897.587	14446
897.708	14560
897.828	14442
897.949	14381
898.07	14328
898.19	14355
898.311	14549
898.431	14454
898.552	14473
898.672	14533
898.792	14568
898.913	14514
899.033	14469
899.153	14377
899.273	14210
899.393	14301
899.513	14332
899.633	14351
899.753	14339
899.873	14336
899.993	14423
900.113	14286
900.232	14393
900.352	14336
900.472	14229
900.591	14119
900.711	14218
900.83	14134
900.95	14263
901.069	14275
901.189	14149
901.308	13970
901.427	13887
901.546	13928
901.665	13951
901.784	13940
901.904	13826
902.023	13670
902.141	13495
902.26	13430
902.379	13578
902.498	13426
902.617	13396
902.735	13506
902.854	13403
902.973	13403
903.091	13206
903.21	13175
903.328	13175
903.446	13061
903.565	13042
903.683	13015
903.801	12958
903.919	13004
904.038	12962
904.156	12821
904.274	12901
904.392	12810
904.51	12852
904.627	12764
904.745	12825
904.863	12958
904.981	12684
905.098	12521
905.216	12407
905.334	12574
905.451	12502
905.569	12551
905.686	12528
905.803	12452
905.921	12346
906.038	12502
906.155	12365
906.272	12247
906.389	12175
906.506	12053
906.623	12125
906.74	12148
906.857	11988
906.974	12057
907.091	12178
907.208	12350
907.324	12102
907.441	12057
907.557	11908
907.674	11882
907.79	11809
907.907	11843
908.023	11851
908.139	11851
908.256	11855
908.372	11775
908.488	11684
908.604	11627
908.72	11581
908.836	11577
908.952	11558
909.068	11668
909.184	11748
909.3	11577
909.415	11653
909.531	11646
909.647	11414
909.762	11414
909.878	11360
909.993	11429
910.108	11395
910.224	11383
910.339	11395
910.454	11353
910.57	11250
910.685	11201
910.8	11474
910.915	11406
911.03	11159
911.145	11128
911.259	11128
911.374	11143
911.489	11045
911.604	11003
911.718	10908
911.833	10965
911.947	10793
912.062	10649
912.176	10774
912.291	10866
912.405	10927
912.519	10987
912.633	11029
912.748	10915
912.862	10915
912.976	10691
913.09	10588
913.204	10698
913.318	10797
913.431	10831
913.545	10843
913.659	10934
913.772	10782
913.886	10618
914	10516
914.113	10752
914.226	10771
914.34	10702
914.453	10550
914.566	10725
914.68	10630
914.793	10596
914.906	10382
915.019	10382
915.132	10310
915.245	10337
915.358	10367
915.47	10481
915.583	10424
915.696	10447
915.809	10474
915.921	10538
916.034	10352
916.146	10303
916.259	10295
916.371	10398
916.483	10303
916.595	10246
916.708	10329
916.82	10276
916.932	10268
917.044	10287
917.156	10325
917.268	10227
917.38	10162
917.491	10124
917.603	10295
917.715	10356
917.826	10421
917.938	10204
918.049	10158
918.161	10173
918.272	10329
918.384	10314
918.495	10215
918.606	10067
918.717	10006
918.828	10082
918.939	10131
919.05	9979
919.161	10071
919.272	9842
919.383	9956
919.494	10150
919.604	10314
919.715	10158
919.826	10006
919.936	10067
920.047	10169
920.157	10173
920.267	10291
920.378	10173
920.488	10154
920.598	10272
920.708	10451
920.818	10284
920.928	10322
921.038	10462
921.148	10413
921.258	10120
921.368	10090
921.477	10036
921.587	9953
921.697	9884
921.806	10036
921.916	9899
922.025	9656
922.134	9713
922.244	9694
922.353	9743
922.462	9603
922.571	9545
922.68	9393
922.789	9329
922.898	9389
923.007	9313
923.116	9405
923.224	9378
923.333	9359
923.442	9268
923.55	9230
923.659	9287
923.767	9386
923.876	9214
923.984	9348
924.092	9154
924.201	9253
924.309	9211
924.417	9214
924.525	9104
924.633	9226
924.741	10158
924.849	9032
924.956	9226
925.064	9028
925.172	8914
925.279	8994
925.387	9028
925.494	9028
925.602	9188
925.709	9081
925.816	8937
925.924	8975
926.031	9093
926.138	9055
926.245	9097
926.352	8941
926.459	9112
926.566	9169
926.673	8967
926.779	8902
926.886	8910
926.993	8743
927.099	8785
927.206	8644
927.312	8716
927.419	8788
927.525	8750
927.631	8781
927.737	8727
927.843	8651
927.95	8564
928.056	8625
928.162	8648
928.267	8731
928.373	9241
928.479	8766
928.585	8530
928.69	8648
928.796	8613
928.901	8568
929.007	8412
929.112	8621
929.218	8530
929.323	8503
929.428	8427
929.533	8552
929.638	8438
929.743	8423
929.848	8564
929.953	8385
930.058	8385
930.163	8172
930.267	8259
930.372	8377
930.477	8248
930.581	8507
930.685	8343
930.79	8191
930.894	8195
930.998	8119
931.103	8286
931.207	7982
931.311	7936
931.415	7776
931.519	7715
931.623	7655
