Data from test_V78500241_1836.txt Node
Date: Fri Mar 25 14:46:29 CST 2022
User: usil
Spectrometer: V785-0024
Trigger mode: 0
Integration Time (sec): 4.000000E-1
Scans to average: 1
Nonlinearity correction enabled: false
Boxcar width: 0
Storing dark spectrum: false
XAxis mode: Wavelengths
Number of Pixels in Spectrum: 1024
>>>>>Begin Spectral Data<<<<<
801.071	22223
801.214	21945
801.356	21797
801.499	21739
801.641	21454
801.783	21542
801.926	21477
802.068	21500
802.211	21435
802.353	21363
802.496	21055
802.638	21043
802.78	20956
802.923	20918
803.065	20929
803.208	20804
803.35	20918
803.492	20941
803.635	21009
803.777	20758
803.919	20872
804.061	21138
804.204	20948
804.346	20815
804.488	20674
804.63	20834
804.773	20697
804.915	20674
805.057	20868
805.199	20636
805.341	20883
805.483	20895
805.626	20925
805.768	20792
805.91	20720
806.052	20861
806.194	20594
806.336	20853
806.478	20830
806.62	20636
806.762	20899
806.904	20918
807.046	21317
807.188	21127
807.33	21131
807.472	21036
807.614	21039
807.756	21024
807.898	20986
808.04	20819
808.182	20804
808.324	20861
808.465	20876
808.607	21070
808.749	21161
808.891	21348
809.033	21351
809.174	21272
809.316	21100
809.458	21127
809.6	21096
809.741	21154
809.883	21146
810.025	21313
810.166	21382
810.308	21310
810.45	21256
810.591	21226
810.733	21039
810.875	20838
811.016	20918
811.158	20731
811.299	21028
811.441	21036
811.582	20944
811.724	20868
811.865	20906
812.007	20914
812.148	20891
812.29	20975
812.431	21005
812.573	21260
812.714	21408
812.855	21454
812.997	21485
813.138	21660
813.279	21405
813.421	21473
813.562	21420
813.703	21165
813.845	21028
813.986	20834
814.127	20788
814.268	20465
814.41	20480
814.551	20503
814.692	20492
814.833	20480
814.974	20457
815.115	20469
815.256	20362
815.397	20412
815.539	20480
815.68	20275
815.821	20271
815.962	20267
816.103	20195
816.244	20008
816.385	19936
816.526	19833
816.666	19715
816.807	19647
816.948	19719
817.089	19750
817.23	19632
817.371	19552
817.512	19590
817.653	19567
817.793	19559
817.934	19575
818.075	19597
818.216	19571
818.356	19491
818.497	19445
818.638	19255
818.778	19263
818.919	19266
819.06	19434
819.2	19411
819.341	19354
819.481	19430
819.622	19586
819.762	19769
819.903	19761
820.043	19704
820.184	19521
820.324	19628
820.465	19616
820.605	19609
820.746	19567
820.886	19453
821.026	19548
821.167	19582
821.307	19521
821.447	19552
821.588	19457
821.728	19270
821.868	19156
822.008	19221
822.149	18989
822.289	18878
822.429	18658
822.569	18688
822.709	18810
822.849	18429
822.99	18475
823.13	18388
823.27	18456
823.41	18422
823.55	18319
823.69	18285
823.83	18304
823.97	18235
824.11	18083
824.25	17954
824.389	18053
824.529	18049
824.669	18117
824.809	18152
824.949	18125
825.089	18068
825.228	18049
825.368	17889
825.508	17961
825.648	17863
825.787	17942
825.927	17908
826.067	17847
826.206	17767
826.346	17885
826.485	17821
826.625	17802
826.765	17988
826.904	17893
827.044	17703
827.183	17581
827.323	17444
827.462	17611
827.601	17562
827.741	17532
827.88	17630
828.02	17379
828.159	17444
828.298	17649
828.437	17703
828.577	17512
828.716	17672
828.855	17535
828.994	17261
829.134	17326
829.273	17337
829.412	17349
829.551	17269
829.69	17334
829.829	17364
829.968	17440
830.107	17223
830.246	17330
830.385	17296
830.524	17132
830.663	17170
830.802	16968
830.941	16965
831.08	16889
831.219	17041
831.357	16987
831.496	17113
831.635	16900
831.774	16923
831.913	16759
832.051	16847
832.19	16668
832.329	16774
832.467	16664
832.606	16611
832.744	16634
832.883	16618
833.022	16683
833.16	16672
833.299	16793
833.437	16615
833.576	16679
833.714	16698
833.852	16771
833.991	16721
834.129	16748
834.267	16736
834.406	16740
834.544	16702
834.682	16675
834.821	16748
834.959	16828
835.097	16672
835.235	16858
835.373	16767
835.511	16748
835.65	16569
835.788	16542
835.926	16440
836.064	16447
836.202	16436
836.34	16592
836.478	16687
836.615	16683
836.753	16622
836.891	16706
837.029	16687
837.167	16664
837.305	16580
837.443	16527
837.58	16470
837.718	16504
837.856	16481
837.993	16424
838.131	16531
838.269	16398
838.406	16356
838.544	16375
838.681	16166
838.819	16078
838.956	15960
839.094	16055
839.231	15998
839.369	16211
839.506	16413
839.643	16276
839.781	15987
839.918	15918
840.055	15968
840.193	16040
840.33	16002
840.467	15930
840.604	16082
840.742	16215
840.879	15934
841.016	15915
841.153	16032
841.29	16017
841.427	15991
841.564	16017
841.701	16017
841.838	15918
841.975	15994
842.112	15850
842.249	15873
842.385	15778
842.522	16017
842.659	15797
842.796	15835
842.933	15819
843.069	15755
843.206	15850
843.343	15869
843.479	15827
843.616	15911
843.752	15580
843.889	15667
844.025	15656
844.162	15599
844.298	15667
844.435	15690
844.571	15492
844.708	15534
844.844	15717
844.98	15838
845.117	15709
845.253	15606
845.389	15477
845.525	15469
845.661	15496
845.798	15405
845.934	15439
846.07	15355
846.206	15351
846.342	15545
846.478	15450
846.614	15135
846.75	15077
846.886	15184
847.022	15226
847.158	15097
847.294	15157
847.429	15157
847.565	15135
847.701	15389
847.837	14971
847.972	14842
848.108	14948
848.244	14982
848.379	14746
848.515	14788
848.65	14762
848.786	14880
848.921	14762
849.057	14765
849.192	14762
849.328	14891
849.463	14686
849.598	14743
849.734	14731
849.869	14667
850.004	14530
850.14	14594
850.275	14545
850.41	14545
850.545	14488
850.68	14503
850.815	14522
850.95	14526
851.085	14648
851.22	14465
851.355	14503
851.49	14499
851.625	14446
851.76	14533
851.895	14423
852.03	14442
852.165	14476
852.299	14492
852.434	14549
852.569	14450
852.703	14583
852.838	14579
852.973	14583
853.107	14731
853.242	14404
853.376	14492
853.511	14278
853.645	14347
853.78	14514
853.914	14381
854.048	14339
854.183	14393
854.317	14339
854.451	14552
854.585	14442
854.72	14336
854.854	14374
854.988	14221
855.122	14366
855.256	14244
855.39	14400
855.524	14465
855.658	14526
855.792	14408
855.926	14434
856.06	14415
856.194	14476
856.327	14381
856.461	14355
856.595	14282
856.729	14298
856.862	14438
856.996	14431
857.13	14568
857.263	14495
857.397	14484
857.53	14317
857.664	14454
857.797	14412
857.931	14465
858.064	14396
858.197	14579
858.331	14457
858.464	14377
858.597	14248
858.731	14438
858.864	14286
858.997	14351
859.13	14370
859.263	14419
859.396	14393
859.529	14278
859.662	14355
859.795	14355
859.928	14404
860.061	14632
860.194	14575
860.327	14450
860.46	14313
860.592	14488
860.725	14446
860.858	14518
860.99	14457
861.123	14305
861.256	14385
861.388	14336
861.521	15074
861.653	14286
861.786	14180
861.918	14320
862.05	14317
862.183	14294
862.315	14351
862.447	14503
862.58	14320
862.712	14123
862.844	14039
862.976	14202
863.108	14172
863.24	14552
863.372	13963
863.504	14138
863.636	14164
863.768	14229
863.9	14168
864.032	14103
864.164	14138
864.296	14221
864.428	14377
864.559	14271
864.691	14339
864.823	14206
864.954	14240
865.086	14138
865.217	14081
865.349	14092
865.48	14145
865.612	14145
865.743	14225
865.875	14183
866.006	14123
866.137	14157
866.269	14142
866.4	14084
866.531	14206
866.662	14065
866.793	14187
866.924	14115
867.055	14123
867.186	14046
867.317	14069
867.448	14100
867.579	14130
867.71	14035
867.841	14050
867.972	14142
868.103	14123
868.233	14103
868.364	14202
868.495	14286
868.625	14358
868.756	14469
868.886	14278
869.017	14328
869.147	14465
869.278	14518
869.408	14358
869.539	14396
869.669	14537
869.799	14427
869.929	14549
870.06	14492
870.19	14758
870.32	14674
870.45	14724
870.58	14849
870.71	14921
870.84	14952
870.97	14781
871.1	14754
871.23	14952
871.36	14979
871.489	14811
871.619	14956
871.749	15055
871.879	14956
872.008	15058
872.138	14975
872.267	15013
872.397	14868
872.526	14853
872.656	14823
872.785	14811
872.915	15036
873.044	15108
873.173	15043
873.303	15043
873.432	14982
873.561	15066
873.69	15142
873.819	15097
873.948	15108
874.077	15116
874.206	14975
874.335	15104
874.464	15173
874.593	15351
874.722	15260
874.851	15443
874.979	15306
875.108	15348
875.237	15264
875.365	15321
875.494	15401
875.623	15420
875.751	15294
875.88	15340
876.008	15576
876.136	15656
876.265	15759
876.393	15850
876.521	15899
876.65	15869
876.778	15778
876.906	15797
877.034	15663
877.162	15766
877.29	15637
877.418	15861
877.546	15675
877.674	15812
877.802	15770
877.93	15720
878.058	15686
878.185	15622
878.313	15850
878.441	15823
878.568	15720
878.696	15629
878.824	15789
878.951	15804
879.079	15759
879.206	16051
879.333	15926
879.461	15823
879.588	15895
879.715	15987
879.842	16101
879.97	15800
880.097	15637
880.224	15652
880.351	15667
880.478	15652
880.605	15580
880.732	15519
880.859	15960
880.986	15656
881.112	15663
881.239	15416
881.366	15420
881.493	15313
881.619	15340
881.746	15245
881.872	15344
881.999	15135
882.125	15222
882.252	15207
882.378	15249
882.505	15405
882.631	15150
882.757	15154
882.883	15207
883.01	15077
883.136	15036
883.262	15047
883.388	14807
883.514	15249
883.64	15142
883.766	14994
883.892	14883
884.018	15017
884.143	15055
884.269	15230
884.395	14788
884.52	14697
884.646	14883
884.772	14811
884.897	14735
885.023	14880
885.148	14849
885.274	14857
885.399	14967
885.524	14864
885.65	14781
885.775	14845
885.9	14735
886.025	14849
886.15	14910
886.275	14712
886.4	14648
886.525	14743
886.65	14739
886.775	14743
886.9	14876
887.025	15085
887.149	14769
887.274	14613
887.399	14560
887.523	14708
887.648	14571
887.773	14518
887.897	14678
888.021	14708
888.146	14598
888.27	14762
888.395	14765
888.519	14697
888.643	14655
888.767	14602
888.891	14587
889.015	14530
889.139	14522
889.263	14499
889.387	14533
889.511	14610
889.635	14667
889.759	14495
889.883	14518
890.006	14533
890.13	14735
890.254	14465
890.377	14415
890.501	14229
890.624	14248
890.748	14362
890.871	14218
890.995	14134
891.118	14035
891.241	14248
891.364	14149
891.488	14351
891.611	14210
891.734	14145
891.857	14275
891.98	14199
892.103	14271
892.226	14263
892.349	14172
892.471	14111
892.594	14180
892.717	14225
892.839	14153
892.962	14142
893.085	14191
893.207	14214
893.33	14069
893.452	14084
893.575	14183
893.697	14195
893.819	14381
893.941	14370
894.064	14336
894.186	14126
894.308	14180
894.43	14275
894.552	14419
894.674	14328
894.796	14176
894.918	14256
895.04	14172
895.161	14358
895.283	14389
895.405	14161
895.526	14324
895.648	14275
895.769	14286
895.891	14298
896.012	14374
896.134	14374
896.255	14309
896.376	14374
896.498	14324
896.619	14423
896.74	14298
896.861	14454
896.982	14693
897.103	14804
897.224	14701
897.345	14629
897.466	14507
897.587	14583
897.708	14648
897.828	14632
897.949	14564
898.07	14465
898.19	14644
898.311	14720
898.431	14590
898.552	14724
898.672	14758
898.792	14746
898.913	14735
899.033	14590
899.153	14492
899.273	14492
899.393	14533
899.513	14530
899.633	14560
899.753	14587
899.873	14450
899.993	14549
900.113	14461
900.232	14689
900.352	14549
900.472	14400
900.591	14423
900.711	14454
900.83	14374
900.95	14484
901.069	14530
901.189	14301
901.308	14065
901.427	14073
901.546	14103
901.665	14107
901.784	14111
901.904	14001
902.023	13932
902.141	13567
902.26	13693
902.379	13753
902.498	13616
902.617	13556
902.735	13639
902.854	13727
902.973	13605
903.091	13426
903.21	13430
903.328	13388
903.446	13263
903.565	13217
903.683	13164
903.801	13217
903.919	13236
904.038	13206
904.156	13061
904.274	13175
904.392	13057
904.51	13027
904.627	12981
904.745	13141
904.863	13069
904.981	12932
905.098	12715
905.216	12734
905.334	12798
905.451	12715
905.569	12753
905.686	12840
905.803	12741
905.921	12650
906.038	12673
906.155	12608
906.272	12528
906.389	12467
906.506	12342
906.623	12410
906.74	12380
906.857	12216
906.974	12300
907.091	12471
907.208	12513
907.324	12304
907.441	12224
907.557	12133
907.674	12076
907.79	12038
907.907	12019
908.023	12148
908.139	12068
908.256	12076
908.372	12053
908.488	11999
908.604	11828
908.72	11798
908.836	11813
908.952	11790
909.068	11904
909.184	11969
909.3	11840
909.415	11851
909.531	11904
909.647	11665
909.762	11661
909.878	11600
909.993	11604
910.108	11551
910.224	11592
910.339	11638
910.454	11581
910.57	11520
910.685	11341
910.8	11649
910.915	11642
911.03	11478
911.145	11322
911.259	11280
911.374	11318
911.489	11246
911.604	11147
911.718	11094
911.833	11178
911.947	10957
912.062	10987
912.176	11086
912.291	11189
912.405	10987
912.519	11212
912.633	11261
912.748	11204
912.862	11033
912.976	10965
913.09	10797
913.204	10919
913.318	10957
913.431	11098
913.545	11079
913.659	11022
913.772	10957
913.886	10858
914	10824
914.113	10892
914.226	10873
914.34	10896
914.453	10748
914.566	10904
914.68	10812
914.793	10774
914.906	10577
915.019	10497
915.132	10459
915.245	10596
915.358	10618
915.47	10542
915.583	10607
915.696	10630
915.809	10710
915.921	10755
916.034	10584
916.146	10447
916.259	10500
916.371	10607
916.483	10588
916.595	10398
916.708	10451
916.82	10538
916.932	10508
917.044	10409
917.156	10436
917.268	10341
917.38	10409
917.491	10360
917.603	10382
917.715	10523
917.826	10493
917.938	10375
918.049	10360
918.161	10356
918.272	10588
918.384	10489
918.495	10428
918.606	10367
918.717	10192
918.828	10386
918.939	10253
919.05	10230
919.161	10280
919.272	10169
919.383	10147
919.494	10371
919.604	10523
919.715	10310
919.826	10234
919.936	10192
920.047	10333
920.157	10299
920.267	10402
920.378	10409
920.488	10276
920.598	10516
920.708	10615
920.818	10569
920.928	10402
921.038	10618
921.148	10637
921.258	10386
921.368	10238
921.477	10223
921.587	10116
921.697	10036
921.806	10158
921.916	10013
922.025	9915
922.134	9831
922.244	9793
922.353	9884
922.462	9781
922.571	9614
922.68	9519
922.789	9496
922.898	9557
923.007	9515
923.116	9557
923.224	9523
923.333	9500
923.442	9416
923.55	9389
923.659	9485
923.767	9488
923.876	9367
923.984	9466
924.092	9401
924.201	9378
924.309	9412
924.417	9367
924.525	9298
924.633	9389
924.741	10272
924.849	9207
924.956	9302
925.064	9233
925.172	9047
925.279	9173
925.387	9195
925.494	9275
925.602	9310
925.709	9279
925.816	9169
925.924	9253
926.031	9218
926.138	9226
926.245	9188
926.352	9123
926.459	9260
926.566	9329
926.673	9127
926.779	9062
926.886	9081
926.993	8971
927.099	8891
927.206	8864
927.312	8796
927.419	8941
927.525	8876
927.631	8941
927.737	8845
927.843	8842
927.95	8693
928.056	8750
928.162	8792
928.267	8842
928.373	9351
928.479	8918
928.585	8670
928.69	8788
928.796	8842
928.901	8686
929.007	8587
929.112	8716
929.218	8655
929.323	8579
929.428	8617
929.533	8785
929.638	8610
929.743	8621
929.848	8648
929.953	8670
930.058	8473
930.163	8374
930.267	8408
930.372	8514
930.477	8396
930.581	8598
930.685	8503
930.79	8244
930.894	8290
930.998	8362
931.103	8499
931.207	8123
931.311	8084
931.415	8008
931.519	7868
931.623	7841
