Data from test_V78500241_1772.txt Node
Date: Fri Mar 25 14:46:03 CST 2022
User: usil
Spectrometer: V785-0024
Trigger mode: 0
Integration Time (sec): 4.000000E-1
Scans to average: 1
Nonlinearity correction enabled: false
Boxcar width: 0
Storing dark spectrum: false
XAxis mode: Wavelengths
Number of Pixels in Spectrum: 1024
>>>>>Begin Spectral Data<<<<<
801.071	22284
801.214	22013
801.356	21838
801.499	21705
801.641	21439
801.783	21511
801.926	21523
802.068	21401
802.211	21450
802.353	21306
802.496	21138
802.638	20994
802.78	21077
802.923	20979
803.065	20880
803.208	20830
803.35	20891
803.492	20982
803.635	20979
803.777	20796
803.919	20956
804.061	21184
804.204	20918
804.346	20777
804.488	20777
804.63	20883
804.773	20800
804.915	20746
805.057	20944
805.199	20697
805.341	20861
805.483	20937
805.626	20921
805.768	20735
805.91	20963
806.052	20731
806.194	20655
806.336	21039
806.478	20781
806.62	20792
806.762	20769
806.904	21032
807.046	21241
807.188	21093
807.33	21096
807.472	21093
807.614	21081
807.756	20986
807.898	20986
808.04	20746
808.182	20811
808.324	20918
808.465	20842
808.607	21070
808.749	21218
808.891	21157
809.033	21393
809.174	21233
809.316	21089
809.458	21230
809.6	21112
809.741	21184
809.883	21165
810.025	21245
810.166	21374
810.308	21317
810.45	21230
810.591	21203
810.733	20956
810.875	21039
811.016	20804
811.158	20883
811.299	21081
811.441	21089
811.582	21085
811.724	20895
811.865	20861
812.007	20975
812.148	20925
812.29	21036
812.431	21043
812.573	21332
812.714	21412
812.855	21428
812.997	21557
813.138	21660
813.279	21515
813.421	21382
813.562	21431
813.703	21192
813.845	21081
813.986	20819
814.127	20663
814.268	20564
814.41	20670
814.551	20457
814.692	20564
814.833	20454
814.974	20450
815.115	20545
815.256	20199
815.397	20317
815.539	20393
815.68	20229
815.821	20157
815.962	20290
816.103	20237
816.244	20081
816.385	19951
816.526	19944
816.666	19868
816.807	19643
816.948	19731
817.089	19776
817.23	19757
817.371	19468
817.512	19639
817.653	19674
817.793	19491
817.934	19525
818.075	19689
818.216	19609
818.356	19742
818.497	19407
818.638	19285
818.778	19472
818.919	19362
819.06	19308
819.2	19476
819.341	19499
819.481	19472
819.622	19655
819.762	19818
819.903	19795
820.043	19643
820.184	19597
820.324	19613
820.465	19799
820.605	19655
820.746	19609
820.886	19426
821.026	19525
821.167	19563
821.307	19582
821.447	19571
821.588	19430
821.728	19407
821.868	19129
822.008	19038
822.149	19141
822.289	19004
822.429	18787
822.569	18760
822.709	18760
822.849	18513
822.99	18403
823.13	18555
823.27	18456
823.41	18414
823.55	18292
823.69	18247
823.83	18251
823.97	18330
824.11	18095
824.25	18049
824.389	18011
824.529	18167
824.669	18129
824.809	18315
824.949	18129
825.089	18197
825.228	18068
825.368	17939
825.508	17908
825.648	17920
825.787	17855
825.927	17931
826.067	17817
826.206	17855
826.346	17912
826.485	17977
826.625	17897
826.765	17920
826.904	17882
827.044	17627
827.183	17695
827.323	17577
827.462	17695
827.601	17642
827.741	17684
827.88	17611
828.02	17471
828.159	17585
828.298	17672
828.437	17649
828.577	17668
828.716	17843
828.855	17592
828.994	17376
829.134	17353
829.273	17452
829.412	17284
829.551	17170
829.69	17395
829.829	17417
829.968	17471
830.107	17261
830.246	17334
830.385	17296
830.524	17318
830.663	17143
830.802	17006
830.941	16968
831.08	16946
831.219	17105
831.357	17105
831.496	17200
831.635	16953
831.774	16824
831.913	16774
832.051	16710
832.19	16733
832.329	16839
832.467	16656
832.606	16626
832.744	16634
832.883	16634
833.022	16603
833.16	16672
833.299	16717
833.437	16668
833.576	16694
833.714	16706
833.852	16759
833.991	16733
834.129	16763
834.267	16843
834.406	16679
834.544	16713
834.682	16759
834.821	16725
834.959	16930
835.097	16577
835.235	16828
835.373	16729
835.511	16782
835.65	16630
835.788	16618
835.926	16424
836.064	16417
836.202	16466
836.34	16725
836.478	16725
836.615	16672
836.753	16656
836.891	16656
837.029	16611
837.167	16603
837.305	16523
837.443	16413
837.58	16519
837.718	16626
837.856	16603
837.993	16417
838.131	16489
838.269	16344
838.406	16303
838.544	16390
838.681	16215
838.819	16166
838.956	16029
839.094	16017
839.231	15991
839.369	16246
839.506	16478
839.643	16284
839.781	15994
839.918	15994
840.055	16082
840.193	16093
840.33	16071
840.467	16002
840.604	15998
840.742	16215
840.879	15941
841.016	15873
841.153	15945
841.29	16223
841.427	16086
841.564	16074
841.701	16090
841.838	16029
841.975	15968
842.112	16029
842.249	15823
842.385	15724
842.522	16112
842.659	15823
842.796	15743
842.933	15869
843.069	15800
843.206	15789
843.343	15835
843.479	15823
843.616	15945
843.752	15648
843.889	15466
844.025	15724
844.162	15648
844.298	15720
844.435	15637
844.571	15481
844.708	15694
844.844	15705
844.98	15842
845.117	15709
845.253	15462
845.389	15458
845.525	15572
845.661	15466
845.798	15466
845.934	15431
846.07	15374
846.206	15382
846.342	15450
846.478	15351
846.614	15184
846.75	15157
846.886	15207
847.022	15355
847.158	15062
847.294	15142
847.429	15260
847.565	15123
847.701	15370
847.837	14857
847.972	14899
848.108	15013
848.244	15009
848.379	14697
848.515	14724
848.65	14743
848.786	14758
848.921	14731
849.057	14887
849.192	14910
849.328	14796
849.463	14773
849.598	14716
849.734	14617
849.869	14655
850.004	14575
850.14	14511
850.275	14625
850.41	14434
850.545	14514
850.68	14488
850.815	14488
850.95	14667
851.085	14640
851.22	14602
851.355	14549
851.49	14518
851.625	14465
851.76	14564
851.895	14518
852.03	14434
852.165	14518
852.299	14530
852.434	14625
852.569	14579
852.703	14640
852.838	14708
852.973	14678
853.107	14655
853.242	14587
853.376	14465
853.511	14324
853.645	14336
853.78	14454
853.914	14434
854.048	14336
854.183	14404
854.317	14415
854.451	14613
854.585	14389
854.72	14446
854.854	14465
854.988	14336
855.122	14336
855.256	14385
855.39	14351
855.524	14484
855.658	14427
855.792	14442
855.926	14408
856.06	14434
856.194	14499
856.327	14492
856.461	14301
856.595	14343
856.729	14427
856.862	14495
856.996	14434
857.13	14476
857.263	14598
857.397	14522
857.53	14503
857.664	14431
857.797	14541
857.931	14537
858.064	14503
858.197	14389
858.331	14537
858.464	14351
858.597	14328
858.731	14328
858.864	14427
858.997	14301
859.13	14434
859.263	14480
859.396	14499
859.529	14309
859.662	14309
859.795	14301
859.928	14412
860.061	14507
860.194	14667
860.327	14366
860.46	14362
860.592	14522
860.725	14495
860.858	14564
860.99	14389
861.123	14317
861.256	14332
861.388	14480
861.521	15058
861.653	14301
861.786	14317
861.918	14320
862.05	14324
862.183	14324
862.315	14431
862.447	14404
862.58	14332
862.712	14157
862.844	14046
862.976	14259
863.108	14252
863.24	14518
863.372	14103
863.504	14210
863.636	14214
863.768	14282
863.9	14244
864.032	14084
864.164	14157
864.296	14187
864.428	14267
864.559	14278
864.691	14305
864.823	14324
864.954	14191
865.086	14206
865.217	14282
865.349	14088
865.48	14206
865.612	14248
865.743	14275
865.875	14202
866.006	14183
866.137	14195
866.269	14119
866.4	14103
866.531	14164
866.662	14123
866.793	14062
866.924	14096
867.055	14240
867.186	14214
867.317	14126
867.448	14012
867.579	14088
867.71	14046
867.841	14084
867.972	14164
868.103	14221
868.233	14191
868.364	14134
868.495	14115
868.625	14412
868.756	14499
868.886	14294
869.017	14457
869.147	14518
869.278	14556
869.408	14404
869.539	14408
869.669	14473
869.799	14423
869.929	14473
870.06	14476
870.19	14720
870.32	14727
870.45	14743
870.58	14769
870.71	14960
870.84	14876
870.97	14826
871.1	14914
871.23	14899
871.36	15001
871.489	14918
871.619	14921
871.749	14956
871.879	15081
872.008	15142
872.138	15058
872.267	15047
872.397	14891
872.526	14826
872.656	14792
872.785	14823
872.915	14975
873.044	15100
873.173	15066
873.303	15093
873.432	15077
873.561	15157
873.69	15024
873.819	15081
873.948	15116
874.077	15081
874.206	15085
874.335	15192
874.464	15192
874.593	15420
874.722	15416
874.851	15367
874.979	15370
875.108	15397
875.237	15348
875.365	15230
875.494	15306
875.623	15420
875.751	15378
875.88	15329
876.008	15496
876.136	15633
876.265	15774
876.393	15937
876.521	15789
876.65	15934
876.778	15804
876.906	15728
877.034	15701
877.162	15781
877.29	15641
877.418	15774
877.546	15633
877.674	15778
877.802	15819
877.93	15713
878.058	15770
878.185	15701
878.313	15701
878.441	15713
878.568	15580
878.696	15766
878.824	15797
878.951	15850
879.079	15960
879.206	16055
879.333	15998
879.461	15739
879.588	15956
879.715	15987
879.842	16169
879.97	15899
880.097	15724
880.224	15652
880.351	15747
880.478	15686
880.605	15530
880.732	15675
880.859	15876
880.986	15660
881.112	15553
881.239	15595
881.366	15435
881.493	15317
881.619	15302
881.746	15348
881.872	15302
881.999	15287
882.125	15188
882.252	15306
882.378	15302
882.505	15435
882.631	15275
882.757	15112
882.883	15135
883.01	15142
883.136	15097
883.262	14975
883.388	14891
883.514	15142
883.64	15176
883.766	14979
883.892	14963
884.018	15017
884.143	15077
884.269	15127
884.395	14910
884.52	14773
884.646	14788
884.772	14724
884.897	14716
885.023	14849
885.148	14948
885.274	14956
885.399	14956
885.524	14815
885.65	14864
885.775	14807
885.9	14826
886.025	14868
886.15	14811
886.275	14750
886.4	14746
886.525	14739
886.65	14758
886.775	14731
886.9	14944
887.025	15013
887.149	14731
887.274	14644
887.399	14518
887.523	14617
887.648	14480
887.773	14583
887.897	14773
888.021	14746
888.146	14587
888.27	14720
888.395	14716
888.519	14678
888.643	14640
888.767	14712
888.891	14533
889.015	14568
889.139	14511
889.263	14446
889.387	14590
889.511	14823
889.635	14632
889.759	14442
889.883	14484
890.006	14457
890.13	14602
890.254	14374
890.377	14511
890.501	14214
890.624	14267
890.748	14434
890.871	14164
890.995	14115
891.118	14161
891.241	14149
891.364	14187
891.488	14313
891.611	14119
891.734	14248
891.857	14271
891.98	14183
892.103	14248
892.226	14195
892.349	14100
892.471	14058
892.594	14191
892.717	14263
892.839	14199
892.962	14275
893.085	14267
893.207	14214
893.33	14081
893.452	14126
893.575	14218
893.697	14237
893.819	14309
893.941	14461
894.064	14366
894.186	14126
894.308	14145
894.43	14347
894.552	14343
894.674	14355
894.796	14088
894.918	14157
895.04	14221
895.161	14408
895.283	14252
895.405	14309
895.526	14301
895.648	14317
895.769	14271
895.891	14351
896.012	14415
896.134	14393
896.255	14362
896.376	14267
896.498	14324
896.619	14434
896.74	14377
896.861	14400
896.982	14705
897.103	14857
897.224	14667
897.345	14678
897.466	14450
897.587	14568
897.708	14720
897.828	14621
897.949	14606
898.07	14564
898.19	14602
898.311	14857
898.431	14549
898.552	14651
898.672	14796
898.792	14819
898.913	14651
899.033	14708
899.153	14545
899.273	14427
899.393	14499
899.513	14571
899.633	14571
899.753	14602
899.873	14564
899.993	14655
900.113	14568
900.232	14583
900.352	14526
900.472	14419
900.591	14320
900.711	14446
900.83	14362
900.95	14545
901.069	14446
901.189	14355
901.308	14119
901.427	14092
901.546	14043
901.665	14180
901.784	14111
901.904	13955
902.023	13913
902.141	13750
902.26	13658
902.379	13753
902.498	13658
902.617	13636
902.735	13734
902.854	13616
902.973	13594
903.091	13369
903.21	13365
903.328	13377
903.446	13346
903.565	13228
903.683	13225
903.801	13099
903.919	13232
904.038	13190
904.156	13034
904.274	13137
904.392	13012
904.51	13038
904.627	13042
904.745	13076
904.863	12977
904.981	12833
905.098	12837
905.216	12764
905.334	12776
905.451	12764
905.569	12639
905.686	12703
905.803	12730
905.921	12597
906.038	12525
906.155	12563
906.272	12502
906.389	12467
906.506	12319
906.623	12247
906.74	12372
906.857	12247
906.974	12190
907.091	12479
907.208	12475
907.324	12365
907.441	12304
907.557	12098
907.674	12087
907.79	12003
907.907	11977
908.023	12110
908.139	12095
908.256	12053
908.372	11980
908.488	11988
908.604	11908
908.72	11851
908.836	11809
908.952	11817
909.068	11904
909.184	11984
909.3	11889
909.415	11866
909.531	11908
909.647	11589
909.762	11668
909.878	11627
909.993	11634
910.108	11592
910.224	11467
910.339	11608
910.454	11528
910.57	11391
910.685	11414
910.8	11646
910.915	11592
911.03	11471
911.145	11318
911.259	11212
911.374	11280
911.489	11174
911.604	11181
911.718	11048
911.833	11079
911.947	11045
912.062	10889
912.176	10953
912.291	11067
912.405	11029
912.519	11261
912.633	11299
912.748	11109
912.862	11041
912.976	10984
913.09	10809
913.204	10987
913.318	10923
913.431	10984
913.545	11048
913.659	11109
913.772	10961
913.886	10850
914	10759
914.113	10968
914.226	10919
914.34	10835
914.453	10755
914.566	10869
914.68	10721
914.793	10706
914.906	10668
915.019	10584
915.132	10508
915.245	10573
915.358	10615
915.47	10645
915.583	10550
915.696	10630
915.809	10672
915.921	10683
916.034	10470
916.146	10436
916.259	10470
916.371	10512
916.483	10615
916.595	10459
916.708	10481
916.82	10481
916.932	10493
917.044	10459
917.156	10432
917.268	10337
917.38	10363
917.491	10394
917.603	10379
917.715	10497
917.826	10535
917.938	10367
918.049	10246
918.161	10455
918.272	10565
918.384	10565
918.495	10405
918.606	10242
918.717	10272
918.828	10276
918.939	10333
919.05	10227
919.161	10185
919.272	10101
919.383	10078
919.494	10284
919.604	10413
919.715	10280
919.826	10109
919.936	10253
920.047	10329
920.157	10261
920.267	10447
920.378	10310
920.488	10314
920.598	10485
920.708	10596
920.818	10512
920.928	10485
921.038	10675
921.148	10596
921.258	10337
921.368	10188
921.477	10196
921.587	10074
921.697	9873
921.806	10188
921.916	10063
922.025	9846
922.134	9751
922.244	9774
922.353	9846
922.462	9724
922.571	9603
922.68	9587
922.789	9500
922.898	9606
923.007	9408
923.116	9523
923.224	9511
923.333	9545
923.442	9344
923.55	9435
923.659	9447
923.767	9538
923.876	9397
923.984	9469
924.092	9355
924.201	9408
924.309	9447
924.417	9378
924.525	9386
924.633	9325
924.741	10306
924.849	9176
924.956	9378
925.064	9142
925.172	9100
925.279	9123
925.387	9192
925.494	9207
925.602	9355
925.709	9245
925.816	9077
925.924	9161
926.031	9294
926.138	9173
926.245	9192
926.352	9009
926.459	9188
926.566	9268
926.673	9161
926.779	9058
926.886	8998
926.993	8883
927.099	8887
927.206	8815
927.312	8838
927.419	8902
927.525	8899
927.631	8880
927.737	8842
927.843	8815
927.95	8659
928.056	8731
928.162	8845
928.267	8880
928.373	9389
928.479	8853
928.585	8678
928.69	8815
928.796	8834
928.901	8708
929.007	8568
929.112	8731
929.218	8686
929.323	8594
929.428	8587
929.533	8800
929.638	8549
929.743	8583
929.848	8640
929.953	8625
930.058	8552
930.163	8332
930.267	8385
930.372	8484
930.477	8343
930.581	8602
930.685	8450
930.79	8298
930.894	8305
930.998	8305
931.103	8461
931.207	8123
931.311	8092
931.415	8012
931.519	7849
931.623	7792
