Data from test_V78500241_78.txt Node
Date: Fri Mar 25 14:34:16 CST 2022
User: usil
Spectrometer: V785-0024
Trigger mode: 0
Integration Time (sec): 4.000000E-1
Scans to average: 1
Nonlinearity correction enabled: false
Boxcar width: 0
Storing dark spectrum: false
XAxis mode: Wavelengths
Number of Pixels in Spectrum: 1024
>>>>>Begin Spectral Data<<<<<
801.071	28797
801.214	28873
801.356	28615
801.499	28401
801.641	28542
801.783	28417
801.926	28303
802.068	28371
802.211	28287
802.353	28200
802.496	28029
802.638	28128
802.78	27960
802.923	27789
803.065	27816
803.208	27892
803.35	27911
803.492	28166
803.635	28112
803.777	27994
803.919	28070
804.061	28322
804.204	27926
804.346	27972
804.488	27975
804.63	27960
804.773	27819
804.915	27941
805.057	27998
805.199	27922
805.341	28040
805.483	28112
805.626	28013
805.768	27819
805.91	27994
806.052	28204
806.194	27983
806.336	28333
806.478	28051
806.62	28074
806.762	28265
806.904	28363
807.046	28554
807.188	28478
807.33	28455
807.472	28409
807.614	28344
807.756	28306
807.898	28276
808.04	28204
808.182	28257
808.324	28272
808.465	28219
808.607	28485
808.749	28516
808.891	28660
809.033	28637
809.174	28645
809.316	28797
809.458	28664
809.6	28622
809.741	28611
809.883	28740
810.025	28733
810.166	28812
810.308	28778
810.45	28721
810.591	28740
810.733	28577
810.875	28504
811.016	28333
811.158	28363
811.299	28542
811.441	28626
811.582	28611
811.724	28344
811.865	28519
812.007	28538
812.148	28443
812.29	28584
812.431	28710
812.573	28744
812.714	28729
812.855	28896
812.997	29109
813.138	29288
813.279	29098
813.421	28987
813.562	28987
813.703	28831
813.845	28653
813.986	28401
814.127	28181
814.268	28207
814.41	28078
814.551	28147
814.692	28101
814.833	27994
814.974	27991
815.115	27972
815.256	27983
815.397	27960
815.539	27960
815.68	27724
815.821	27717
815.962	27812
816.103	27926
816.244	27568
816.385	27504
816.526	27580
816.666	27374
816.807	27135
816.948	27199
817.089	27329
817.23	27359
817.371	27214
817.512	27306
817.653	27199
817.793	27203
817.934	27169
818.075	27249
818.216	27135
818.356	27032
818.497	26990
818.638	26906
818.778	26804
818.919	26929
819.06	26925
819.2	26979
819.341	27058
819.481	27119
819.622	27184
819.762	27473
819.903	27283
820.043	27336
820.184	27245
820.324	27131
820.465	27180
820.605	27226
820.746	27058
820.886	27074
821.026	27230
821.167	27093
821.307	27226
821.447	27081
821.588	27074
821.728	26834
821.868	26602
822.008	26480
822.149	26446
822.289	26434
822.429	26195
822.569	25978
822.709	26092
822.849	25951
822.99	25868
823.13	25860
823.27	25845
823.41	25624
823.55	25662
823.69	25723
823.83	25791
823.97	25628
824.11	25449
824.25	25563
824.389	25441
824.529	25548
824.669	25487
824.809	25647
824.949	25479
825.089	25677
825.228	25575
825.368	25259
825.508	25289
825.648	25335
825.787	25171
825.927	25331
826.067	25236
826.206	25316
826.346	25289
826.485	25274
826.625	25179
826.765	25373
826.904	25354
827.044	24970
827.183	25027
827.323	24924
827.462	25019
827.601	24954
827.741	24935
827.88	25019
828.02	24821
828.159	24913
828.298	24894
828.437	25080
828.577	24852
828.716	24970
828.855	24920
828.994	24623
829.134	24692
829.273	24570
829.412	24582
829.551	24528
829.69	24547
829.829	24665
829.968	24768
830.107	24544
830.246	24597
830.385	24551
830.524	24464
830.663	24429
830.802	24338
830.941	24174
831.08	24216
831.219	24308
831.357	24224
831.496	24441
831.635	24228
831.774	24133
831.913	24030
832.051	24015
832.19	24038
832.329	23866
832.467	23764
832.606	23828
832.744	23802
832.883	23748
833.022	23733
833.16	23676
833.299	23824
833.437	23874
833.576	23798
833.714	23931
833.852	23874
833.991	23889
834.129	23832
834.267	23874
834.406	23779
834.544	23882
834.682	23783
834.821	23794
834.959	24034
835.097	23802
835.235	23745
835.373	23783
835.511	23699
835.65	23623
835.788	23668
835.926	23512
836.064	23356
836.202	23501
836.34	23474
836.478	23630
836.615	23646
836.753	23558
836.891	23634
837.029	23547
837.167	23482
837.305	23558
837.443	23516
837.58	23448
837.718	23573
837.856	23387
837.993	23383
838.131	23455
838.269	23341
838.406	23277
838.544	23155
838.681	23094
838.819	23064
838.956	22812
839.094	22755
839.231	22900
839.369	22976
839.506	23250
839.643	23022
839.781	22831
839.918	22752
840.055	22752
840.193	22710
840.33	22771
840.467	22656
840.604	22752
840.742	23140
840.879	22561
841.016	22672
841.153	22664
841.29	22858
841.427	22748
841.564	22824
841.701	22565
841.838	22626
841.975	22588
842.112	22546
842.249	22481
842.385	22421
842.522	22592
842.659	22474
842.796	22443
842.933	22421
843.069	22409
843.206	22322
843.343	22531
843.479	22459
843.616	22428
843.752	22150
843.889	22230
844.025	22306
844.162	22090
844.298	22265
844.435	22154
844.571	22135
844.708	22196
844.844	22226
844.98	22291
845.117	22078
845.253	22101
845.389	21994
845.525	21949
845.661	21983
845.798	21892
845.934	21964
846.07	21819
846.206	21857
846.342	22017
846.478	21827
846.614	21713
846.75	21519
846.886	21625
847.022	21667
847.158	21633
847.294	21637
847.429	21625
847.565	21557
847.701	21808
847.837	21344
847.972	21370
848.108	21344
848.244	21382
848.379	21218
848.515	21184
848.65	21043
848.786	21131
848.921	21188
849.057	21157
849.192	21237
849.328	21150
849.463	21173
849.598	21043
849.734	20982
849.869	21146
850.004	20765
850.14	20952
850.275	20944
850.41	20754
850.545	20796
850.68	20861
850.815	20750
850.95	20849
851.085	20899
851.22	20948
851.355	20750
851.49	20754
851.625	20853
851.76	20830
851.895	20674
852.03	20750
852.165	20864
852.299	20876
852.434	20960
852.569	20762
852.703	20796
852.838	20921
852.973	20933
853.107	20883
853.242	20792
853.376	20609
853.511	20560
853.645	20678
853.78	20659
853.914	20735
854.048	20613
854.183	20609
854.317	20659
854.451	20891
854.585	20686
854.72	20518
854.854	20727
854.988	20495
855.122	20629
855.256	20412
855.39	20590
855.524	20648
855.658	20674
855.792	20663
855.926	20583
856.06	20708
856.194	20693
856.327	20629
856.461	20530
856.595	20587
856.729	20674
856.862	20731
856.996	20651
857.13	20716
857.263	20708
857.397	20667
857.53	20564
857.664	20617
857.797	20651
857.931	20640
858.064	20537
858.197	20621
858.331	20609
858.464	20495
858.597	20533
858.731	20537
858.864	20530
858.997	20465
859.13	20556
859.263	20511
859.396	20571
859.529	20473
859.662	20484
859.795	20396
859.928	20480
860.061	20667
860.194	20663
860.327	20617
860.46	20575
860.592	20583
860.725	20636
860.858	20678
860.99	20556
861.123	20423
861.256	20457
861.388	20598
861.521	21070
861.653	20343
861.786	20473
861.918	20454
862.05	20526
862.183	20663
862.315	20617
862.447	20617
862.58	20613
862.712	20317
862.844	20206
862.976	20400
863.108	20377
863.24	20648
863.372	20157
863.504	20176
863.636	20275
863.768	20229
863.9	20206
864.032	20100
864.164	20058
864.296	20275
864.428	20355
864.559	20278
864.691	20233
864.823	20122
864.954	20130
865.086	20191
865.217	20271
865.349	20012
865.48	20126
865.612	20031
865.743	20286
865.875	20183
866.006	20096
866.137	20221
866.269	20191
866.4	20024
866.531	20107
866.662	20039
866.793	20058
866.924	19982
867.055	20035
867.186	20107
867.317	19936
867.448	19898
867.579	19970
867.71	19849
867.841	20050
867.972	20027
868.103	20043
868.233	20062
868.364	20039
868.495	20027
868.625	20199
868.756	20332
868.886	20237
869.017	20202
869.147	20271
869.278	20415
869.408	20389
869.539	20225
869.669	20347
869.799	20202
869.929	20309
870.06	20358
870.19	20564
870.32	20632
870.45	20648
870.58	20708
870.71	20800
870.84	20743
870.97	20590
871.1	20678
871.23	20746
871.36	20941
871.489	20754
871.619	20830
871.749	20800
871.879	20788
872.008	20960
872.138	20830
872.267	20910
872.397	20712
872.526	20777
872.656	20712
872.785	20560
872.915	20815
873.044	20868
873.173	20899
873.303	20861
873.432	20910
873.561	20887
873.69	20918
873.819	20845
873.948	20952
874.077	20815
874.206	20838
874.335	20899
874.464	21089
874.593	21017
874.722	21024
874.851	21123
874.979	21081
875.108	21176
875.237	21001
875.365	20979
875.494	21241
875.623	21135
875.751	21142
875.88	21226
876.008	21359
876.136	21378
876.265	21454
876.393	21648
876.521	21481
876.65	21682
876.778	21542
876.906	21492
877.034	21458
877.162	21564
877.29	21507
877.418	21564
877.546	21701
877.674	21549
877.802	21477
877.93	21519
878.058	21420
878.185	21420
878.313	21405
878.441	21523
878.568	21363
878.696	21469
878.824	21526
878.951	21606
879.079	21675
879.206	21766
879.333	21618
879.461	21603
879.588	21553
879.715	21698
879.842	21778
879.97	21614
880.097	21245
880.224	21245
880.351	21515
880.478	21302
880.605	21256
880.732	21310
880.859	21557
880.986	21306
881.112	21321
881.239	21184
881.366	21047
881.493	20914
881.619	20994
881.746	20944
881.872	20963
881.999	20826
882.125	20834
882.252	21051
882.378	20967
882.505	21036
882.631	20720
882.757	20678
882.883	20750
883.01	20678
883.136	20648
883.262	20511
883.388	20579
883.514	20644
883.64	20602
883.766	20492
883.892	20526
884.018	20518
884.143	20587
884.269	20682
884.395	20446
884.52	20301
884.646	20164
884.772	20305
884.897	20145
885.023	20317
885.148	20423
885.274	20461
885.399	20282
885.524	20263
885.65	20229
885.775	20339
885.9	20248
886.025	20423
886.15	20317
886.275	20237
886.4	20142
886.525	20313
886.65	20267
886.775	20233
886.9	20332
887.025	20526
887.149	20221
887.274	20092
887.399	20024
887.523	20062
887.648	20073
887.773	19894
887.897	20126
888.021	20126
888.146	20115
888.27	20100
888.395	20103
888.519	20039
888.643	20122
888.767	20134
888.891	19928
889.015	19871
889.139	19928
889.263	19772
889.387	19906
889.511	20012
889.635	19849
889.759	19837
889.883	19780
890.006	19818
890.13	19936
890.254	19597
890.377	19833
890.501	19658
890.624	19635
890.748	19620
890.871	19582
890.995	19472
891.118	19301
891.241	19320
891.364	19403
891.488	19468
891.611	19343
891.734	19460
891.857	19575
891.98	19430
892.103	19453
892.226	19537
892.349	19247
892.471	19187
892.594	19183
892.717	19339
892.839	19354
892.962	19464
893.085	19369
893.207	19381
893.33	19312
893.452	19403
893.575	19339
893.697	19339
893.819	19540
893.941	19639
894.064	19518
894.186	19240
894.308	19289
894.43	19460
894.552	19582
894.674	19388
894.796	19118
894.918	19251
895.04	19335
895.161	19415
895.283	19320
895.405	19209
895.526	19316
895.648	19316
895.769	19388
895.891	19377
896.012	19411
896.134	19354
896.255	19255
896.376	19308
896.498	19441
896.619	19480
896.74	19411
896.861	19548
896.982	19734
897.103	19860
897.224	19632
897.345	19578
897.466	19521
897.587	19639
897.708	19780
897.828	19693
897.949	19502
898.07	19483
898.19	19510
898.311	19655
898.431	19510
898.552	19586
898.672	19693
898.792	19533
898.913	19693
899.033	19510
899.153	19388
899.273	19289
899.393	19396
899.513	19244
899.633	19331
899.753	19350
899.873	19308
899.993	19415
900.113	19369
900.232	19263
900.352	19335
900.472	19251
900.591	19194
900.711	19263
900.83	19152
900.95	19270
901.069	19187
901.189	18913
901.308	18901
901.427	18753
901.546	18738
901.665	18719
901.784	18669
901.904	18635
902.023	18517
902.141	18308
902.26	18228
902.379	18403
902.498	18258
902.617	18289
902.735	18216
902.854	18087
902.973	18201
903.091	17908
903.21	17931
903.328	17843
903.446	17832
903.565	17707
903.683	17653
903.801	17627
903.919	17630
904.038	17653
904.156	17585
904.274	17573
904.392	17471
904.51	17395
904.627	17493
904.745	17436
904.863	17547
904.981	17231
905.098	17075
905.216	17200
905.334	17246
905.451	17105
905.569	17098
905.686	17136
905.803	17098
905.921	16923
906.038	17022
906.155	16984
906.272	16862
906.389	16866
906.506	16698
906.623	16675
906.74	16611
906.857	16466
906.974	16577
907.091	16672
907.208	16717
907.324	16649
907.441	16459
907.557	16409
907.674	16325
907.79	16257
907.907	16367
908.023	16405
908.139	16265
908.256	16223
908.372	16173
908.488	16253
908.604	16032
908.72	16078
908.836	15941
908.952	15937
909.068	16017
909.184	16029
909.3	16013
909.415	16051
909.531	15991
909.647	15720
909.762	15660
909.878	15698
909.993	15751
910.108	15633
910.224	15648
910.339	15694
910.454	15538
910.57	15454
910.685	15481
910.8	15766
910.915	15625
911.03	15469
911.145	15367
911.259	15233
911.374	15313
911.489	15252
911.604	15176
911.718	15085
911.833	15104
911.947	14971
912.062	14880
912.176	15028
912.291	14937
912.405	15024
912.519	15138
912.633	15233
912.748	15058
912.862	14918
912.976	14876
913.09	14800
913.204	14845
913.318	14811
913.431	15009
913.545	14941
913.659	14967
913.772	14792
913.886	14796
914	14568
914.113	14731
914.226	14762
914.34	14705
914.453	14590
914.566	14682
914.68	14526
914.793	14492
914.906	14381
915.019	14267
915.132	14115
915.245	14317
915.358	14355
915.47	14336
915.583	14339
915.696	14396
915.809	14495
915.921	14408
916.034	14244
916.146	14229
916.259	14138
916.371	14210
916.483	14240
916.595	14039
916.708	14202
916.82	14115
916.932	14103
917.044	14039
917.156	14027
917.268	13997
917.38	13970
917.491	13982
917.603	14054
917.715	13974
917.826	14008
917.938	13921
918.049	13791
918.161	13909
918.272	14024
918.384	13993
918.495	13917
918.606	13814
918.717	13738
918.828	13757
918.939	13822
919.05	13609
919.161	13761
919.272	13567
919.383	13586
919.494	13757
919.604	13814
919.715	13655
919.826	13616
919.936	13658
920.047	13704
920.157	13616
920.267	13822
920.378	13651
920.488	13655
920.598	13830
920.708	13986
920.818	13871
920.928	13795
921.038	13947
921.148	13868
921.258	13544
921.368	13506
921.477	13426
921.587	13339
921.697	13304
921.806	13438
921.916	13320
922.025	13179
922.134	13129
922.244	13053
922.353	13095
922.462	12894
922.571	12848
922.68	12802
922.789	12696
922.898	12795
923.007	12616
923.116	12711
923.224	12738
923.333	12620
923.442	12555
923.55	12532
923.659	12544
923.767	12623
923.876	12486
923.984	12559
924.092	12490
924.201	12475
924.309	12437
924.417	12445
924.525	12429
924.633	12353
924.741	13160
924.849	12197
924.956	12342
925.064	12258
925.172	12079
925.279	12163
925.387	12182
925.494	12270
925.602	12292
925.709	12220
925.816	12133
925.924	12136
926.031	12285
926.138	12072
926.245	12251
926.352	12026
926.459	12178
926.566	12232
926.673	12064
926.779	11950
926.886	11954
926.993	11748
927.099	11714
927.206	11707
927.312	11733
927.419	11828
927.525	11718
927.631	11813
927.737	11726
927.843	11543
927.95	11520
928.056	11646
928.162	11596
928.267	11619
928.373	12095
928.479	11680
928.585	11516
928.69	11482
928.796	11474
928.901	11398
929.007	11356
929.112	11512
929.218	11455
929.323	11334
929.428	11368
929.533	11471
929.638	11273
929.743	11296
929.848	11296
929.953	11250
930.058	11178
930.163	11041
930.267	10915
930.372	11258
930.477	11094
930.581	11189
930.685	11121
930.79	10942
930.894	10911
930.998	10866
931.103	11018
931.207	10645
931.311	10546
931.415	10489
931.519	10310
931.623	10291
