Data from test_V78500241_962.txt Node
Date: Fri Mar 25 14:40:25 CST 2022
User: usil
Spectrometer: V785-0024
Trigger mode: 0
Integration Time (sec): 4.000000E-1
Scans to average: 1
Nonlinearity correction enabled: false
Boxcar width: 0
Storing dark spectrum: false
XAxis mode: Wavelengths
Number of Pixels in Spectrum: 1024
>>>>>Begin Spectral Data<<<<<
801.071	23467
801.214	23322
801.356	23227
801.499	23071
801.641	22828
801.783	22942
801.926	22877
802.068	22752
802.211	22691
802.353	22504
802.496	22394
802.638	22272
802.78	22238
802.923	22226
803.065	22139
803.208	22116
803.35	22162
803.492	22253
803.635	22379
803.777	22147
803.919	22306
804.061	22584
804.204	22162
804.346	22238
804.488	21987
804.63	22166
804.773	22112
804.915	22051
805.057	22299
805.199	22166
805.341	22207
805.483	22268
805.626	22124
805.768	22124
805.91	22150
806.052	22181
806.194	22249
806.336	22371
806.478	22375
806.62	22242
806.762	22402
806.904	22573
807.046	22824
807.188	22755
807.33	22729
807.472	22812
807.614	22835
807.756	22949
807.898	22968
808.04	22953
808.182	23140
808.324	23410
808.465	23680
808.607	24106
808.749	24391
808.891	24661
809.033	24681
809.174	24334
809.316	24133
809.458	23859
809.6	23474
809.741	23452
809.883	23326
810.025	23216
810.166	23121
810.308	23117
810.45	22980
810.591	22911
810.733	22668
810.875	22653
811.016	22554
811.158	22512
811.299	22561
811.441	22588
811.582	22557
811.724	22337
811.865	22379
812.007	22421
812.148	22341
812.29	22386
812.431	22478
812.573	22603
812.714	22767
812.855	22843
812.997	22995
813.138	22999
813.279	22953
813.421	22911
813.562	22786
813.703	22694
813.845	22519
813.986	22344
814.127	22090
814.268	21998
814.41	21915
814.551	21949
814.692	22006
814.833	21797
814.974	21819
815.115	21827
815.256	21720
815.397	21717
815.539	21766
815.68	21576
815.821	21663
815.962	21614
816.103	21576
816.244	21496
816.385	21340
816.526	21310
816.666	21077
816.807	21032
816.948	21100
817.089	21211
817.23	21112
817.371	21150
817.512	21024
817.653	21028
817.793	21028
817.934	20990
818.075	20948
818.216	21093
818.356	21039
818.497	20815
818.638	20655
818.778	20819
818.919	20796
819.06	20689
819.2	20880
819.341	20895
819.481	20781
819.622	21036
819.762	21119
819.903	21100
820.043	21051
820.184	20971
820.324	20918
820.465	20975
820.605	20933
820.746	20925
820.886	20823
821.026	20960
821.167	21013
821.307	20906
821.447	20895
821.588	20716
821.728	20602
821.868	20492
822.008	20415
822.149	20393
822.289	20370
822.429	20191
822.569	20024
822.709	20062
822.849	19795
822.99	19814
823.13	19780
823.27	19925
823.41	19761
823.55	19635
823.69	19738
823.83	19708
823.97	19556
824.11	19441
824.25	19441
824.389	19514
824.529	19506
824.669	19324
824.809	19578
824.949	19518
825.089	19487
825.228	19430
825.368	19118
825.508	19240
825.648	19289
825.787	19297
825.927	19331
826.067	19206
826.206	19145
826.346	19232
826.485	19194
826.625	19152
826.765	19339
826.904	19244
827.044	18970
827.183	18913
827.323	18890
827.462	18947
827.601	18867
827.741	18878
827.88	18878
828.02	18620
828.159	18795
828.298	18806
828.437	18909
828.577	18806
828.716	19000
828.855	18871
828.994	18658
829.134	18642
829.273	18749
829.412	18585
829.551	18559
829.69	18547
829.829	18688
829.968	18631
830.107	18658
830.246	18620
830.385	18547
830.524	18521
830.663	18433
830.802	18372
830.941	18296
831.08	18095
831.219	18273
831.357	18239
831.496	18407
831.635	18194
831.774	18216
831.913	18182
832.051	17984
832.19	18015
832.329	18178
832.467	17904
832.606	17904
832.744	17916
832.883	17946
833.022	17904
833.16	17980
833.299	18011
833.437	17817
833.576	18079
833.714	18026
833.852	18057
833.991	18152
834.129	18235
834.267	18178
834.406	18117
834.544	18186
834.682	17908
834.821	18053
834.959	18186
835.097	17923
835.235	18076
835.373	18060
835.511	17988
835.65	17901
835.788	17756
835.926	17722
836.064	17547
836.202	17661
836.34	17824
836.478	17863
836.615	17726
836.753	17878
836.891	18007
837.029	17920
837.167	17817
837.305	17737
837.443	17634
837.58	17657
837.718	17748
837.856	17627
837.993	17634
838.131	17581
838.269	17623
838.406	17570
838.544	17551
838.681	17326
838.819	17391
838.956	17212
839.094	17147
839.231	17159
839.369	17296
839.506	17653
839.643	17368
839.781	17250
839.918	17071
840.055	17174
840.193	17258
840.33	17185
840.467	17220
840.604	17246
840.742	17425
840.879	17083
841.016	17121
841.153	17071
841.29	17204
841.427	17147
841.564	17174
841.701	17246
841.838	17045
841.975	17067
842.112	17136
842.249	17041
842.385	17010
842.522	17166
842.659	16965
842.796	16843
842.933	16923
843.069	16847
843.206	16862
843.343	17010
843.479	16919
843.616	17018
843.752	16561
843.889	16698
844.025	16873
844.162	16713
844.298	16847
844.435	16759
844.571	16744
844.708	16980
844.844	17022
844.98	17098
845.117	16968
845.253	16889
845.389	17014
845.525	17376
845.661	17729
845.798	18209
845.934	18700
846.07	18951
846.206	18989
846.342	18627
846.478	17980
846.614	17204
846.75	16869
846.886	16622
847.022	16519
847.158	16497
847.294	16379
847.429	16394
847.565	16379
847.701	16497
847.837	15972
847.972	16021
848.108	16101
848.244	16093
848.379	15903
848.515	15797
848.65	15880
848.786	15819
848.921	15827
849.057	15926
849.192	16051
849.328	15907
849.463	15857
849.598	15918
849.734	15816
849.869	15663
850.004	15713
850.14	15618
850.275	15568
850.41	15587
850.545	15610
850.68	15595
850.815	15591
850.95	15667
851.085	15701
851.22	15732
851.355	15587
851.49	15603
851.625	15580
851.76	15656
851.895	15519
852.03	15515
852.165	15606
852.299	15713
852.434	15667
852.569	15580
852.703	15663
852.838	15701
852.973	15797
853.107	15751
853.242	15549
853.376	15485
853.511	15416
853.645	15492
853.78	15633
853.914	15519
854.048	15435
854.183	15450
854.317	15477
854.451	15633
854.585	15435
854.72	15511
854.854	15561
854.988	15374
855.122	15481
855.256	15233
855.39	15405
855.524	15553
855.658	15587
855.792	15564
855.926	15500
856.06	15576
856.194	15553
856.327	15393
856.461	15420
856.595	15477
856.729	15511
856.862	15530
856.996	15492
857.13	15519
857.263	15538
857.397	15526
857.53	15389
857.664	15538
857.797	15572
857.931	15515
858.064	15428
858.197	15458
858.331	15386
858.464	15469
858.597	15321
858.731	15485
858.864	15534
858.997	15313
859.13	15443
859.263	15530
859.396	15553
859.529	15431
859.662	15405
859.795	15408
859.928	15439
860.061	15656
860.194	15580
860.327	15496
860.46	15367
860.592	15553
860.725	15701
860.858	15587
860.99	15557
861.123	15393
861.256	15389
861.388	15492
861.521	16112
861.653	15393
861.786	15321
861.918	15310
862.05	15306
862.183	15405
862.315	15389
862.447	15435
862.58	15412
862.712	15161
862.844	15066
862.976	15310
863.108	15207
863.24	15641
863.372	15249
863.504	15287
863.636	15188
863.768	15291
863.9	15146
864.032	15192
864.164	15077
864.296	15214
864.428	15348
864.559	15260
864.691	15302
864.823	15348
864.954	15256
865.086	15306
865.217	15176
865.349	15173
865.48	15218
865.612	15218
865.743	15294
865.875	15211
866.006	15135
866.137	15241
866.269	15123
866.4	15169
866.531	15165
866.662	15150
866.793	15199
866.924	15032
867.055	15192
867.186	15157
867.317	15085
867.448	15036
867.579	15093
867.71	15112
867.841	14952
867.972	15180
868.103	15184
868.233	15104
868.364	15207
868.495	15169
868.625	15458
868.756	15488
868.886	15405
869.017	15367
869.147	15488
869.278	15538
869.408	15420
869.539	15435
869.669	15507
869.799	15401
869.929	15492
870.06	15545
870.19	15789
870.32	15751
870.45	15732
870.58	15831
870.71	15895
870.84	15873
870.97	15762
871.1	15728
871.23	15945
871.36	16040
871.489	15907
871.619	15991
871.749	16013
871.879	15991
872.008	16093
872.138	16010
872.267	15949
872.397	15831
872.526	15842
872.656	15918
872.785	15865
872.915	16036
873.044	16139
873.173	16006
873.303	16112
873.432	16048
873.561	16154
873.69	16090
873.819	16040
873.948	16093
874.077	16150
874.206	16074
874.335	16124
874.464	16226
874.593	16390
874.722	16371
874.851	16447
874.979	16478
875.108	16512
875.237	16367
875.365	16322
875.494	16341
875.623	16535
875.751	16299
875.88	16462
876.008	16470
876.136	16645
876.265	16904
876.393	16908
876.521	16987
876.65	17006
876.778	16843
876.906	16748
877.034	16862
877.162	16869
877.29	16820
877.418	16873
877.546	16793
877.674	16869
877.802	16892
877.93	16759
878.058	16911
878.185	16801
878.313	16953
878.441	16957
878.568	16896
878.696	16984
878.824	17128
878.951	17250
879.079	17539
879.206	17824
879.333	17889
879.461	17885
879.588	17961
879.715	18201
879.842	18095
879.97	17779
880.097	17425
880.224	17200
880.351	17220
880.478	17067
880.605	16999
880.732	16904
880.859	17136
880.986	16987
881.112	16987
881.239	16816
881.366	16691
881.493	16592
881.619	16649
881.746	16611
881.872	16656
881.999	16687
882.125	16607
882.252	16649
882.378	16622
882.505	16729
882.631	16523
882.757	16417
882.883	16447
883.01	16459
883.136	16375
883.262	16291
883.388	16299
883.514	16432
883.64	16478
883.766	16375
883.892	16261
884.018	16162
884.143	16360
884.269	16443
884.395	16257
884.52	16082
884.646	16116
884.772	16067
884.897	16036
885.023	16109
885.148	16261
885.274	16215
885.399	16181
885.524	16032
885.65	16109
885.775	16097
885.9	16090
886.025	16158
886.15	16097
886.275	15983
886.4	15895
886.525	15994
886.65	15934
886.775	15876
886.9	16185
887.025	16242
887.149	15960
887.274	15766
887.399	15812
887.523	15663
887.648	15713
887.773	15584
887.897	15926
888.021	15751
888.146	15759
888.27	15865
888.395	15827
888.519	15842
888.643	15720
888.767	15873
888.891	15648
889.015	15568
889.139	15599
889.263	15545
889.387	15682
889.511	15770
889.635	15789
889.759	15504
889.883	15477
890.006	15564
890.13	15644
890.254	15488
890.377	15534
890.501	15306
890.624	15363
890.748	15348
890.871	15233
890.995	15260
891.118	15028
891.241	15268
891.364	15176
891.488	15302
891.611	15176
891.734	15260
891.857	15226
891.98	15256
892.103	15241
892.226	15245
892.349	15112
892.471	15085
892.594	15173
892.717	15116
892.839	15097
892.962	15154
893.085	15256
893.207	15123
893.33	15066
893.452	15127
893.575	15089
893.697	15123
893.819	15252
893.941	15245
894.064	15332
894.186	15089
894.308	15017
894.43	15264
894.552	15363
894.674	15325
894.796	15001
894.918	15199
895.04	15165
895.161	15260
895.283	15184
895.405	15093
895.526	15157
895.648	15192
895.769	15146
895.891	15245
896.012	15389
896.134	15287
896.255	15203
896.376	15279
896.498	15294
896.619	15374
896.74	15211
896.861	15173
896.982	15595
897.103	15751
897.224	15610
897.345	15485
897.466	15355
897.587	15511
897.708	15698
897.828	15591
897.949	15477
898.07	15462
898.19	15428
898.311	15675
898.431	15591
898.552	15591
898.672	15542
898.792	15717
898.913	15591
899.033	15553
899.153	15515
899.273	15298
899.393	15424
899.513	15481
899.633	15405
899.753	15511
899.873	15405
899.993	15557
900.113	15378
900.232	15488
900.352	15450
900.472	15351
900.591	15302
900.711	15348
900.83	15226
900.95	15408
901.069	15485
901.189	15180
901.308	15070
901.427	14975
901.546	14979
901.665	15013
901.784	15100
901.904	14834
902.023	14762
902.141	14590
902.26	14568
902.379	14552
902.498	14514
902.617	14556
902.735	14575
902.854	14454
902.973	14488
903.091	14263
903.21	14206
903.328	14206
903.446	14073
903.565	14024
903.683	14062
903.801	13970
903.919	14031
904.038	14024
904.156	13944
904.274	13845
904.392	13890
904.51	13788
904.627	13830
904.745	13875
904.863	13894
904.981	13624
905.098	13590
905.216	13529
905.334	13616
905.451	13556
905.569	13518
905.686	13590
905.803	13628
905.921	13297
906.038	13510
906.155	13285
906.272	13278
906.389	13247
906.506	13076
906.623	13107
906.74	13031
906.857	12886
906.974	12970
907.091	13137
907.208	13202
907.324	13061
907.441	13004
907.557	12894
907.674	12840
907.79	12772
907.907	12814
908.023	12894
908.139	12726
908.256	12722
908.372	12696
908.488	12673
908.604	12642
908.72	12532
908.836	12547
908.952	12536
909.068	12566
909.184	12604
909.3	12620
909.415	12540
909.531	12563
909.647	12296
909.762	12319
909.878	12239
909.993	12365
910.108	12281
910.224	12315
910.339	12365
910.454	12182
910.57	12209
910.685	12133
910.8	12414
910.915	12285
911.03	12136
911.145	12011
911.259	12045
911.374	12038
911.489	11950
911.604	11912
911.718	11672
911.833	11805
911.947	11676
912.062	11573
912.176	11707
912.291	11653
912.405	11805
912.519	11920
912.633	11977
912.748	11882
912.862	11790
912.976	11676
913.09	11532
913.204	11608
913.318	11642
913.431	11718
913.545	11710
913.659	11733
913.772	11684
913.886	11535
914	11467
914.113	11634
914.226	11611
914.34	11570
914.453	11421
914.566	11558
914.68	11433
914.793	11440
914.906	11181
915.019	11212
915.132	11178
915.245	11288
915.358	11174
915.47	11265
915.583	11250
915.696	11239
915.809	11471
915.921	11330
916.034	11204
916.146	11143
916.259	11147
916.371	11246
916.483	11216
916.595	11079
916.708	11193
916.82	11181
916.932	11067
917.044	11098
917.156	11090
917.268	11025
917.38	10995
917.491	11018
917.603	11018
917.715	11041
917.826	11151
917.938	10984
918.049	10919
918.161	11060
918.272	11109
918.384	11159
918.495	11045
918.606	10999
918.717	10744
918.828	10892
918.939	10889
919.05	10763
919.161	10877
919.272	10683
919.383	10660
919.494	10919
919.604	11102
919.715	10869
919.826	10854
919.936	10896
920.047	10915
920.157	10869
920.267	11041
920.378	10968
920.488	10885
920.598	11155
920.708	11155
920.818	11064
920.928	11014
921.038	11189
921.148	11147
921.258	10927
921.368	10831
921.477	10786
921.587	10698
921.697	10660
921.806	10725
921.916	10664
922.025	10478
922.134	10440
922.244	10417
922.353	10417
922.462	10230
922.571	10272
922.68	10109
922.789	10093
922.898	10093
923.007	10063
923.116	10143
923.224	10139
923.333	9998
923.442	10006
923.55	10010
923.659	10021
923.767	9987
923.876	9975
923.984	10025
924.092	9861
924.201	9991
924.309	9956
924.417	10013
924.525	9895
924.633	9960
924.741	10626
924.849	9800
924.956	9861
925.064	9675
925.172	9591
925.279	9660
925.387	9694
925.494	9652
925.602	9797
925.709	9724
925.816	9698
925.924	9717
926.031	9759
926.138	9660
926.245	9762
926.352	9610
926.459	9816
926.566	9766
926.673	9656
926.779	9511
926.886	9530
926.993	9443
927.099	9374
927.206	9332
927.312	9348
927.419	9412
927.525	9363
927.631	9435
927.737	9332
927.843	9344
927.95	9165
928.056	9283
928.162	9389
928.267	9325
928.373	9861
928.479	9382
928.585	9146
928.69	9180
928.796	9332
928.901	9142
929.007	9032
929.112	9203
929.218	9150
929.323	9116
929.428	9028
929.533	9336
929.638	8998
929.743	9028
929.848	9085
929.953	9017
930.058	9005
930.163	8826
930.267	8914
930.372	9062
930.477	8754
930.581	9093
930.685	8937
930.79	8845
930.894	8830
930.998	8773
931.103	8910
931.207	8598
931.311	8522
931.415	8480
931.519	8271
931.623	8187
