Data from test_V78500241_2533.txt Node
Date: Fri Mar 25 14:51:21 CST 2022
User: usil
Spectrometer: V785-0024
Trigger mode: 0
Integration Time (sec): 4.000000E-1
Scans to average: 1
Nonlinearity correction enabled: false
Boxcar width: 0
Storing dark spectrum: false
XAxis mode: Wavelengths
Number of Pixels in Spectrum: 1024
>>>>>Begin Spectral Data<<<<<
801.071	22013
801.214	22010
801.356	21766
801.499	21606
801.641	21488
801.783	21443
801.926	21469
802.068	21264
802.211	21321
802.353	21165
802.496	20982
802.638	20838
802.78	20990
802.923	20891
803.065	20632
803.208	20731
803.35	20788
803.492	20838
803.635	20853
803.777	20819
803.919	20883
804.061	21024
804.204	20861
804.346	20583
804.488	20632
804.63	20648
804.773	20640
804.915	20705
805.057	20910
805.199	20549
805.341	20758
805.483	20800
805.626	20705
805.768	20594
805.91	20720
806.052	20648
806.194	20617
806.336	20868
806.478	20590
806.62	20613
806.762	20746
806.904	20941
807.046	20990
807.188	20967
807.33	20937
807.472	21100
807.614	20982
807.756	20849
807.898	20705
808.04	20670
808.182	20720
808.324	20830
808.465	20625
808.607	20933
808.749	21096
808.891	21085
809.033	21222
809.174	21233
809.316	20963
809.458	20925
809.6	20883
809.741	21081
809.883	21043
810.025	21226
810.166	21199
810.308	21169
810.45	21028
810.591	21081
810.733	20899
810.875	20845
811.016	20724
811.158	20720
811.299	20948
811.441	20864
811.582	20918
811.724	20746
811.865	20895
812.007	20731
812.148	20689
812.29	20845
812.431	20868
812.573	21108
812.714	21199
812.855	21214
812.997	21355
813.138	21587
813.279	21515
813.421	21112
813.562	21245
813.703	21032
813.845	20887
813.986	20697
814.127	20438
814.268	20385
814.41	20218
814.551	20313
814.692	20248
814.833	20240
814.974	20248
815.115	20415
815.256	20252
815.397	20199
815.539	20134
815.68	20183
815.821	19970
815.962	20008
816.103	20187
816.244	20039
816.385	19849
816.526	19734
816.666	19597
816.807	19586
816.948	19537
817.089	19639
817.23	19594
817.371	19483
817.512	19457
817.653	19499
817.793	19525
817.934	19415
818.075	19438
818.216	19502
818.356	19419
818.497	19244
818.638	19145
818.778	19141
818.919	19126
819.06	19225
819.2	19343
819.341	19381
819.481	19392
819.622	19502
819.762	19681
819.903	19556
820.043	19449
820.184	19487
820.324	19403
820.465	19586
820.605	19457
820.746	19381
820.886	19232
821.026	19495
821.167	19384
821.307	19457
821.447	19244
821.588	19209
821.728	19099
821.868	19031
822.008	18833
822.149	18810
822.289	18817
822.429	18661
822.569	18544
822.709	18456
822.849	18281
822.99	18205
823.13	18334
823.27	18308
823.41	18068
823.55	18102
823.69	18213
823.83	18125
823.97	18019
824.11	17889
824.25	17847
824.389	17866
824.529	18019
824.669	17855
824.809	18026
824.949	18038
825.089	18041
825.228	18022
825.368	17843
825.508	17737
825.648	17809
825.787	17733
825.927	17813
826.067	17661
826.206	17649
826.346	17752
826.485	17687
826.625	17646
826.765	17855
826.904	17707
827.044	17627
827.183	17353
827.323	17379
827.462	17467
827.601	17497
827.741	17379
827.88	17402
828.02	17311
828.159	17292
828.298	17406
828.437	17444
828.577	17467
828.716	17551
828.855	17315
828.994	17197
829.134	17189
829.273	17128
829.412	17159
829.551	17155
829.69	17037
829.829	17197
829.968	17322
830.107	17216
830.246	17174
830.385	17060
830.524	17014
830.663	16999
830.802	16885
830.941	16782
831.08	16733
831.219	16866
831.357	16793
831.496	16968
831.635	16812
831.774	16611
831.913	16550
832.051	16645
832.19	16577
832.329	16580
832.467	16462
832.606	16436
832.744	16470
832.883	16550
833.022	16405
833.16	16489
833.299	16523
833.437	16512
833.576	16428
833.714	16459
833.852	16531
833.991	16497
834.129	16527
834.267	16535
834.406	16561
834.544	16508
834.682	16607
834.821	16550
834.959	16748
835.097	16519
835.235	16584
835.373	16630
835.511	16462
835.65	16337
835.788	16459
835.926	16367
836.064	16207
836.202	16303
836.34	16337
836.478	16497
836.615	16405
836.753	16440
836.891	16577
837.029	16481
837.167	16382
837.305	16424
837.443	16306
837.58	16204
837.718	16386
837.856	16360
837.993	16268
838.131	16413
838.269	16139
838.406	16226
838.544	16207
838.681	16029
838.819	15968
838.956	15785
839.094	15945
839.231	15797
839.369	16059
839.506	16272
839.643	16067
839.781	15854
839.918	15911
840.055	15922
840.193	15762
840.33	15739
840.467	15800
840.604	15915
840.742	16154
840.879	15641
841.016	15812
841.153	15720
841.29	15972
841.427	15816
841.564	15831
841.701	15873
841.838	15842
841.975	15774
842.112	15804
842.249	15694
842.385	15667
842.522	15797
842.659	15701
842.796	15603
842.933	15534
843.069	15667
843.206	15675
843.343	15732
843.479	15698
843.616	15709
843.752	15374
843.889	15428
844.025	15564
844.162	15397
844.298	15462
844.435	15466
844.571	15275
844.708	15469
844.844	15523
844.98	15553
845.117	15462
845.253	15393
845.389	15374
845.525	15332
845.661	15321
845.798	15188
845.934	15272
846.07	15222
846.206	15211
846.342	15302
846.478	15249
846.614	15066
846.75	14982
846.886	14902
847.022	15089
847.158	15017
847.294	15070
847.429	15070
847.565	15097
847.701	15230
847.837	14769
847.972	14701
848.108	14807
848.244	14743
848.379	14701
848.515	14617
848.65	14575
848.786	14522
848.921	14697
849.057	14727
849.192	14731
849.328	14640
849.463	14663
849.598	14526
849.734	14423
849.869	14457
850.004	14442
850.14	14415
850.275	14408
850.41	14377
850.545	14320
850.68	14412
850.815	14355
850.95	14381
851.085	14503
851.22	14507
851.355	14313
851.49	14259
851.625	14282
851.76	14355
851.895	14263
852.03	14229
852.165	14328
852.299	14339
852.434	14374
852.569	14294
852.703	14385
852.838	14374
852.973	14446
853.107	14621
853.242	14370
853.376	14210
853.511	14126
853.645	14237
853.78	14431
853.914	14214
854.048	14206
854.183	14221
854.317	14339
854.451	14313
854.585	14237
854.72	14187
854.854	14317
854.988	14142
855.122	14206
855.256	14103
855.39	14286
855.524	14263
855.658	14244
855.792	14256
855.926	14259
856.06	14332
856.194	14393
856.327	14336
856.461	14210
856.595	14176
856.729	14240
856.862	14347
856.996	14248
857.13	14393
857.263	14301
857.397	14313
857.53	14282
857.664	14377
857.797	14332
857.931	14381
858.064	14206
858.197	14358
858.331	14221
858.464	14195
858.597	14138
858.731	14225
858.864	14225
858.997	14176
859.13	14324
859.263	14278
859.396	14358
859.529	14218
859.662	14286
859.795	14202
859.928	14256
860.061	14419
860.194	14431
860.327	14256
860.46	14240
860.592	14294
860.725	14408
860.858	14393
860.99	14195
861.123	14206
861.256	14092
861.388	14210
861.521	14842
861.653	14142
861.786	14115
861.918	14134
862.05	14054
862.183	14153
862.315	14153
862.447	14218
862.58	14214
862.712	14065
862.844	14035
862.976	14069
863.108	14111
863.24	14389
863.372	13921
863.504	14073
863.636	14043
863.768	14039
863.9	14016
864.032	13906
864.164	13993
864.296	14035
864.428	14107
864.559	14195
864.691	14195
864.823	14062
864.954	14107
865.086	14062
865.217	13982
865.349	13875
865.48	13982
865.612	14020
865.743	14202
865.875	13978
866.006	13989
866.137	13989
866.269	14031
866.4	14069
866.531	13982
866.662	13807
866.793	13982
866.924	13947
867.055	14043
867.186	13997
867.317	13963
867.448	13936
867.579	13906
867.71	13906
867.841	13932
867.972	14027
868.103	14096
868.233	14058
868.364	13963
868.495	14058
868.625	14301
868.756	14332
868.886	14183
869.017	14290
869.147	14309
869.278	14393
869.408	14313
869.539	14210
869.669	14259
869.799	14240
869.929	14446
870.06	14438
870.19	14549
870.32	14556
870.45	14587
870.58	14686
870.71	14826
870.84	14762
870.97	14640
871.1	14636
871.23	14823
871.36	14864
871.489	14705
871.619	14876
871.749	14899
871.879	14826
872.008	14998
872.138	14845
872.267	14842
872.397	14648
872.526	14610
872.656	14667
872.785	14731
872.915	14906
873.044	14941
873.173	14933
873.303	14895
873.432	14994
873.561	15017
873.69	15001
873.819	14883
873.948	14952
874.077	14891
874.206	14887
874.335	14944
874.464	15085
874.593	15169
874.722	15180
874.851	15233
874.979	15161
875.108	15074
875.237	15146
875.365	15154
875.494	15142
875.623	15298
875.751	15252
875.88	15249
876.008	15363
876.136	15424
876.265	15656
876.393	15770
876.521	15701
876.65	15724
876.778	15584
876.906	15561
877.034	15511
877.162	15618
877.29	15606
877.418	15660
877.546	15591
877.674	15633
877.802	15595
877.93	15648
878.058	15488
878.185	15450
878.313	15614
878.441	15709
878.568	15485
878.696	15450
878.824	15568
878.951	15819
879.079	15819
879.206	15922
879.333	15747
879.461	15595
879.588	15781
879.715	15770
879.842	15816
879.97	15808
880.097	15538
880.224	15443
880.351	15545
880.478	15564
880.605	15462
880.732	15523
880.859	15701
880.986	15481
881.112	15572
881.239	15355
881.366	15355
881.493	15157
881.619	15211
881.746	15154
881.872	15161
881.999	15093
882.125	15055
882.252	15294
882.378	15138
882.505	15351
882.631	15081
882.757	14956
882.883	15039
883.01	14948
883.136	14895
883.262	14845
883.388	14762
883.514	15074
883.64	14979
883.766	14956
883.892	14765
884.018	14792
884.143	15024
884.269	15146
884.395	14731
884.52	14636
884.646	14769
884.772	14514
884.897	14556
885.023	14792
885.148	14750
885.274	14750
885.399	14811
885.524	14716
885.65	14629
885.775	14720
885.9	14712
886.025	14750
886.15	14663
886.275	14568
886.4	14625
886.525	14644
886.65	14587
886.775	14610
886.9	14796
887.025	14925
887.149	14651
887.274	14495
887.399	14499
887.523	14396
887.648	14381
887.773	14332
887.897	14511
888.021	14511
888.146	14434
888.27	14583
888.395	14571
888.519	14568
888.643	14564
888.767	14488
888.891	14423
889.015	14366
889.139	14400
889.263	14286
889.387	14473
889.511	14583
889.635	14454
889.759	14366
889.883	14412
890.006	14317
890.13	14450
890.254	14362
890.377	14362
890.501	14088
890.624	14191
890.748	14237
890.871	14088
890.995	13974
891.118	13849
891.241	14069
891.364	14073
891.488	14107
891.611	14001
891.734	14081
891.857	14115
891.98	14043
892.103	14214
892.226	14043
892.349	14054
892.471	13833
892.594	14024
892.717	14149
892.839	14058
892.962	14016
893.085	14073
893.207	14035
893.33	13906
893.452	13959
893.575	14225
893.697	14123
893.819	14172
893.941	14298
894.064	14164
894.186	14005
894.308	14012
894.43	14218
894.552	14301
894.674	14130
894.796	14016
894.918	14145
895.04	14065
895.161	14275
895.283	14145
895.405	14111
895.526	14111
895.648	14206
895.769	14218
895.891	14210
896.012	14298
896.134	14195
896.255	14240
896.376	14130
896.498	14187
896.619	14313
896.74	14240
896.861	14294
896.982	14587
897.103	14686
897.224	14503
897.345	14450
897.466	14457
897.587	14465
897.708	14708
897.828	14590
897.949	14457
898.07	14408
898.19	14450
898.311	14686
898.431	14560
898.552	14564
898.672	14686
898.792	14697
898.913	14541
899.033	14385
899.153	14408
899.273	14366
899.393	14495
899.513	14347
899.633	14419
899.753	14564
899.873	14317
899.993	14488
900.113	14469
900.232	14442
900.352	14389
900.472	14362
900.591	14199
900.711	14290
900.83	14214
900.95	14530
901.069	14393
901.189	14195
901.308	14027
901.427	13940
901.546	13940
901.665	14016
901.784	13997
901.904	13849
902.023	13734
902.141	13647
902.26	13518
902.379	13624
902.498	13483
902.617	13468
902.735	13518
902.854	13571
902.973	13411
903.091	13274
903.21	13236
903.328	13270
903.446	13168
903.565	13114
903.683	13118
903.801	12973
903.919	13107
904.038	13061
904.156	12958
904.274	12939
904.392	12958
904.51	12901
904.627	12890
904.745	12973
904.863	13038
904.981	12673
905.098	12578
905.216	12662
905.334	12719
905.451	12627
905.569	12669
905.686	12662
905.803	12608
905.921	12452
906.038	12483
906.155	12513
906.272	12376
906.389	12350
906.506	12213
906.623	12163
906.74	12224
906.857	12136
906.974	12121
907.091	12277
907.208	12380
907.324	12239
907.441	12148
907.557	11965
907.674	11958
907.79	11920
907.907	11961
908.023	11973
908.139	12083
908.256	11840
908.372	11889
908.488	11859
908.604	11745
908.72	11707
908.836	11786
908.952	11710
909.068	11756
909.184	11824
909.3	11646
909.415	11729
909.531	11726
909.647	11497
909.762	11471
909.878	11436
909.993	11558
910.108	11520
910.224	11448
910.339	11471
910.454	11360
910.57	11356
910.685	11212
910.8	11520
910.915	11524
911.03	11341
911.145	11208
911.259	11235
911.374	11193
911.489	11132
911.604	11071
911.718	10968
911.833	10961
911.947	10869
912.062	10797
912.176	10809
912.291	10919
912.405	10976
912.519	11197
912.633	11174
912.748	11041
912.862	10972
912.976	10828
913.09	10706
913.204	10774
913.318	10782
913.431	10892
913.545	10911
913.659	10938
913.772	10839
913.886	10771
914	10580
914.113	10812
914.226	10915
914.34	10843
914.453	10660
914.566	10755
914.68	10729
914.793	10790
914.906	10497
915.019	10402
915.132	10322
915.245	10413
915.358	10428
915.47	10417
915.583	10538
915.696	10500
915.809	10626
915.921	10573
916.034	10428
916.146	10390
916.259	10409
916.371	10497
916.483	10478
916.595	10382
916.708	10379
916.82	10299
916.932	10421
917.044	10424
917.156	10382
917.268	10272
917.38	10310
917.491	10310
917.603	10295
917.715	10371
917.826	10394
917.938	10272
918.049	10192
918.161	10306
918.272	10455
918.384	10390
918.495	10299
918.606	10139
918.717	10112
918.828	10204
918.939	10128
919.05	10093
919.161	10139
919.272	9991
919.383	10086
919.494	10169
919.604	10348
919.715	10200
919.826	10055
919.936	10192
920.047	10280
920.157	10215
920.267	10356
920.378	10230
920.488	10109
920.598	10386
920.708	10535
920.818	10394
920.928	10417
921.038	10634
921.148	10481
921.258	10116
921.368	10196
921.477	10131
921.587	9972
921.697	9930
921.806	10017
921.916	10017
922.025	9770
922.134	9724
922.244	9728
922.353	9713
922.462	9629
922.571	9663
922.68	9462
922.789	9515
922.898	9492
923.007	9393
923.116	9450
923.224	9462
923.333	9378
923.442	9313
923.55	9272
923.659	9389
923.767	9340
923.876	9298
923.984	9412
924.092	9241
924.201	9272
924.309	9279
924.417	9291
924.525	9264
924.633	9310
924.741	10238
924.849	9036
924.956	9226
925.064	9009
925.172	9058
925.279	8982
925.387	9123
925.494	9062
925.602	9260
925.709	9176
925.816	9070
925.924	9123
926.031	9222
926.138	9039
926.245	9157
926.352	9009
926.459	9157
926.566	9222
926.673	9077
926.779	8952
926.886	9066
926.993	8834
927.099	8735
927.206	8727
927.312	8777
927.419	8868
927.525	8830
927.631	8883
927.737	8746
927.843	8678
927.95	8549
928.056	8632
928.162	8705
928.267	8830
928.373	9428
928.479	8842
928.585	8571
928.69	8655
928.796	8766
928.901	8648
929.007	8461
929.112	8655
929.218	8602
929.323	8511
929.428	8579
929.533	8686
929.638	8495
929.743	8499
929.848	8556
929.953	8518
930.058	8404
930.163	8279
930.267	8347
930.372	8450
930.477	8309
930.581	8499
930.685	8275
930.79	8202
930.894	8263
930.998	8191
931.103	8377
931.207	8062
931.311	8020
931.415	7928
931.519	7723
931.623	7712
