Data from test_V78500241_1103.txt Node
Date: Fri Mar 25 15:17:32 CST 2022
User: usil
Spectrometer: V785-0024
Trigger mode: 0
Integration Time (sec): 4.000000E-1
Scans to average: 1
Nonlinearity correction enabled: false
Boxcar width: 0
Storing dark spectrum: false
XAxis mode: Wavelengths
Number of Pixels in Spectrum: 1024
>>>>>Begin Spectral Data<<<<<
801.071	28519
801.214	28360
801.356	28105
801.499	28074
801.641	27926
801.783	27869
801.926	28044
802.068	27960
802.211	27762
802.353	27956
802.496	27690
802.638	27679
802.78	27816
802.923	27545
803.065	27431
803.208	27473
803.35	27671
803.492	27713
803.635	27960
803.777	27652
803.919	27732
804.061	28188
804.204	27774
804.346	27656
804.488	27789
804.63	27732
804.773	27808
804.915	27873
805.057	27998
805.199	27880
805.341	27899
805.483	28010
805.626	28105
805.768	27838
805.91	28097
806.052	27907
806.194	27914
806.336	28219
806.478	28139
806.62	28124
806.762	28207
806.904	28188
807.046	28436
807.188	28577
807.33	28367
807.472	28512
807.614	28348
807.756	28325
807.898	28249
808.04	28352
808.182	28261
808.324	28295
808.465	28405
808.607	28500
808.749	28660
808.891	28683
809.033	28896
809.174	28630
809.316	28519
809.458	28637
809.6	28660
809.741	28744
809.883	28748
810.025	28850
810.166	28900
810.308	28744
810.45	28862
810.591	28812
810.733	28733
810.875	28801
811.016	28447
811.158	28634
811.299	28691
811.441	28854
811.582	28839
811.724	28531
811.865	28672
812.007	28668
812.148	28523
812.29	28790
812.431	28809
812.573	29200
812.714	29246
812.855	29303
812.997	29284
813.138	29398
813.279	29391
813.421	29143
813.562	29220
813.703	29075
813.845	28847
813.986	28698
814.127	28493
814.268	28424
814.41	28417
814.551	28489
814.692	28371
814.833	28401
814.974	28356
815.115	28413
815.256	28268
815.397	28295
815.539	28284
815.68	28196
815.821	28169
815.962	28337
816.103	28306
816.244	28192
816.385	28086
816.526	28048
816.666	27823
816.807	27663
816.948	27705
817.089	27819
817.23	27728
817.371	27660
817.512	27713
817.653	27648
817.793	27667
817.934	27827
818.075	27743
818.216	27743
818.356	27629
818.497	27625
818.638	27511
818.778	27519
818.919	27416
819.06	27462
819.2	27591
819.341	27660
819.481	27812
819.622	27797
819.762	28044
819.903	27972
820.043	27907
820.184	27781
820.324	27876
820.465	27842
820.605	27968
820.746	27838
820.886	27667
821.026	27747
821.167	27793
821.307	27914
821.447	27778
821.588	27629
821.728	27473
821.868	27268
822.008	27112
822.149	27218
822.289	27233
822.429	26868
822.569	27009
822.709	26971
822.849	26640
822.99	26743
823.13	26773
823.27	26769
823.41	26552
823.55	26503
823.69	26552
823.83	26636
823.97	26469
824.11	26366
824.25	26446
824.389	26358
824.529	26549
824.669	26438
824.809	26476
824.949	26434
825.089	26461
825.228	26442
825.368	26259
825.508	26347
825.648	26339
825.787	26434
825.927	26362
826.067	26187
826.206	26240
826.346	26233
826.485	26267
826.625	26381
826.765	26438
826.904	26278
827.044	25932
827.183	26073
827.323	25947
827.462	25947
827.601	25890
827.741	25860
827.88	26107
828.02	25811
828.159	25978
828.298	25970
828.437	26088
828.577	25826
828.716	26043
828.855	25727
828.994	25761
829.134	25620
829.273	25681
829.412	25780
829.551	25734
829.69	25704
829.829	25715
829.968	25887
830.107	25658
830.246	25750
830.385	25597
830.524	25605
830.663	25403
830.802	25388
830.941	25278
831.08	25362
831.219	25495
831.357	25422
831.496	25453
831.635	25171
831.774	25202
831.913	25240
832.051	25156
832.19	25137
832.329	25076
832.467	25061
832.606	24859
832.744	24943
832.883	24966
833.022	25019
833.16	25072
833.299	24992
833.437	25133
833.576	25031
833.714	25031
833.852	25118
833.991	25107
834.129	25137
834.267	25179
834.406	25069
834.544	25175
834.682	24996
834.821	24939
834.959	25152
835.097	24996
835.235	25095
835.373	25072
835.511	25129
835.65	24905
835.788	25015
835.926	24696
836.064	24711
836.202	24795
836.34	24947
836.478	24943
836.615	25008
836.753	24821
836.891	24897
837.029	24909
837.167	24833
837.305	24757
837.443	24882
837.58	24829
837.718	24745
837.856	24646
837.993	24673
838.131	24806
838.269	24502
838.406	24563
838.544	24601
838.681	24308
838.819	24391
838.956	24216
839.094	24209
839.231	24292
839.369	24429
839.506	24517
839.643	24327
839.781	24163
839.918	24102
840.055	24239
840.193	24083
840.33	24129
840.467	24159
840.604	24144
840.742	24422
840.879	23961
841.016	24030
841.153	23958
841.29	24224
841.427	24110
841.564	24144
841.701	24125
841.838	24079
841.975	24064
842.112	24121
842.249	23802
842.385	23885
842.522	23954
842.659	23897
842.796	23897
842.933	23866
843.069	23703
843.206	23897
843.343	23992
843.479	23824
843.616	23843
843.752	23703
843.889	23707
844.025	23836
844.162	23627
844.298	23729
844.435	23756
844.571	23516
844.708	23684
844.844	23836
844.98	23741
845.117	23874
845.253	23486
845.389	23531
845.525	23592
845.661	23604
845.798	23448
845.934	23398
846.07	23296
846.206	23334
846.342	23531
846.478	23524
846.614	23151
846.75	23109
846.886	23067
847.022	22946
847.158	23235
847.294	23033
847.429	23086
847.565	23121
847.701	23349
847.837	22843
847.972	22759
848.108	22900
848.244	22923
848.379	22744
848.515	22679
848.65	22672
848.786	22729
848.921	22763
849.057	22873
849.192	22698
849.328	22755
849.463	22584
849.598	22637
849.734	22557
849.869	22493
850.004	22489
850.14	22519
850.275	22386
850.41	22249
850.545	22375
850.68	22497
850.815	22310
850.95	22478
851.085	22653
851.22	22580
851.355	22497
851.49	22421
851.625	22443
851.76	22436
851.895	22329
852.03	22341
852.165	22371
852.299	22451
852.434	22561
852.569	22436
852.703	22493
852.838	22394
852.973	22561
853.107	22603
853.242	22432
853.376	22322
853.511	22166
853.645	22147
853.78	22428
853.914	22352
854.048	22314
854.183	22246
854.317	22261
854.451	22504
854.585	22299
854.72	22211
854.854	22344
854.988	22147
855.122	22272
855.256	22226
855.39	22192
855.524	22284
855.658	22394
855.792	22405
855.926	22352
856.06	22333
856.194	22246
856.327	22226
856.461	22185
856.595	22177
856.729	22310
856.862	22242
856.996	22287
857.13	22466
857.263	22459
857.397	22238
857.53	22276
857.664	22261
857.797	22409
857.931	22462
858.064	22223
858.197	22363
858.331	22303
858.464	22169
858.597	22215
858.731	22379
858.864	22249
858.997	22242
859.13	22246
859.263	22287
859.396	22352
859.529	22234
859.662	22131
859.795	22169
859.928	22291
860.061	22440
860.194	22546
860.327	22265
860.46	22390
860.592	22474
860.725	22493
860.858	22443
860.99	22303
861.123	22177
861.256	22318
861.388	22337
861.521	23071
861.653	22272
861.786	22090
861.918	22147
862.05	22093
862.183	22204
862.315	22261
862.447	22204
862.58	22086
862.712	21789
862.844	21880
862.976	22032
863.108	22006
863.24	22508
863.372	21934
863.504	21907
863.636	21816
863.768	21987
863.9	21945
864.032	21960
864.164	21987
864.296	22006
864.428	22105
864.559	21987
864.691	22093
864.823	22002
864.954	21930
865.086	21994
865.217	21827
865.349	21778
865.48	21854
865.612	21861
865.743	22017
865.875	21850
866.006	21675
866.137	21922
866.269	21953
866.4	21865
866.531	21835
866.662	21785
866.793	21827
866.924	21797
867.055	21728
867.186	21857
867.317	21816
867.448	21625
867.579	21641
867.71	21743
867.841	21637
867.972	21724
868.103	21812
868.233	21797
868.364	21766
868.495	21854
868.625	21888
868.756	22188
868.886	21915
869.017	21975
869.147	22116
869.278	22124
869.408	22029
869.539	22006
869.669	22128
869.799	22070
869.929	22063
870.06	22105
870.19	22394
870.32	22333
870.45	22276
870.58	22382
870.71	22527
870.84	22474
870.97	22409
871.1	22341
871.23	22607
871.36	22481
871.489	22569
871.619	22626
871.749	22519
871.879	22634
872.008	22672
872.138	22603
872.267	22546
872.397	22573
872.526	22375
872.656	22462
872.785	22462
872.915	22660
873.044	22694
873.173	22550
873.303	22691
873.432	22687
873.561	22717
873.69	22653
873.819	22550
873.948	22778
874.077	22653
874.206	22489
874.335	22592
874.464	22702
874.593	22725
874.722	22858
874.851	22972
874.979	22908
875.108	22892
875.237	22759
875.365	22672
875.494	22698
875.623	22782
875.751	22755
875.88	22774
876.008	22915
876.136	23006
876.265	23212
876.393	23326
876.521	23296
876.65	23383
876.778	23258
876.906	23315
877.034	23132
877.162	23231
877.29	23174
877.418	23296
877.546	23220
877.674	23269
877.802	23162
877.93	23117
878.058	23197
878.185	23018
878.313	23143
878.441	23075
878.568	22999
878.696	23140
878.824	23265
878.951	23181
879.079	23296
879.206	23493
879.333	23303
879.461	23223
879.588	23288
879.715	23292
879.842	23505
879.97	23239
880.097	22911
880.224	23044
880.351	23018
880.478	23014
880.605	22946
880.732	22965
880.859	23254
880.986	23113
881.112	23067
881.239	22991
881.366	22759
881.493	22679
881.619	22557
881.746	22687
881.872	22542
881.999	22459
882.125	22603
882.252	22626
882.378	22542
882.505	22634
882.631	22348
882.757	22356
882.883	22363
883.01	22363
883.136	22280
883.262	22090
883.388	22086
883.514	22215
883.64	22306
883.766	22333
883.892	21998
884.018	22010
884.143	22131
884.269	22261
884.395	21876
884.52	21831
884.646	21819
884.772	21899
884.897	21755
885.023	21793
885.148	22059
885.274	21945
885.399	21968
885.524	21991
885.65	21793
885.775	21911
885.9	21926
886.025	21945
886.15	22051
886.275	21865
886.4	21778
886.525	21949
886.65	21854
886.775	21717
886.9	21968
887.025	21956
887.149	21819
887.274	21663
887.399	21686
887.523	21610
887.648	21545
887.773	21492
887.897	21679
888.021	21709
888.146	21675
888.27	21580
888.395	21705
888.519	21629
888.643	21595
888.767	21713
888.891	21492
889.015	21336
889.139	21561
889.263	21443
889.387	21557
889.511	21709
889.635	21553
889.759	21462
889.883	21416
890.006	21340
890.13	21408
890.254	21424
890.377	21408
890.501	21150
890.624	21131
890.748	21313
890.871	21138
890.995	21062
891.118	21036
891.241	20937
891.364	21020
891.488	21157
891.611	20967
891.734	20990
891.857	21077
891.98	21001
892.103	21013
892.226	21096
892.349	20876
892.471	20716
892.594	20891
892.717	20811
892.839	21024
892.962	20883
893.085	20952
893.207	20834
893.33	20663
893.452	20864
893.575	20921
893.697	20739
893.819	21116
893.941	21005
894.064	20948
894.186	20811
894.308	20788
894.43	20876
894.552	21116
894.674	20975
894.796	20727
894.918	20773
895.04	20819
895.161	20933
895.283	20960
895.405	20716
895.526	20838
895.648	20868
895.769	20781
895.891	20914
896.012	20876
896.134	20925
896.255	20758
896.376	20857
896.498	20838
896.619	20880
896.74	20944
896.861	20792
896.982	21222
897.103	21306
897.224	21154
897.345	21062
897.466	20941
897.587	20929
897.708	21203
897.828	21017
897.949	20765
898.07	20906
898.19	20979
898.311	21119
898.431	20960
898.552	21081
898.672	21157
898.792	21100
898.913	21062
899.033	20834
899.153	20849
899.273	20762
899.393	20689
899.513	20868
899.633	20864
899.753	20720
899.873	20617
899.993	20819
900.113	20648
900.232	20697
900.352	20750
900.472	20686
900.591	20492
900.711	20518
900.83	20579
900.95	20575
901.069	20689
901.189	20427
901.308	20145
901.427	20126
901.546	20191
901.665	20138
901.784	20161
901.904	20024
902.023	19947
902.141	19822
902.26	19681
902.379	19719
902.498	19662
902.617	19696
902.735	19647
902.854	19514
902.973	19499
903.091	19441
903.21	19209
903.328	19339
903.446	19209
903.565	19046
903.683	19080
903.801	18970
903.919	19031
904.038	19004
904.156	18852
904.274	18833
904.392	18806
904.51	18878
904.627	18810
904.745	18844
904.863	18821
904.981	18616
905.098	18471
905.216	18521
905.334	18506
905.451	18555
905.569	18467
905.686	18578
905.803	18414
905.921	18376
906.038	18410
906.155	18334
906.272	18228
906.389	18327
906.506	18095
906.623	18034
906.74	18022
906.857	17923
906.974	17897
907.091	18068
907.208	18209
907.324	18019
907.441	17931
907.557	17813
907.674	17828
907.79	17710
907.907	17779
908.023	17737
908.139	17756
908.256	17615
908.372	17646
908.488	17604
908.604	17573
908.72	17444
908.836	17471
908.952	17402
909.068	17486
909.184	17532
909.3	17497
909.415	17406
909.531	17532
909.647	17250
909.762	17208
909.878	17136
909.993	17105
910.108	17147
910.224	17067
910.339	17200
910.454	17029
910.57	16999
910.685	16812
910.8	17136
910.915	17048
911.03	16999
911.145	16793
911.259	16736
911.374	16839
911.489	16717
911.604	16713
911.718	16527
911.833	16474
911.947	16474
912.062	16394
912.176	16470
912.291	16398
912.405	16542
912.519	16717
912.633	16755
912.748	16542
912.862	16398
912.976	16287
913.09	16272
913.204	16204
913.318	16310
913.431	16402
913.545	16352
913.659	16436
913.772	16169
913.886	16238
914	16036
914.113	16204
914.226	16246
914.34	16105
914.453	16010
914.566	16196
914.68	15934
914.793	16044
914.906	15720
915.019	15789
915.132	15629
915.245	15720
915.358	15743
915.47	15614
915.583	15743
915.696	15690
915.809	15705
915.921	15762
916.034	15656
916.146	15549
916.259	15587
916.371	15827
916.483	15561
916.595	15523
916.708	15591
916.82	15572
916.932	15504
917.044	15443
917.156	15443
917.268	15294
917.38	15435
917.491	15306
917.603	15378
917.715	15408
917.826	15325
917.938	15302
918.049	15097
918.161	15256
918.272	15416
918.384	15344
918.495	15275
918.606	15184
918.717	14918
918.828	15085
918.939	15024
919.05	14960
919.161	15028
919.272	14883
919.383	14971
919.494	15123
919.604	15203
919.715	15119
919.826	14986
919.936	15039
920.047	15123
920.157	14986
920.267	15199
920.378	15032
920.488	15058
920.598	15173
920.708	15222
920.818	15169
920.928	15180
921.038	15252
921.148	15268
921.258	15036
921.368	14929
921.477	14720
921.587	14682
921.697	14655
921.806	14705
921.916	14583
922.025	14396
922.134	14465
922.244	14381
922.353	14415
922.462	14168
922.571	14195
922.68	14073
922.789	14058
922.898	14111
923.007	13963
923.116	14039
923.224	13997
923.333	13955
923.442	13887
923.55	13841
923.659	13887
923.767	13860
923.876	13712
923.984	13936
924.092	13670
924.201	13830
924.309	13750
924.417	13788
924.525	13685
924.633	13689
924.741	14663
924.849	13453
924.956	13639
925.064	13400
925.172	13350
925.279	13400
925.387	13422
925.494	13324
925.602	13586
925.709	13487
925.816	13297
925.924	13392
926.031	13434
926.138	13327
926.245	13350
926.352	13274
926.459	13415
926.566	13438
926.673	13312
926.779	13069
926.886	13103
926.993	12909
927.099	12871
927.206	12890
927.312	12795
927.419	12962
927.525	12875
927.631	12897
927.737	12840
927.843	12772
927.95	12662
928.056	12768
928.162	12787
928.267	12795
928.373	13346
928.479	12829
928.585	12593
928.69	12715
928.796	12814
928.901	12604
929.007	12506
929.112	12597
929.218	12574
929.323	12574
929.428	12460
929.533	12601
929.638	12433
929.743	12494
929.848	12471
929.953	12361
930.058	12300
930.163	12190
930.267	12133
930.372	12285
930.477	12121
930.581	12376
930.685	12232
930.79	12015
930.894	12057
930.998	11999
931.103	12167
931.207	11790
931.311	11684
931.415	11585
931.519	11372
931.623	11379
