Data from test_V78500241_1265.txt Node
Date: Fri Mar 25 15:18:39 CST 2022
User: usil
Spectrometer: V785-0024
Trigger mode: 0
Integration Time (sec): 4.000000E-1
Scans to average: 1
Nonlinearity correction enabled: false
Boxcar width: 0
Storing dark spectrum: false
XAxis mode: Wavelengths
Number of Pixels in Spectrum: 1024
>>>>>Begin Spectral Data<<<<<
801.071	28143
801.214	27953
801.356	27671
801.499	27667
801.641	27629
801.783	27515
801.926	27717
802.068	27481
802.211	27393
802.353	27408
802.496	27272
802.638	27188
802.78	27119
802.923	27157
803.065	27116
803.208	27184
803.35	27211
803.492	27249
803.635	27462
803.777	27348
803.919	27439
804.061	27884
804.204	27473
804.346	27329
804.488	27214
804.63	27431
804.773	27176
804.915	27370
805.057	27625
805.199	27427
805.341	27393
805.483	27481
805.626	27549
805.768	27412
805.91	27644
806.052	27504
806.194	27473
806.336	27846
806.478	27720
806.62	27591
806.762	27705
806.904	27774
807.046	28006
807.188	27869
807.33	28025
807.472	28139
807.614	28010
807.756	27895
807.898	27888
808.04	27838
808.182	27778
808.324	27797
808.465	27991
808.607	28112
808.749	28166
808.891	28219
809.033	28413
809.174	28268
809.316	28310
809.458	28150
809.6	28139
809.741	28443
809.883	28413
810.025	28516
810.166	28542
810.308	28489
810.45	28352
810.591	28497
810.733	28154
810.875	28272
811.016	28112
811.158	28135
811.299	28234
811.441	28276
811.582	28443
811.724	28181
811.865	28150
812.007	28246
812.148	28090
812.29	28333
812.431	28371
812.573	28710
812.714	28599
812.855	28850
812.997	28915
813.138	28927
813.279	28790
813.421	28736
813.562	28694
813.703	28516
813.845	28428
813.986	28192
814.127	28013
814.268	27785
814.41	28036
814.551	27930
814.692	27998
814.833	27884
814.974	27667
815.115	27895
815.256	27709
815.397	27774
815.539	27812
815.68	27679
815.821	27625
815.962	27671
816.103	27641
816.244	27466
816.385	27386
816.526	27557
816.666	27374
816.807	27211
816.948	27138
817.089	27298
817.23	27176
817.371	27283
817.512	27169
817.653	27287
817.793	27222
817.934	27252
818.075	27195
818.216	27256
818.356	27294
818.497	27199
818.638	26902
818.778	27009
818.919	27055
819.06	26990
819.2	27135
819.341	27142
819.481	27112
819.622	27386
819.762	27595
819.903	27454
820.043	27477
820.184	27378
820.324	27283
820.465	27405
820.605	27195
820.746	27306
820.886	27195
821.026	27302
821.167	27245
821.307	27321
821.447	27165
821.588	27074
821.728	27039
821.868	26807
822.008	26724
822.149	26651
822.289	26765
822.429	26438
822.569	26278
822.709	26328
822.849	26225
822.99	26149
823.13	26157
823.27	26062
823.41	25982
823.55	25898
823.69	26122
823.83	26153
823.97	26115
824.11	25871
824.25	25776
824.389	25788
824.529	25951
824.669	25860
824.809	25997
824.949	25963
825.089	25868
825.228	25879
825.368	25700
825.508	25719
825.648	25738
825.787	25780
825.927	25780
826.067	25712
826.206	25658
826.346	25712
826.485	25772
826.625	25628
826.765	25826
826.904	25635
827.044	25525
827.183	25468
827.323	25373
827.462	25491
827.601	25411
827.741	25407
827.88	25491
828.02	25358
828.159	25419
828.298	25430
828.437	25525
828.577	25422
828.716	25407
828.855	25335
828.994	25129
829.134	25171
829.273	25099
829.412	25103
829.551	25072
829.69	25103
829.829	25110
829.968	25209
830.107	25274
830.246	25190
830.385	25145
830.524	24973
830.663	24996
830.802	24916
830.941	24787
831.08	24673
831.219	24730
831.357	24802
831.496	25000
831.635	24749
831.774	24730
831.913	24688
832.051	24509
832.19	24578
832.329	24597
832.467	24426
832.606	24315
832.744	24418
832.883	24308
833.022	24262
833.16	24467
833.299	24486
833.437	24403
833.576	24505
833.714	24380
833.852	24593
833.991	24574
834.129	24620
834.267	24536
834.406	24426
834.544	24464
834.682	24475
834.821	24422
834.959	24688
835.097	24376
835.235	24494
835.373	24578
835.511	24361
835.65	24308
835.788	24315
835.926	24201
836.064	24045
836.202	24083
836.34	24273
836.478	24464
836.615	24380
836.753	24380
836.891	24528
837.029	24285
837.167	24273
837.305	24178
837.443	24281
837.58	24209
837.718	24376
837.856	24163
837.993	24148
838.131	24155
838.269	23999
838.406	23961
838.544	24068
838.681	23805
838.819	23882
838.956	23589
839.094	23592
839.231	23665
839.369	23851
839.506	23984
839.643	23942
839.781	23623
839.918	23554
840.055	23589
840.193	23531
840.33	23395
840.467	23448
840.604	23528
840.742	23821
840.879	23387
841.016	23436
841.153	23467
841.29	23714
841.427	23539
841.564	23547
841.701	23493
841.838	23558
841.975	23379
842.112	23486
842.249	23376
842.385	23284
842.522	23478
842.659	23349
842.796	23391
842.933	23448
843.069	23159
843.206	23140
843.343	23398
843.479	23204
843.616	23356
843.752	22965
843.889	23193
844.025	23284
844.162	23083
844.298	23140
844.435	23178
844.571	22930
844.708	23181
844.844	23330
844.98	23155
845.117	23239
845.253	22961
845.389	22824
845.525	22972
845.661	22900
845.798	22763
845.934	22835
846.07	22793
846.206	22828
846.342	22812
846.478	22767
846.614	22656
846.75	22500
846.886	22542
847.022	22504
847.158	22523
847.294	22466
847.429	22519
847.565	22428
847.701	22725
847.837	22272
847.972	22234
848.108	22310
848.244	22306
848.379	22249
848.515	22124
848.65	22131
848.786	22044
848.921	22078
849.057	22234
849.192	22234
849.328	22131
849.463	22215
849.598	21972
849.734	21964
849.869	21926
850.004	21831
850.14	21888
850.275	21960
850.41	21732
850.545	21899
850.68	21751
850.815	21975
850.95	21922
851.085	22040
851.22	21987
851.355	21888
851.49	21838
851.625	21873
851.76	21808
851.895	21793
852.03	21797
852.165	21800
852.299	21873
852.434	21873
852.569	21876
852.703	21827
852.838	21857
852.973	22006
853.107	21994
853.242	21838
853.376	21842
853.511	21610
853.645	21667
853.78	21778
853.914	21732
854.048	21713
854.183	21572
854.317	21728
854.451	21838
854.585	21682
854.72	21682
854.854	21774
854.988	21576
855.122	21671
855.256	21553
855.39	21686
855.524	21781
855.658	21641
855.792	21660
855.926	21686
856.06	21797
856.194	21717
856.327	21583
856.461	21724
856.595	21591
856.729	21694
856.862	21804
856.996	21686
857.13	21732
857.263	21751
857.397	21751
857.53	21644
857.664	21682
857.797	21812
857.931	21808
858.064	21728
858.197	21964
858.331	21549
858.464	21675
858.597	21595
858.731	21770
858.864	21610
858.997	21637
859.13	21728
859.263	21637
859.396	21838
859.529	21580
859.662	21606
859.795	21728
859.928	21755
860.061	21846
860.194	21899
860.327	21743
860.46	21736
860.592	21747
860.725	21895
860.858	21827
860.99	21720
861.123	21686
861.256	21606
861.388	21736
861.521	22398
861.653	21519
861.786	21485
861.918	21473
862.05	21526
862.183	21599
862.315	21682
862.447	21701
862.58	21648
862.712	21313
862.844	21348
862.976	21466
863.108	21496
863.24	21857
863.372	21325
863.504	21439
863.636	21332
863.768	21447
863.9	21370
864.032	21488
864.164	21336
864.296	21344
864.428	21587
864.559	21485
864.691	21450
864.823	21336
864.954	21492
865.086	21393
865.217	21310
865.349	21218
865.48	21252
865.612	21317
865.743	21408
865.875	21260
866.006	21359
866.137	21355
866.269	21302
866.4	21256
866.531	21260
866.662	21123
866.793	21180
866.924	21138
867.055	21237
867.186	21294
867.317	21157
867.448	21154
867.579	21127
867.71	21123
867.841	21089
867.972	21298
868.103	21313
868.233	21207
868.364	21081
868.495	21294
868.625	21416
868.756	21542
868.886	21367
869.017	21435
869.147	21595
869.278	21633
869.408	21507
869.539	21416
869.669	21534
869.799	21351
869.929	21637
870.06	21587
870.19	21838
870.32	21663
870.45	21850
870.58	21846
870.71	21968
870.84	21964
870.97	21827
871.1	21804
871.23	22040
871.36	22070
871.489	21972
871.619	22040
871.749	22040
871.879	22139
872.008	22188
872.138	22112
872.267	22029
872.397	21835
872.526	21850
872.656	21869
872.785	21880
872.915	22105
873.044	22116
873.173	22128
873.303	22105
873.432	22059
873.561	22051
873.69	22090
873.819	22090
873.948	22135
874.077	22040
874.206	22010
874.335	22185
874.464	22261
874.593	22291
874.722	22268
874.851	22382
874.979	22310
875.108	22337
875.237	22226
875.365	22124
875.494	22287
875.623	22367
875.751	22284
875.88	22177
876.008	22360
876.136	22531
876.265	22554
876.393	22782
876.521	22649
876.65	22759
876.778	22675
876.906	22698
877.034	22725
877.162	22626
877.29	22588
877.418	22694
877.546	22641
877.674	22577
877.802	22694
877.93	22649
878.058	22596
878.185	22592
878.313	22584
878.441	22519
878.568	22440
878.696	22455
878.824	22691
878.951	22630
879.079	22835
879.206	22873
879.333	22824
879.461	22710
879.588	22717
879.715	22672
879.842	22900
879.97	22782
880.097	22459
880.224	22523
880.351	22550
880.478	22489
880.605	22451
880.732	22428
880.859	22603
880.986	22550
881.112	22344
881.239	22394
881.366	22124
881.493	22070
881.619	21991
881.746	22188
881.872	22082
881.999	21998
882.125	22067
882.252	22010
882.378	22074
882.505	22070
882.631	21911
882.757	21850
882.883	21713
883.01	21751
883.136	21713
883.262	21580
883.388	21625
883.514	21739
883.64	21774
883.766	21667
883.892	21496
884.018	21473
884.143	21679
884.269	21739
884.395	21500
884.52	21466
884.646	21344
884.772	21359
884.897	21214
885.023	21393
885.148	21408
885.274	21583
885.399	21401
885.524	21393
885.65	21241
885.775	21386
885.9	21313
886.025	21511
886.15	21348
886.275	21252
886.4	21203
886.525	21283
886.65	21268
886.775	21397
886.9	21507
887.025	21477
887.149	21344
887.274	21131
887.399	21180
887.523	21108
887.648	21074
887.773	20979
887.897	21093
888.021	21192
888.146	21077
888.27	21211
888.395	21226
888.519	21119
888.643	21104
888.767	21157
888.891	21070
889.015	20815
889.139	21032
889.263	20895
889.387	21009
889.511	21169
889.635	20956
889.759	20891
889.883	20910
890.006	20967
890.13	21066
890.254	20872
890.377	20830
890.501	20514
890.624	20617
890.748	20712
890.871	20511
890.995	20400
891.118	20488
891.241	20465
891.364	20457
891.488	20667
891.611	20541
891.734	20450
891.857	20564
891.98	20549
892.103	20488
892.226	20434
892.349	20533
892.471	20199
892.594	20442
892.717	20408
892.839	20442
892.962	20400
893.085	20434
893.207	20305
893.33	20317
893.452	20313
893.575	20377
893.697	20336
893.819	20499
893.941	20492
894.064	20431
894.186	20317
894.308	20370
894.43	20423
894.552	20465
894.674	20541
894.796	20381
894.918	20377
895.04	20301
895.161	20324
895.283	20393
895.405	20328
895.526	20400
895.648	20313
895.769	20488
895.891	20358
896.012	20526
896.134	20408
896.255	20404
896.376	20339
896.498	20358
896.619	20351
896.74	20358
896.861	20389
896.982	20598
897.103	20842
897.224	20724
897.345	20530
897.466	20484
897.587	20636
897.708	20670
897.828	20556
897.949	20492
898.07	20427
898.19	20522
898.311	20545
898.431	20518
898.552	20613
898.672	20674
898.792	20667
898.913	20617
899.033	20457
899.153	20320
899.273	20328
899.393	20267
899.513	20313
899.633	20339
899.753	20366
899.873	20161
899.993	20305
900.113	20183
900.232	20313
900.352	20271
900.472	20138
900.591	20111
900.711	20069
900.83	20001
900.95	20157
901.069	20187
901.189	19864
901.308	19791
901.427	19837
901.546	19601
901.665	19769
901.784	19563
901.904	19559
902.023	19518
902.141	19289
902.26	19244
902.379	19240
902.498	19202
902.617	19198
902.735	19278
902.854	19240
902.973	19080
903.091	18985
903.21	18890
903.328	18829
903.446	18817
903.565	18692
903.683	18703
903.801	18578
903.919	18722
904.038	18601
904.156	18460
904.274	18486
904.392	18338
904.51	18292
904.627	18380
904.745	18388
904.863	18399
904.981	18232
905.098	18174
905.216	18121
905.334	18136
905.451	18216
905.569	18076
905.686	18125
905.803	18064
905.921	17961
906.038	17935
906.155	17916
906.272	17851
906.389	17783
906.506	17680
906.623	17657
906.74	17627
906.857	17589
906.974	17543
907.091	17691
907.208	17653
907.324	17619
907.441	17493
907.557	17429
907.674	17337
907.79	17227
907.907	17265
908.023	17334
908.139	17299
908.256	17326
908.372	17265
908.488	17166
908.604	17189
908.72	16911
908.836	17124
908.952	17014
909.068	17159
909.184	17166
909.3	17018
909.415	17166
909.531	17010
909.647	16828
909.762	16782
909.878	16744
909.993	16782
910.108	16668
910.224	16793
910.339	16778
910.454	16535
910.57	16531
910.685	16508
910.8	16759
910.915	16679
911.03	16641
911.145	16371
911.259	16375
911.374	16333
911.489	16272
911.604	16177
911.718	16181
911.833	16063
911.947	16173
912.062	15941
912.176	16124
912.291	16032
912.405	16051
912.519	16360
912.633	16299
912.748	16154
912.862	16139
912.976	15945
913.09	15762
913.204	15899
913.318	15937
913.431	15994
913.545	16013
913.659	16006
913.772	15838
913.886	15880
914	15747
914.113	15793
914.226	15842
914.34	15766
914.453	15671
914.566	15679
914.68	15660
914.793	15572
914.906	15348
915.019	15332
915.132	15245
915.245	15264
915.358	15291
915.47	15336
915.583	15199
915.696	15397
915.809	15443
915.921	15302
916.034	15363
916.146	15161
916.259	15214
916.371	15268
916.483	15245
916.595	15127
916.708	15207
916.82	15062
916.932	15131
917.044	15066
917.156	15123
917.268	14941
917.38	14861
917.491	14906
917.603	14921
917.715	15013
917.826	15100
917.938	14914
918.049	14880
918.161	14857
918.272	14971
918.384	14948
918.495	14876
918.606	14746
918.717	14590
918.828	14640
918.939	14693
919.05	14632
919.161	14667
919.272	14526
919.383	14564
919.494	14769
919.604	14971
919.715	14731
919.826	14545
919.936	14727
920.047	14670
920.157	14686
920.267	14899
920.378	14716
920.488	14697
920.598	14785
920.708	14929
920.818	14815
920.928	14697
921.038	14960
921.148	14857
921.258	14575
921.368	14556
921.477	14366
921.587	14541
921.697	14229
921.806	14400
921.916	14195
922.025	14088
922.134	14096
922.244	14016
922.353	14069
922.462	13909
922.571	13868
922.68	13666
922.789	13712
922.898	13712
923.007	13544
923.116	13674
923.224	13742
923.333	13628
923.442	13518
923.55	13499
923.659	13586
923.767	13571
923.876	13430
923.984	13537
924.092	13449
924.201	13460
924.309	13438
924.417	13453
924.525	13449
924.633	13304
924.741	14119
924.849	13187
924.956	13263
925.064	13110
925.172	12924
925.279	13149
925.387	13160
925.494	13057
925.602	13187
925.709	13149
925.816	13000
925.924	12996
926.031	13168
926.138	13019
926.245	13057
926.352	12981
926.459	13076
926.566	13133
926.673	13046
926.779	12806
926.886	12798
926.993	12677
927.099	12639
927.206	12684
927.312	12608
927.419	12711
927.525	12696
927.631	12730
927.737	12490
927.843	12422
927.95	12426
928.056	12486
928.162	12460
928.267	12528
928.373	13126
928.479	12566
928.585	12262
928.69	12437
928.796	12502
928.901	12361
929.007	12262
929.112	12296
929.218	12304
929.323	12190
929.428	12133
929.533	12334
929.638	12140
929.743	12178
929.848	12186
929.953	12057
930.058	11935
930.163	11863
930.267	11874
930.372	11920
930.477	11840
930.581	12041
930.685	11958
930.79	11741
930.894	11790
930.998	11722
931.103	11817
931.207	11486
931.311	11429
931.415	11467
931.519	11212
931.623	11162
