Data from test_V78500241_1313.txt Node
Date: Fri Mar 25 15:18:59 CST 2022
User: usil
Spectrometer: V785-0024
Trigger mode: 0
Integration Time (sec): 4.000000E-1
Scans to average: 1
Nonlinearity correction enabled: false
Boxcar width: 0
Storing dark spectrum: false
XAxis mode: Wavelengths
Number of Pixels in Spectrum: 1024
>>>>>Begin Spectral Data<<<<<
801.071	28013
801.214	27922
801.356	27641
801.499	27526
801.641	27507
801.783	27515
801.926	27564
802.068	27682
802.211	27443
802.353	27313
802.496	27157
802.638	27256
802.78	27138
802.923	27252
803.065	27058
803.208	27123
803.35	26998
803.492	27230
803.635	27283
803.777	27150
803.919	27260
804.061	27610
804.204	27477
804.346	27230
804.488	27207
804.63	27203
804.773	27302
804.915	27401
805.057	27386
805.199	27466
805.341	27321
805.483	27401
805.626	27515
805.768	27427
805.91	27526
806.052	27530
806.194	27393
806.336	27538
806.478	27515
806.62	27454
806.762	27466
806.904	27682
807.046	27991
807.188	27857
807.33	27876
807.472	27945
807.614	27903
807.756	27838
807.898	27759
808.04	27797
808.182	27720
808.324	27751
808.465	27819
808.607	27914
808.749	28070
808.891	28333
809.033	28268
809.174	28147
809.316	28128
809.458	28169
809.6	28139
809.741	28192
809.883	28432
810.025	28375
810.166	28447
810.308	28478
810.45	28440
810.591	28242
810.733	28234
810.875	28147
811.016	28055
811.158	28070
811.299	28192
811.441	28265
811.582	28234
811.724	28238
811.865	28200
812.007	28097
812.148	28044
812.29	28116
812.431	28234
812.573	28432
812.714	28675
812.855	28672
812.997	28793
813.138	28847
813.279	28577
813.421	28672
813.562	28706
813.703	28554
813.845	28470
813.986	28166
814.127	27964
814.268	27804
814.41	27903
814.551	27736
814.692	27979
814.833	27911
814.974	27774
815.115	27759
815.256	27747
815.397	27660
815.539	27736
815.68	27663
815.821	27580
815.962	27720
816.103	27644
816.244	27481
816.385	27477
816.526	27492
816.666	27188
816.807	27138
816.948	27211
817.089	27340
817.23	27165
817.371	27043
817.512	27066
817.653	27214
817.793	27165
817.934	27291
818.075	27173
818.216	27112
818.356	27058
818.497	26918
818.638	26678
818.778	26952
818.919	26944
819.06	26895
819.2	27017
819.341	27123
819.481	27005
819.622	27176
819.762	27450
819.903	27431
820.043	27340
820.184	27211
820.324	27351
820.465	27317
820.605	27317
820.746	27264
820.886	27199
821.026	27222
821.167	27161
821.307	27336
821.447	27192
821.588	27047
821.728	26975
821.868	26739
822.008	26587
822.149	26507
822.289	26556
822.429	26351
822.569	26240
822.709	26294
822.849	26161
822.99	26237
823.13	26149
823.27	26031
823.41	25837
823.55	25928
823.69	26027
823.83	25883
823.97	25917
824.11	25765
824.25	25788
824.389	25830
824.529	25799
824.669	25776
824.809	25841
824.949	25776
825.089	25791
825.228	25898
825.368	25708
825.508	25609
825.648	25609
825.787	25719
825.927	25811
826.067	25479
826.206	25537
826.346	25655
826.485	25689
826.625	25655
826.765	25719
826.904	25658
827.044	25487
827.183	25381
827.323	25255
827.462	25544
827.601	25365
827.741	25392
827.88	25259
828.02	25335
828.159	25369
828.298	25350
828.437	25438
828.577	25270
828.716	25384
828.855	25365
828.994	25209
829.134	25072
829.273	25023
829.412	25031
829.551	24935
829.69	25095
829.829	25076
829.968	25129
830.107	25270
830.246	25046
830.385	25084
830.524	25053
830.663	24928
830.802	24734
830.941	24722
831.08	24741
831.219	24719
831.357	24669
831.496	24981
831.635	24779
831.774	24563
831.913	24654
832.051	24475
832.19	24426
832.329	24429
832.467	24327
832.606	24281
832.744	24388
832.883	24281
833.022	24289
833.16	24308
833.299	24399
833.437	24445
833.576	24399
833.714	24525
833.852	24532
833.991	24372
834.129	24597
834.267	24540
834.406	24486
834.544	24395
834.682	24464
834.821	24380
834.959	24547
835.097	24296
835.235	24445
835.373	24399
835.511	24414
835.65	24247
835.788	24315
835.926	24125
836.064	24167
836.202	24072
836.34	24391
836.478	24342
836.615	24098
836.753	24110
836.891	24350
837.029	24300
837.167	24220
837.305	24216
837.443	24159
837.58	24133
837.718	24144
837.856	23977
837.993	23999
838.131	24079
838.269	24011
838.406	24038
838.544	23912
838.681	23737
838.819	23790
838.956	23630
839.094	23608
839.231	23722
839.369	23771
839.506	23942
839.643	23805
839.781	23661
839.918	23440
840.055	23520
840.193	23581
840.33	23474
840.467	23520
840.604	23509
840.742	23714
840.879	23258
841.016	23288
841.153	23246
841.29	23414
841.427	23558
841.564	23554
841.701	23444
841.838	23493
841.975	23337
842.112	23406
842.249	23345
842.385	23140
842.522	23459
842.659	23200
842.796	23258
842.933	23208
843.069	23193
843.206	23197
843.343	23303
843.479	23254
843.616	23212
843.752	23010
843.889	23048
844.025	23208
844.162	23037
844.298	23010
844.435	23025
844.571	22824
844.708	23098
844.844	23250
844.98	23124
845.117	23181
845.253	23014
845.389	22858
845.525	22938
845.661	22858
845.798	22668
845.934	22847
846.07	22622
846.206	22793
846.342	22698
846.478	22759
846.614	22577
846.75	22447
846.886	22519
847.022	22523
847.158	22538
847.294	22489
847.429	22523
847.565	22348
847.701	22740
847.837	22200
847.972	22177
848.108	22280
848.244	22242
848.379	22074
848.515	22101
848.65	21991
848.786	22082
848.921	22044
849.057	22169
849.192	22177
849.328	22112
849.463	22029
849.598	21998
849.734	22002
849.869	21873
850.004	21865
850.14	21800
850.275	21895
850.41	21690
850.545	21770
850.68	21869
850.815	21789
850.95	21804
851.085	21968
851.22	21945
851.355	21880
851.49	21774
851.625	21701
851.76	21743
851.895	21766
852.03	21720
852.165	21720
852.299	21926
852.434	21854
852.569	21854
852.703	21873
852.838	21907
852.973	21915
853.107	21892
853.242	21732
853.376	21660
853.511	21591
853.645	21564
853.78	21766
853.914	21774
854.048	21622
854.183	21625
854.317	21538
854.451	21850
854.585	21717
854.72	21656
854.854	21728
854.988	21564
855.122	21580
855.256	21515
855.39	21759
855.524	21781
855.658	21686
855.792	21622
855.926	21622
856.06	21641
856.194	21732
856.327	21698
856.461	21515
856.595	21545
856.729	21469
856.862	21747
856.996	21671
857.13	21724
857.263	21682
857.397	21743
857.53	21667
857.664	21739
857.797	21705
857.931	21747
858.064	21667
858.197	21835
858.331	21610
858.464	21545
858.597	21618
858.731	21660
858.864	21618
858.997	21599
859.13	21709
859.263	21587
859.396	21739
859.529	21557
859.662	21572
859.795	21504
859.928	21739
860.061	21804
860.194	21800
860.327	21557
860.46	21534
860.592	21770
860.725	21804
860.858	21736
860.99	21701
861.123	21587
861.256	21656
861.388	21519
861.521	22314
861.653	21420
861.786	21439
861.918	21572
862.05	21526
862.183	21462
862.315	21488
862.447	21564
862.58	21633
862.712	21481
862.844	21344
862.976	21485
863.108	21401
863.24	21743
863.372	21317
863.504	21367
863.636	21268
863.768	21279
863.9	21313
864.032	21214
864.164	21241
864.296	21344
864.428	21466
864.559	21530
864.691	21389
864.823	21374
864.954	21321
865.086	21336
865.217	21195
865.349	21081
865.48	21264
865.612	21233
865.743	21332
865.875	21302
866.006	21180
866.137	21195
866.269	21207
866.4	21233
866.531	21211
866.662	21195
866.793	21127
866.924	21127
867.055	21226
867.186	21199
867.317	21066
867.448	21020
867.579	21093
867.71	21036
867.841	21135
867.972	21135
868.103	21211
868.233	21138
868.364	21142
868.495	21165
868.625	21359
868.756	21450
868.886	21325
869.017	21241
869.147	21564
869.278	21473
869.408	21374
869.539	21344
869.669	21496
869.799	21348
869.929	21564
870.06	21561
870.19	21648
870.32	21637
870.45	21679
870.58	21781
870.71	21728
870.84	21804
870.97	21804
871.1	21915
871.23	21880
871.36	21884
871.489	22010
871.619	21922
871.749	21899
871.879	22086
872.008	22154
872.138	21972
872.267	21960
872.397	21975
872.526	21732
872.656	21857
872.785	21884
872.915	22021
873.044	22040
873.173	22010
873.303	22131
873.432	22006
873.561	22128
873.69	21880
873.819	22025
873.948	22090
874.077	21998
874.206	22002
874.335	21987
874.464	22051
874.593	22268
874.722	22177
874.851	22238
874.979	22188
875.108	22207
875.237	22078
875.365	22070
875.494	22223
875.623	22318
875.751	22310
875.88	22207
876.008	22356
876.136	22386
876.265	22554
876.393	22771
876.521	22763
876.65	22721
876.778	22641
876.906	22512
877.034	22493
877.162	22622
877.29	22542
877.418	22622
877.546	22527
877.674	22500
877.802	22561
877.93	22523
878.058	22641
878.185	22493
878.313	22535
878.441	22508
878.568	22352
878.696	22497
878.824	22565
878.951	22565
879.079	22710
879.206	22809
879.333	22626
879.461	22637
879.588	22573
879.715	22702
879.842	22809
879.97	22603
880.097	22371
880.224	22470
880.351	22421
880.478	22417
880.605	22322
880.732	22459
880.859	22740
880.986	22596
881.112	22390
881.239	22276
881.366	22093
881.493	22051
881.619	21930
881.746	21983
881.872	22002
881.999	21838
882.125	22013
882.252	22093
882.378	21895
882.505	22097
882.631	21915
882.757	21694
882.883	21694
883.01	21675
883.136	21660
883.262	21523
883.388	21515
883.514	21743
883.64	21808
883.766	21629
883.892	21424
884.018	21386
884.143	21572
884.269	21686
884.395	21306
884.52	21302
884.646	21268
884.772	21306
884.897	21199
885.023	21386
885.148	21355
885.274	21599
885.399	21344
885.524	21321
885.65	21370
885.775	21310
885.9	21332
886.025	21359
886.15	21370
886.275	21184
886.4	21112
886.525	21214
886.65	21157
886.775	21302
886.9	21336
887.025	21485
887.149	21169
887.274	21272
887.399	21127
887.523	21039
887.648	21070
887.773	20925
887.897	20967
888.021	21074
888.146	20895
888.27	21173
888.395	21112
888.519	21108
888.643	21089
888.767	21081
888.891	20868
889.015	20845
889.139	20880
889.263	20883
889.387	20960
889.511	20990
889.635	20956
889.759	20735
889.883	20746
890.006	20883
890.13	20952
890.254	20902
890.377	20785
890.501	20617
890.624	20682
890.748	20735
890.871	20480
890.995	20317
891.118	20427
891.241	20393
891.364	20530
891.488	20568
891.611	20457
891.734	20396
891.857	20560
891.98	20541
892.103	20469
892.226	20446
892.349	20438
892.471	20271
892.594	20320
892.717	20221
892.839	20313
892.962	20229
893.085	20305
893.207	20339
893.33	20180
893.452	20309
893.575	20320
893.697	20339
893.819	20419
893.941	20530
894.064	20469
894.186	20191
894.308	20305
894.43	20343
894.552	20385
894.674	20488
894.796	20271
894.918	20267
895.04	20271
895.161	20332
895.283	20400
895.405	20244
895.526	20328
895.648	20233
895.769	20366
895.891	20362
896.012	20381
896.134	20362
896.255	20301
896.376	20290
896.498	20286
896.619	20366
896.74	20313
896.861	20358
896.982	20606
897.103	20826
897.224	20533
897.345	20507
897.466	20389
897.587	20469
897.708	20644
897.828	20533
897.949	20431
898.07	20240
898.19	20461
898.311	20644
898.431	20450
898.552	20621
898.672	20465
898.792	20629
898.913	20507
899.033	20355
899.153	20324
899.273	20191
899.393	20263
899.513	20225
899.633	20278
899.753	20298
899.873	20256
899.993	20313
900.113	20176
900.232	20225
900.352	20218
900.472	20107
900.591	20062
900.711	20180
900.83	20035
900.95	20100
901.069	20130
901.189	19928
901.308	19731
901.427	19689
901.546	19662
901.665	19605
901.784	19685
901.904	19521
902.023	19441
902.141	19217
902.26	19141
902.379	19099
902.498	19076
902.617	19137
902.735	19148
902.854	19099
902.973	19084
903.091	18783
903.21	18840
903.328	18779
903.446	18753
903.565	18631
903.683	18631
903.801	18528
903.919	18483
904.038	18525
904.156	18391
904.274	18620
904.392	18323
904.51	18258
904.627	18361
904.745	18376
904.863	18525
904.981	18140
905.098	18038
905.216	18083
905.334	18049
905.451	18087
905.569	17946
905.686	18060
905.803	17999
905.921	17863
906.038	17836
906.155	17851
906.272	17733
906.389	17783
906.506	17604
906.623	17615
906.74	17566
906.857	17433
906.974	17505
907.091	17493
907.208	17627
907.324	17592
907.441	17497
907.557	17337
907.674	17261
907.79	17246
907.907	17330
908.023	17280
908.139	17277
908.256	17159
908.372	17178
908.488	17185
908.604	17075
908.72	17022
908.836	16923
908.952	16889
909.068	17037
909.184	17128
909.3	16934
909.415	17128
909.531	17075
909.647	16797
909.762	16706
909.878	16729
909.993	16744
910.108	16740
910.224	16645
910.339	16656
910.454	16592
910.57	16538
910.685	16405
910.8	16664
910.915	16645
911.03	16497
911.145	16325
911.259	16246
911.374	16276
911.489	16329
911.604	16013
911.718	16021
911.833	16131
911.947	15937
912.062	15934
912.176	16097
912.291	16067
912.405	16067
912.519	16261
912.633	16204
912.748	15998
912.862	16029
912.976	15876
913.09	15720
913.204	15869
913.318	15831
913.431	15937
913.545	15854
913.659	15819
913.772	15778
913.886	15698
914	15587
914.113	15816
914.226	15751
914.34	15698
914.453	15561
914.566	15713
914.68	15492
914.793	15500
914.906	15310
915.019	15291
915.132	15192
915.245	15302
915.358	15348
915.47	15195
915.583	15264
915.696	15218
915.809	15344
915.921	15363
916.034	15272
916.146	15135
916.259	15138
916.371	15169
916.483	15157
916.595	15024
916.708	15123
916.82	15062
916.932	15077
917.044	15062
917.156	14948
917.268	14853
917.38	14960
917.491	14944
917.603	14956
917.715	14982
917.826	14986
917.938	14902
918.049	14777
918.161	14861
918.272	14963
918.384	15036
918.495	14933
918.606	14689
918.717	14579
918.828	14731
918.939	14686
919.05	14522
919.161	14613
919.272	14396
919.383	14526
919.494	14640
919.604	14883
919.715	14693
919.826	14503
919.936	14560
920.047	14697
920.157	14720
920.267	14819
920.378	14549
920.488	14610
920.598	14823
920.708	14887
920.818	14773
920.928	14678
921.038	14925
921.148	14857
921.258	14587
921.368	14389
921.477	14423
921.587	14275
921.697	14248
921.806	14362
921.916	14210
922.025	14012
922.134	13944
922.244	13947
922.353	13989
922.462	13822
922.571	13849
922.68	13681
922.789	13616
922.898	13613
923.007	13594
923.116	13708
923.224	13601
923.333	13605
923.442	13457
923.55	13472
923.659	13426
923.767	13499
923.876	13369
923.984	13514
924.092	13320
924.201	13457
924.309	13468
924.417	13373
924.525	13266
924.633	13240
924.741	14286
924.849	13050
924.956	13209
925.064	13084
925.172	13034
925.279	13088
925.387	13031
925.494	13057
925.602	13126
925.709	13072
925.816	12993
925.924	12985
926.031	13038
926.138	13031
926.245	13008
926.352	12913
926.459	13031
926.566	13076
926.673	12859
926.779	12768
926.886	12776
926.993	12642
927.099	12608
927.206	12555
927.312	12536
927.419	12711
927.525	12589
927.631	12589
927.737	12380
927.843	12528
927.95	12429
928.056	12429
928.162	12353
928.267	12506
928.373	13099
928.479	12528
928.585	12323
928.69	12350
928.796	12365
928.901	12289
929.007	12163
929.112	12285
929.218	12216
929.323	12216
929.428	12041
929.533	12243
929.638	12110
929.743	12060
929.848	12148
929.953	12106
930.058	12057
930.163	11832
930.267	11847
930.372	11912
930.477	11794
930.581	12079
930.685	11889
930.79	11737
930.894	11783
930.998	11665
931.103	11847
931.207	11425
931.311	11372
931.415	11330
931.519	11086
931.623	11086
