Data from test_V78500241_2839.txt Node
Date: Fri Mar 25 15:29:37 CST 2022
User: usil
Spectrometer: V785-0024
Trigger mode: 0
Integration Time (sec): 4.000000E-1
Scans to average: 1
Nonlinearity correction enabled: false
Boxcar width: 0
Storing dark spectrum: false
XAxis mode: Wavelengths
Number of Pixels in Spectrum: 1024
>>>>>Begin Spectral Data<<<<<
801.071	27302
801.214	27332
801.356	27028
801.499	26948
801.641	26705
801.783	26720
801.926	26754
802.068	26853
802.211	26815
802.353	26556
802.496	26678
802.638	26389
802.78	26423
802.923	26480
803.065	26393
803.208	26541
803.35	26476
803.492	26602
803.635	26655
803.777	26568
803.919	26575
804.061	26994
804.204	26636
804.346	26571
804.488	26423
804.63	26735
804.773	26438
804.915	26556
805.057	26727
805.199	26598
805.341	26720
805.483	26880
805.626	26705
805.768	26697
805.91	26697
806.052	26670
806.194	26682
806.336	26887
806.478	26743
806.62	26670
806.762	26956
806.904	27051
807.046	27283
807.188	27036
807.33	27146
807.472	27237
807.614	26979
807.756	27062
807.898	27013
808.04	26819
808.182	26880
808.324	27051
808.465	27070
808.607	27207
808.749	27283
808.891	27351
809.033	27568
809.174	27298
809.316	27302
809.458	27348
809.6	27230
809.741	27488
809.883	27443
810.025	27652
810.166	27591
810.308	27614
810.45	27603
810.591	27424
810.733	27408
810.875	27237
811.016	27313
811.158	27306
811.299	27351
811.441	27389
811.582	27549
811.724	27329
811.865	27188
812.007	27412
812.148	27336
812.29	27374
812.431	27496
812.573	27686
812.714	27663
812.855	27823
812.997	27934
813.138	27994
813.279	27907
813.421	27926
813.562	27713
813.703	27603
813.845	27439
813.986	27294
814.127	27127
814.268	26990
814.41	26975
814.551	27028
814.692	26998
814.833	26899
814.974	26872
815.115	27013
815.256	26956
815.397	26708
815.539	26792
815.68	26720
815.821	26708
815.962	26853
816.103	26632
816.244	26674
816.385	26541
816.526	26545
816.666	26377
816.807	26237
816.948	26381
817.089	26400
817.23	26317
817.371	26122
817.512	26301
817.653	26206
817.793	26115
817.934	26115
818.075	26298
818.216	26298
818.356	26202
818.497	26119
818.638	25947
818.778	26039
818.919	25966
819.06	26187
819.2	26100
819.341	26229
819.481	26362
819.622	26229
819.762	26629
819.903	26484
820.043	26412
820.184	26465
820.324	26366
820.465	26324
820.605	26263
820.746	26202
820.886	26111
821.026	26271
821.167	26370
821.307	26438
821.447	26313
821.588	26077
821.728	26084
821.868	25841
822.008	25677
822.149	25780
822.289	25761
822.429	25597
822.569	25327
822.709	25259
822.849	25312
822.99	25221
823.13	25183
823.27	25129
823.41	25065
823.55	24939
823.69	25057
823.83	25148
823.97	24996
824.11	24692
824.25	24757
824.389	24817
824.529	24878
824.669	24913
824.809	24977
824.949	24981
825.089	24856
825.228	24825
825.368	24734
825.508	24692
825.648	24684
825.787	24848
825.927	24726
826.067	24684
826.206	24745
826.346	24947
826.485	24817
826.625	24650
826.765	24787
826.904	24791
827.044	24547
827.183	24494
827.323	24380
827.462	24627
827.601	24361
827.741	24429
827.88	24471
828.02	24376
828.159	24426
828.298	24357
828.437	24410
828.577	24426
828.716	24380
828.855	24376
828.994	24205
829.134	24095
829.273	24209
829.412	24121
829.551	24034
829.69	24034
829.829	24136
829.968	24270
830.107	24076
830.246	24152
830.385	24133
830.524	24045
830.663	23882
830.802	23882
830.941	23760
831.08	23680
831.219	23828
831.357	23847
831.496	23855
831.635	23657
831.774	23680
831.913	23566
832.051	23436
832.19	23471
832.329	23455
832.467	23379
832.606	23353
832.744	23296
832.883	23330
833.022	23379
833.16	23455
833.299	23414
833.437	23444
833.576	23493
833.714	23440
833.852	23421
833.991	23429
834.129	23543
834.267	23497
834.406	23547
834.544	23516
834.682	23543
834.821	23368
834.959	23604
835.097	23474
835.235	23585
835.373	23425
835.511	23410
835.65	23337
835.788	23227
835.926	23147
836.064	23010
836.202	23117
836.34	23197
836.478	23315
836.615	23117
836.753	23318
836.891	23360
837.029	23227
837.167	23098
837.305	23178
837.443	23189
837.58	23056
837.718	23189
837.856	23086
837.993	23079
838.131	23151
838.269	22976
838.406	23014
838.544	23033
838.681	22816
838.819	22778
838.956	22535
839.094	22554
839.231	22637
839.369	22816
839.506	23014
839.643	22820
839.781	22535
839.918	22557
840.055	22470
840.193	22500
840.33	22565
840.467	22512
840.604	22656
840.742	22831
840.879	22371
841.016	22573
841.153	22367
841.29	22622
841.427	22527
841.564	22584
841.701	22649
841.838	22542
841.975	22386
842.112	22375
842.249	22352
842.385	22344
842.522	22489
842.659	22413
842.796	22284
842.933	22215
843.069	22318
843.206	22253
843.343	22402
843.479	22246
843.616	22344
843.752	22067
843.889	22032
844.025	22150
844.162	21975
844.298	22059
844.435	22036
844.571	22002
844.708	22116
844.844	22196
844.98	22135
845.117	22101
845.253	22010
845.389	21892
845.525	21861
845.661	21903
845.798	21873
845.934	21850
846.07	21800
846.206	21652
846.342	21804
846.478	21854
846.614	21603
846.75	21435
846.886	21416
847.022	21511
847.158	21583
847.294	21477
847.429	21618
847.565	21523
847.701	21698
847.837	21283
847.972	21237
848.108	21374
848.244	21237
848.379	21138
848.515	21154
848.65	21211
848.786	21062
848.921	21070
849.057	21135
849.192	21218
849.328	21283
849.463	21089
849.598	21024
849.734	20967
849.869	21093
850.004	20811
850.14	20952
850.275	21001
850.41	20777
850.545	20735
850.68	20861
850.815	20941
850.95	20918
851.085	20971
851.22	21036
851.355	20887
851.49	20861
851.625	20842
851.76	21013
851.895	20872
852.03	20876
852.165	21077
852.299	20956
852.434	20990
852.569	20948
852.703	20921
852.838	21047
852.973	21009
853.107	20971
853.242	20781
853.376	20769
853.511	20537
853.645	20613
853.78	20758
853.914	20754
854.048	20746
854.183	20674
854.317	20754
854.451	20758
854.585	20659
854.72	20629
854.854	20815
854.988	20727
855.122	20716
855.256	20594
855.39	20636
855.524	20727
855.658	20800
855.792	20800
855.926	20716
856.06	20663
856.194	20785
856.327	20693
856.461	20648
856.595	20606
856.729	20674
856.862	20891
856.996	20632
857.13	20739
857.263	20773
857.397	20735
857.53	20640
857.664	20769
857.797	20845
857.931	20788
858.064	20678
858.197	20800
858.331	20670
858.464	20682
858.597	20530
858.731	20705
858.864	20807
858.997	20670
859.13	20743
859.263	20712
859.396	20727
859.529	20594
859.662	20640
859.795	20541
859.928	20621
860.061	20910
860.194	20754
860.327	20788
860.46	20807
860.592	20842
860.725	20864
860.858	20845
860.99	20796
861.123	20659
861.256	20686
861.388	20594
861.521	21199
861.653	20579
861.786	20457
861.918	20606
862.05	20648
862.183	20648
862.315	20602
862.447	20765
862.58	20640
862.712	20396
862.844	20404
862.976	20442
863.108	20454
863.24	20918
863.372	20347
863.504	20480
863.636	20233
863.768	20537
863.9	20347
864.032	20362
864.164	20446
864.296	20339
864.428	20461
864.559	20465
864.691	20396
864.823	20434
864.954	20351
865.086	20286
865.217	20286
865.349	20164
865.48	20256
865.612	20305
865.743	20396
865.875	20259
866.006	20244
866.137	20358
866.269	20305
866.4	20294
866.531	20267
866.662	20271
866.793	20191
866.924	20351
867.055	20301
867.186	20282
867.317	20275
867.448	20218
867.579	20176
867.71	20142
867.841	20240
867.972	20366
868.103	20206
868.233	20324
868.364	20366
868.495	20362
868.625	20469
868.756	20617
868.886	20457
869.017	20552
869.147	20583
869.278	20609
869.408	20507
869.539	20454
869.669	20648
869.799	20640
869.929	20731
870.06	20609
870.19	20746
870.32	20781
870.45	20876
870.58	20883
870.71	21058
870.84	20933
870.97	21028
871.1	20834
871.23	21119
871.36	21127
871.489	20975
871.619	21173
871.749	21066
871.879	21119
872.008	21150
872.138	20994
872.267	21051
872.397	20982
872.526	20998
872.656	20842
872.785	21039
872.915	21077
873.044	21108
873.173	21051
873.303	21214
873.432	21241
873.561	21192
873.69	21116
873.819	21135
873.948	21287
874.077	21173
874.206	21100
874.335	21112
874.464	21245
874.593	21454
874.722	21317
874.851	21359
874.979	21462
875.108	21424
875.237	21363
875.365	21150
875.494	21306
875.623	21367
875.751	21393
875.88	21469
876.008	21523
876.136	21641
876.265	21701
876.393	21850
876.521	21873
876.65	21956
876.778	21785
876.906	21698
877.034	21713
877.162	21713
877.29	21686
877.418	21861
877.546	21717
877.674	21709
877.802	21591
877.93	21644
878.058	21606
878.185	21622
878.313	21663
878.441	21705
878.568	21534
878.696	21644
878.824	21720
878.951	21926
879.079	21960
879.206	21945
879.333	21922
879.461	21876
879.588	21934
879.715	21975
879.842	22116
879.97	21698
880.097	21633
880.224	21614
880.351	21633
880.478	21644
880.605	21439
880.732	21599
880.859	21778
880.986	21568
881.112	21572
881.239	21348
881.366	21332
881.493	21226
881.619	21085
881.746	21146
881.872	21195
881.999	21180
882.125	21135
882.252	21081
882.378	21005
882.505	21287
882.631	21017
882.757	20921
882.883	20979
883.01	20880
883.136	20724
883.262	20762
883.388	20606
883.514	20853
883.64	20887
883.766	20853
883.892	20602
884.018	20594
884.143	20754
884.269	20758
884.395	20621
884.52	20412
884.646	20499
884.772	20434
884.897	20450
885.023	20507
885.148	20629
885.274	20678
885.399	20613
885.524	20423
885.65	20503
885.775	20457
885.9	20495
886.025	20552
886.15	20526
886.275	20476
886.4	20423
886.525	20434
886.65	20461
886.775	20457
886.9	20644
887.025	20590
887.149	20518
887.274	20313
887.399	20324
887.523	20176
887.648	20358
887.773	20115
887.897	20282
888.021	20278
888.146	20115
888.27	20393
888.395	20320
888.519	20183
888.643	20153
888.767	20294
888.891	20145
889.015	20065
889.139	20107
889.263	19997
889.387	20172
889.511	20309
889.635	20149
889.759	20039
889.883	20012
890.006	19989
890.13	20168
890.254	19928
890.377	19917
890.501	19818
890.624	19814
890.748	19940
890.871	19727
890.995	19601
891.118	19704
891.241	19616
891.364	19556
891.488	19750
891.611	19647
891.734	19597
891.857	19670
891.98	19628
892.103	19609
892.226	19533
892.349	19601
892.471	19419
892.594	19586
892.717	19677
892.839	19499
892.962	19506
893.085	19609
893.207	19514
893.33	19426
893.452	19506
893.575	19563
893.697	19487
893.819	19746
893.941	19742
894.064	19776
894.186	19502
894.308	19419
894.43	19651
894.552	19830
894.674	19723
894.796	19514
894.918	19586
895.04	19533
895.161	19666
895.283	19643
895.405	19514
895.526	19578
895.648	19601
895.769	19594
895.891	19578
896.012	19597
896.134	19533
896.255	19693
896.376	19491
896.498	19571
896.619	19632
896.74	19708
896.861	19685
896.982	19868
897.103	20005
897.224	19822
897.345	19841
897.466	19708
897.587	19807
897.708	19868
897.828	19811
897.949	19693
898.07	19674
898.19	19723
898.311	19814
898.431	19738
898.552	19708
898.672	19944
898.792	19864
898.913	19818
899.033	19670
899.153	19620
899.273	19521
899.393	19548
899.513	19582
899.633	19594
899.753	19521
899.873	19514
899.993	19529
900.113	19544
900.232	19548
900.352	19369
900.472	19346
900.591	19320
900.711	19320
900.83	19255
900.95	19377
901.069	19457
901.189	19255
901.308	18977
901.427	18852
901.546	18947
901.665	18856
901.784	18939
901.904	18779
902.023	18753
902.141	18426
902.26	18422
902.379	18517
902.498	18502
902.617	18422
902.735	18494
902.854	18365
902.973	18429
903.091	18190
903.21	18125
903.328	18129
903.446	18091
903.565	18095
903.683	18022
903.801	17840
903.919	17840
904.038	17855
904.156	17775
904.274	17737
904.392	17707
904.51	17657
904.627	17710
904.745	17764
904.863	17707
904.981	17524
905.098	17360
905.216	17425
905.334	17356
905.451	17368
905.569	17395
905.686	17459
905.803	17402
905.921	17239
906.038	17273
906.155	17208
906.272	17071
906.389	17170
906.506	16889
906.623	17014
906.74	16946
906.857	16835
906.974	16805
907.091	16942
907.208	17033
907.324	16984
907.441	16771
907.557	16694
907.674	16683
907.79	16470
907.907	16645
908.023	16668
908.139	16664
908.256	16637
908.372	16504
908.488	16577
908.604	16371
908.72	16386
908.836	16356
908.952	16185
909.068	16405
909.184	16451
909.3	16394
909.415	16428
909.531	16344
909.647	16105
909.762	16059
909.878	16078
909.993	16139
910.108	16112
910.224	16067
910.339	16063
910.454	15888
910.57	15945
910.685	15766
910.8	16025
910.915	16044
911.03	15934
911.145	15743
911.259	15610
911.374	15720
911.489	15557
911.604	15564
911.718	15458
911.833	15454
911.947	15397
912.062	15283
912.176	15568
912.291	15447
912.405	15485
912.519	15709
912.633	15625
912.748	15416
912.862	15412
912.976	15313
913.09	15249
913.204	15207
913.318	15310
913.431	15264
913.545	15302
913.659	15370
913.772	15195
913.886	15024
914	15005
914.113	15047
914.226	15138
914.34	15184
914.453	14853
914.566	15112
914.68	15028
914.793	14994
914.906	14781
915.019	14716
915.132	14663
915.245	14640
915.358	14659
915.47	14587
915.583	14613
915.696	14678
915.809	14800
915.921	14815
916.034	14606
916.146	14465
916.259	14480
916.371	14640
916.483	14659
916.595	14583
916.708	14587
916.82	14522
916.932	14518
917.044	14514
917.156	14374
917.268	14381
917.38	14317
917.491	14256
917.603	14324
917.715	14427
917.826	14370
917.938	14256
918.049	14221
918.161	14267
918.272	14461
918.384	14450
918.495	14183
918.606	14153
918.717	14046
918.828	14195
918.939	14126
919.05	14035
919.161	14119
919.272	13875
919.383	13940
919.494	14115
919.604	14229
919.715	14096
919.826	13993
919.936	14035
920.047	14115
920.157	14187
920.267	14313
920.378	14111
920.488	14069
920.598	14244
920.708	14404
920.818	14263
920.928	14267
921.038	14465
921.148	14343
921.258	14001
921.368	13951
921.477	13780
921.587	13833
921.697	13830
921.806	13780
921.916	13753
922.025	13571
922.134	13480
922.244	13468
922.353	13582
922.462	13358
922.571	13206
922.68	13213
922.789	13141
922.898	13129
923.007	13122
923.116	13110
923.224	13061
923.333	13019
923.442	13031
923.55	12977
923.659	12996
923.767	13004
923.876	12871
923.984	13050
924.092	12890
924.201	12894
924.309	12905
924.417	12943
924.525	12837
924.633	12848
924.741	13784
924.849	12658
924.956	12711
925.064	12555
925.172	12525
925.279	12631
925.387	12608
925.494	12582
925.602	12688
925.709	12555
925.816	12506
925.924	12547
926.031	12589
926.138	12631
926.245	12521
926.352	12502
926.459	12532
926.566	12570
926.673	12403
926.779	12296
926.886	12388
926.993	12209
927.099	12243
927.206	12091
927.312	12064
927.419	12106
927.525	12167
927.631	12152
927.737	12026
927.843	12007
927.95	11870
928.056	11984
928.162	12011
928.267	12030
928.373	12642
928.479	12098
928.585	11866
928.69	12015
928.796	11961
928.901	11783
929.007	11798
929.112	11878
929.218	11821
929.323	11722
929.428	11764
929.533	11824
929.638	11638
929.743	11722
929.848	11680
929.953	11649
930.058	11551
930.163	11410
930.267	11383
930.372	11497
930.477	11417
930.581	11638
930.685	11478
930.79	11345
930.894	11315
930.998	11292
931.103	11417
931.207	11022
931.311	11025
931.415	11003
931.519	10763
931.623	10679
