Data from test_V78500241_785.txt Node
Date: Fri Mar 25 15:15:19 CST 2022
User: usil
Spectrometer: V785-0024
Trigger mode: 0
Integration Time (sec): 4.000000E-1
Scans to average: 1
Nonlinearity correction enabled: false
Boxcar width: 0
Storing dark spectrum: false
XAxis mode: Wavelengths
Number of Pixels in Spectrum: 1024
>>>>>Begin Spectral Data<<<<<
801.071	28272
801.214	28188
801.356	28017
801.499	27968
801.641	27884
801.783	27907
801.926	27941
802.068	27934
802.211	27656
802.353	27732
802.496	27523
802.638	27488
802.78	27606
802.923	27515
803.065	27462
803.208	27408
803.35	27591
803.492	27618
803.635	27743
803.777	27530
803.919	27793
804.061	28006
804.204	27717
804.346	27717
804.488	27538
804.63	27675
804.773	27561
804.915	27774
805.057	27857
805.199	27667
805.341	27892
805.483	27823
805.626	28006
805.768	27698
805.91	27804
806.052	27694
806.194	27747
806.336	27972
806.478	27895
806.62	27975
806.762	27903
806.904	28120
807.046	28481
807.188	28280
807.33	28223
807.472	28173
807.614	28295
807.756	28325
807.898	28303
808.04	28029
808.182	28154
808.324	28131
808.465	28284
808.607	28382
808.749	28478
808.891	28694
809.033	28653
809.174	28481
809.316	28504
809.458	28531
809.6	28535
809.741	28546
809.883	28679
810.025	28752
810.166	28839
810.308	28790
810.45	28748
810.591	28987
810.733	28466
810.875	28481
811.016	28554
811.158	28451
811.299	28626
811.441	28733
811.582	28603
811.724	28447
811.865	28451
812.007	28554
812.148	28577
812.29	28584
812.431	28816
812.573	28980
812.714	29052
812.855	29105
812.997	29204
813.138	29421
813.279	29368
813.421	29041
813.562	29162
813.703	29052
813.845	28706
813.986	28596
814.127	28242
814.268	28223
814.41	28238
814.551	28242
814.692	28443
814.833	28291
814.974	28147
815.115	28413
815.256	28166
815.397	27972
815.539	28097
815.68	28032
815.821	27972
815.962	28181
816.103	28082
816.244	27953
816.385	27994
816.526	27797
816.666	27606
816.807	27633
816.948	27781
817.089	27663
817.23	27507
817.371	27519
817.512	27610
817.653	27481
817.793	27523
817.934	27370
818.075	27603
818.216	27648
818.356	27576
818.497	27511
818.638	27374
818.778	27378
818.919	27466
819.06	27412
819.2	27450
819.341	27561
819.481	27519
819.622	27857
819.762	28029
819.903	27865
820.043	27774
820.184	27637
820.324	27648
820.465	27835
820.605	27747
820.746	27705
820.886	27564
821.026	27572
821.167	27591
821.307	27633
821.447	27439
821.588	27458
821.728	27439
821.868	27252
822.008	27051
822.149	27036
822.289	26899
822.429	26868
822.569	26754
822.709	26651
822.849	26514
822.99	26530
823.13	26499
823.27	26438
823.41	26625
823.55	26339
823.69	26457
823.83	26400
823.97	26324
824.11	26187
824.25	26183
824.389	26221
824.529	26301
824.669	26282
824.809	26362
824.949	26301
825.089	26332
825.228	26237
825.368	26046
825.508	26084
825.648	26100
825.787	26168
825.927	26138
826.067	26119
826.206	26069
826.346	26180
826.485	26092
826.625	26065
826.765	26225
826.904	26180
827.044	25795
827.183	25966
827.323	25894
827.462	25947
827.601	25883
827.741	25818
827.88	25731
828.02	25708
828.159	25784
828.298	25879
828.437	25738
828.577	25757
828.716	25871
828.855	25715
828.994	25571
829.134	25734
829.273	25689
829.412	25483
829.551	25620
829.69	25533
829.829	25392
829.968	25525
830.107	25544
830.246	25628
830.385	25529
830.524	25396
830.663	25388
830.802	25122
830.941	25202
831.08	25110
831.219	25141
831.357	25164
831.496	25354
831.635	25164
831.774	25046
831.913	24916
832.051	24928
832.19	24932
832.329	24977
832.467	24753
832.606	24798
832.744	24776
832.883	24760
833.022	24738
833.16	24776
833.299	24867
833.437	24951
833.576	24954
833.714	24863
833.852	24852
833.991	24844
834.129	24943
834.267	24981
834.406	24848
834.544	24768
834.682	24806
834.821	24932
834.959	25012
835.097	24829
835.235	24981
835.373	24791
835.511	24772
835.65	24715
835.788	24719
835.926	24612
836.064	24467
836.202	24498
836.34	24597
836.478	24867
836.615	24650
836.753	24627
836.891	24776
837.029	24730
837.167	24601
837.305	24509
837.443	24502
837.58	24719
837.718	24521
837.856	24532
837.993	24467
838.131	24410
838.269	24365
838.406	24353
838.544	24262
838.681	24098
838.819	24121
838.956	23988
839.094	24030
839.231	23984
839.369	24129
839.506	24327
839.643	24239
839.781	23920
839.918	23882
840.055	23912
840.193	23916
840.33	23889
840.467	23760
840.604	23885
840.742	24095
840.879	23798
841.016	23863
841.153	23752
841.29	23939
841.427	23828
841.564	23927
841.701	23901
841.838	23939
841.975	23756
842.112	23870
842.249	23729
842.385	23589
842.522	23790
842.659	23745
842.796	23535
842.933	23684
843.069	23482
843.206	23543
843.343	23642
843.479	23615
843.616	23604
843.752	23421
843.889	23509
844.025	23623
844.162	23402
844.298	23486
844.435	23452
844.571	23383
844.708	23349
844.844	23410
844.98	23592
845.117	23551
845.253	23501
845.389	23265
845.525	23265
845.661	23288
845.798	23136
845.934	23185
846.07	23174
846.206	23193
846.342	23334
846.478	23102
846.614	23079
846.75	22843
846.886	22968
847.022	22980
847.158	22843
847.294	22831
847.429	22752
847.565	22748
847.701	23086
847.837	22569
847.972	22641
848.108	22664
848.244	22694
848.379	22424
848.515	22478
848.65	22356
848.786	22382
848.921	22447
849.057	22580
849.192	22481
849.328	22577
849.463	22455
849.598	22390
849.734	22325
849.869	22211
850.004	22120
850.14	22242
850.275	22299
850.41	22276
850.545	22268
850.68	22185
850.815	22226
850.95	22150
851.085	22402
851.22	22272
851.355	22226
851.49	22143
851.625	22223
851.76	22177
851.895	22116
852.03	22048
852.165	22337
852.299	22105
852.434	22322
852.569	22265
852.703	22166
852.838	22200
852.973	22451
853.107	22185
853.242	22181
853.376	22010
853.511	21865
853.645	21975
853.78	22070
853.914	22021
854.048	21991
854.183	21918
854.317	22143
854.451	22291
854.585	22067
854.72	22055
854.854	22177
854.988	21907
855.122	22006
855.256	21911
855.39	21983
855.524	22150
855.658	22055
855.792	21998
855.926	22078
856.06	21994
856.194	22211
856.327	21972
856.461	21998
856.595	22032
856.729	21945
856.862	22112
856.996	22109
857.13	22059
857.263	22082
857.397	22025
857.53	22059
857.664	22002
857.797	22082
857.931	22173
858.064	22105
858.197	22055
858.331	21956
858.464	21968
858.597	21937
858.731	22074
858.864	22128
858.997	21953
859.13	22143
859.263	22101
859.396	22090
859.529	21949
859.662	22040
859.795	21975
859.928	21991
860.061	22105
860.194	22196
860.327	22078
860.46	22101
860.592	22196
860.725	22173
860.858	22177
860.99	21907
861.123	21903
861.256	22013
861.388	22032
861.521	22755
861.653	21960
861.786	21869
861.918	21865
862.05	21972
862.183	22074
862.315	22006
862.447	21972
862.58	21895
862.712	21793
862.844	21797
862.976	21812
863.108	21816
863.24	22131
863.372	21724
863.504	21736
863.636	21667
863.768	21713
863.9	21705
864.032	21686
864.164	21660
864.296	21781
864.428	21861
864.559	21827
864.691	21690
864.823	21701
864.954	21717
865.086	21679
865.217	21576
865.349	21591
865.48	21618
865.612	21606
865.743	21701
865.875	21644
866.006	21576
866.137	21526
866.269	21679
866.4	21686
866.531	21614
866.662	21389
866.793	21553
866.924	21530
867.055	21561
867.186	21526
867.317	21389
867.448	21397
867.579	21412
867.71	21458
867.841	21420
867.972	21500
868.103	21542
868.233	21534
868.364	21572
868.495	21698
868.625	21720
868.756	21869
868.886	21751
869.017	21759
869.147	21915
869.278	21857
869.408	21705
869.539	21808
869.669	21854
869.799	21835
869.929	21968
870.06	21797
870.19	22097
870.32	22154
870.45	22135
870.58	22059
870.71	22325
870.84	22295
870.97	22143
871.1	22147
871.23	22325
871.36	22337
871.489	22280
871.619	22333
871.749	22363
871.879	22402
872.008	22493
872.138	22329
872.267	22329
872.397	22219
872.526	22272
872.656	22200
872.785	22246
872.915	22398
873.044	22382
873.173	22322
873.303	22489
873.432	22451
873.561	22459
873.69	22409
873.819	22295
873.948	22565
874.077	22379
874.206	22341
874.335	22390
874.464	22455
874.593	22596
874.722	22645
874.851	22577
874.979	22557
875.108	22603
875.237	22554
875.365	22535
875.494	22493
875.623	22489
875.751	22584
875.88	22577
876.008	22634
876.136	22763
876.265	22984
876.393	23006
876.521	23041
876.65	23052
876.778	23010
876.906	22820
877.034	22889
877.162	22740
877.29	22866
877.418	22968
877.546	22957
877.674	22820
877.802	22854
877.93	22965
878.058	22759
878.185	22744
878.313	22949
878.441	23010
878.568	22771
878.696	22828
878.824	22946
878.951	23029
879.079	23102
879.206	23220
879.333	23155
879.461	23018
879.588	23071
879.715	23174
879.842	23227
879.97	23018
880.097	22873
880.224	22782
880.351	22717
880.478	22736
880.605	22748
880.732	22771
880.859	23022
880.986	22683
881.112	22801
881.239	22618
881.366	22474
881.493	22371
881.619	22318
881.746	22413
881.872	22322
881.999	22306
882.125	22230
882.252	22306
882.378	22314
882.505	22394
882.631	22147
882.757	22017
882.883	22131
883.01	22063
883.136	22040
883.262	21880
883.388	21895
883.514	21915
883.64	22067
883.766	21880
883.892	21755
884.018	21713
884.143	22002
884.269	21979
884.395	21698
884.52	21644
884.646	21614
884.772	21553
884.897	21648
885.023	21637
885.148	21648
885.274	21876
885.399	21842
885.524	21698
885.65	21747
885.775	21637
885.9	21561
886.025	21762
886.15	21789
886.275	21663
886.4	21667
886.525	21652
886.65	21599
886.775	21561
886.9	21732
887.025	21778
887.149	21690
887.274	21507
887.399	21344
887.523	21439
887.648	21370
887.773	21245
887.897	21447
888.021	21519
888.146	21367
888.27	21431
888.395	21519
888.519	21325
888.643	21291
888.767	21389
888.891	21264
889.015	21203
889.139	21344
889.263	21275
889.387	21378
889.511	21458
889.635	21294
889.759	21237
889.883	21096
890.006	21230
890.13	21207
890.254	21165
890.377	21058
890.501	20937
890.624	20937
890.748	21043
890.871	20849
890.995	20792
891.118	20712
891.241	20754
891.364	20800
891.488	20792
891.611	20910
891.734	20670
891.857	20834
891.98	20781
892.103	20842
892.226	20800
892.349	20735
892.471	20556
892.594	20735
892.717	20689
892.839	20575
892.962	20807
893.085	20739
893.207	20609
893.33	20613
893.452	20571
893.575	20636
893.697	20579
893.819	20800
893.941	20853
894.064	20838
894.186	20617
894.308	20655
894.43	20785
894.552	20686
894.674	20682
894.796	20594
894.918	20545
895.04	20701
895.161	20686
895.283	20754
895.405	20575
895.526	20609
895.648	20598
895.769	20727
895.891	20712
896.012	20701
896.134	20689
896.255	20583
896.376	20674
896.498	20617
896.619	20568
896.74	20518
896.861	20686
896.982	21058
897.103	21116
897.224	20967
897.345	20861
897.466	20868
897.587	20796
897.708	21070
897.828	20975
897.949	20762
898.07	20693
898.19	20777
898.311	20921
898.431	20785
898.552	20887
898.672	20857
898.792	20998
898.913	20956
899.033	20731
899.153	20590
899.273	20609
899.393	20613
899.513	20571
899.633	20648
899.753	20621
899.873	20549
899.993	20625
900.113	20495
900.232	20541
900.352	20545
900.472	20385
900.591	20290
900.711	20381
900.83	20374
900.95	20400
901.069	20587
901.189	20351
901.308	20081
901.427	19887
901.546	19883
901.665	19940
901.784	19902
901.904	19772
902.023	19696
902.141	19559
902.26	19499
902.379	19594
902.498	19472
902.617	19434
902.735	19472
902.854	19468
902.973	19339
903.091	19228
903.21	19046
903.328	19141
903.446	18947
903.565	18795
903.683	18875
903.801	18814
903.919	18875
904.038	18833
904.156	18734
904.274	18833
904.392	18741
904.51	18703
904.627	18639
904.745	18734
904.863	18707
904.981	18448
905.098	18467
905.216	18403
905.334	18414
905.451	18338
905.569	18304
905.686	18460
905.803	18361
905.921	18095
906.038	18235
906.155	18171
906.272	18072
906.389	18079
906.506	17958
906.623	17882
906.74	17874
906.857	17794
906.974	17779
907.091	17840
907.208	18019
907.324	17912
907.441	17805
907.557	17638
907.674	17718
907.79	17608
907.907	17547
908.023	17608
908.139	17623
908.256	17672
908.372	17512
908.488	17433
908.604	17360
908.72	17353
908.836	17311
908.952	17303
909.068	17307
909.184	17455
909.3	17337
909.415	17345
909.531	17322
909.647	16953
909.762	16987
909.878	17041
909.993	17086
910.108	17064
910.224	16839
910.339	17048
910.454	16854
910.57	16835
910.685	16672
910.8	16961
910.915	16995
911.03	16816
911.145	16637
911.259	16535
911.374	16573
911.489	16573
911.604	16443
911.718	16325
911.833	16329
911.947	16219
912.062	16200
912.176	16299
912.291	16238
912.405	16329
912.519	16554
912.633	16523
912.748	16322
912.862	16367
912.976	16196
913.09	15979
913.204	16097
913.318	16158
913.431	16181
913.545	16207
913.659	16207
913.772	16105
913.886	16006
914	15903
914.113	15994
914.226	16055
914.34	16051
914.453	15724
914.566	15911
914.68	15785
914.793	15701
914.906	15717
915.019	15644
915.132	15416
915.245	15568
915.358	15614
915.47	15393
915.583	15443
915.696	15545
915.809	15705
915.921	15660
916.034	15450
916.146	15523
916.259	15454
916.371	15450
916.483	15443
916.595	15386
916.708	15408
916.82	15310
916.932	15272
917.044	15283
917.156	15245
917.268	15142
917.38	15176
917.491	15127
917.603	15157
917.715	15256
917.826	15207
917.938	15020
918.049	15009
918.161	15077
918.272	15245
918.384	15310
918.495	15001
918.606	14929
918.717	14845
918.828	14933
918.939	14918
919.05	14743
919.161	14914
919.272	14678
919.383	14788
919.494	14902
919.604	15074
919.715	14956
919.826	14735
919.936	14819
920.047	15009
920.157	14857
920.267	15074
920.378	14872
920.488	14990
920.598	15017
920.708	15195
920.818	14960
920.928	14963
921.038	15161
921.148	15070
921.258	14746
921.368	14648
921.477	14598
921.587	14606
921.697	14465
921.806	14678
921.916	14514
922.025	14377
922.134	14145
922.244	14107
922.353	14301
922.462	14130
922.571	14096
922.68	13917
922.789	13856
922.898	13993
923.007	13875
923.116	13818
923.224	13837
923.333	13887
923.442	13769
923.55	13704
923.659	13685
923.767	13750
923.876	13647
923.984	13647
924.092	13548
924.201	13639
924.309	13651
924.417	13666
924.525	13567
924.633	13502
924.741	14267
924.849	13354
924.956	13510
925.064	13343
925.172	13225
925.279	13282
925.387	13362
925.494	13293
925.602	13396
925.709	13274
925.816	13183
925.924	13187
926.031	13350
926.138	13225
926.245	13251
926.352	13137
926.459	13244
926.566	13320
926.673	13171
926.779	12977
926.886	12985
926.993	12779
927.099	12894
927.206	12772
927.312	12795
927.419	12844
927.525	12738
927.631	12821
927.737	12741
927.843	12639
927.95	12563
928.056	12650
928.162	12627
928.267	12688
928.373	13320
928.479	12696
928.585	12498
928.69	12589
928.796	12585
928.901	12486
929.007	12273
929.112	12483
929.218	12471
929.323	12410
929.428	12289
929.533	12502
929.638	12251
929.743	12388
929.848	12353
929.953	12308
930.058	12209
930.163	12034
930.267	12030
930.372	12110
930.477	12019
930.581	12254
930.685	12060
930.79	11912
930.894	11988
930.998	11878
931.103	12060
931.207	11691
931.311	11619
931.415	11425
931.519	11368
931.623	11356
