Data from test_V78500241_1217.txt Node
Date: Fri Mar 25 15:18:19 CST 2022
User: usil
Spectrometer: V785-0024
Trigger mode: 0
Integration Time (sec): 4.000000E-1
Scans to average: 1
Nonlinearity correction enabled: false
Boxcar width: 0
Storing dark spectrum: false
XAxis mode: Wavelengths
Number of Pixels in Spectrum: 1024
>>>>>Begin Spectral Data<<<<<
801.071	28272
801.214	28154
801.356	28029
801.499	27873
801.641	27816
801.783	27614
801.926	27720
802.068	27705
802.211	27622
802.353	27595
802.496	27523
802.638	27515
802.78	27439
802.923	27359
803.065	27374
803.208	27298
803.35	27389
803.492	27469
803.635	27473
803.777	27523
803.919	27622
804.061	27899
804.204	27736
804.346	27732
804.488	27511
804.63	27652
804.773	27515
804.915	27876
805.057	27728
805.199	27603
805.341	27781
805.483	27774
805.626	27865
805.768	27686
805.91	27663
806.052	27797
806.194	27679
806.336	27960
806.478	27823
806.62	27762
806.762	27930
806.904	28124
807.046	28344
807.188	28284
807.33	28162
807.472	28421
807.614	28051
807.756	28265
807.898	28036
808.04	27941
808.182	28040
808.324	28090
808.465	28109
808.607	28200
808.749	28497
808.891	28504
809.033	28573
809.174	28500
809.316	28432
809.458	28443
809.6	28470
809.741	28531
809.883	28588
810.025	28672
810.166	28577
810.308	28694
810.45	28611
810.591	28596
810.733	28554
810.875	28470
811.016	28280
811.158	28329
811.299	28512
811.441	28580
811.582	28485
811.724	28493
811.865	28440
812.007	28348
812.148	28573
812.29	28493
812.431	28519
812.573	28710
812.714	28892
812.855	28987
812.997	29033
813.138	29197
813.279	29185
813.421	28957
813.562	28972
813.703	28812
813.845	28569
813.986	28561
814.127	28344
814.268	28177
814.41	28166
814.551	28093
814.692	28268
814.833	28048
814.974	28135
815.115	28200
815.256	27914
815.397	27930
815.539	27994
815.68	27956
815.821	28048
815.962	28120
816.103	27926
816.244	27819
816.385	27797
816.526	27781
816.666	27591
816.807	27408
816.948	27408
817.089	27603
817.23	27629
817.371	27481
817.512	27416
817.653	27374
817.793	27389
817.934	27481
818.075	27386
818.216	27443
818.356	27332
818.497	27427
818.638	27241
818.778	27192
818.919	27226
819.06	27363
819.2	27370
819.341	27431
819.481	27557
819.622	27583
819.762	27751
819.903	27690
820.043	27709
820.184	27675
820.324	27663
820.465	27542
820.605	27591
820.746	27557
820.886	27511
821.026	27515
821.167	27622
821.307	27641
821.447	27443
821.588	27447
821.728	27173
821.868	27116
822.008	26826
822.149	27146
822.289	26735
822.429	26762
822.569	26530
822.709	26629
822.849	26495
822.99	26408
823.13	26537
823.27	26336
823.41	26172
823.55	26275
823.69	26225
823.83	26404
823.97	26240
824.11	26062
824.25	26145
824.389	26031
824.529	26267
824.669	26172
824.809	26225
824.949	26244
825.089	26103
825.228	26176
825.368	25852
825.508	25966
825.648	26058
825.787	26088
825.927	26077
826.067	26024
826.206	25963
826.346	26024
826.485	26142
826.625	26016
826.765	26043
826.904	26069
827.044	25803
827.183	25765
827.323	25559
827.462	25772
827.601	25715
827.741	25704
827.88	25685
828.02	25529
828.159	25704
828.298	25753
828.437	25750
828.577	25605
828.716	25883
828.855	25552
828.994	25434
829.134	25430
829.273	25358
829.412	25388
829.551	25316
829.69	25411
829.829	25415
829.968	25392
830.107	25502
830.246	25396
830.385	25217
830.524	25384
830.663	25206
830.802	25103
830.941	25004
831.08	24901
831.219	25217
831.357	25084
831.496	25247
831.635	25023
831.774	24916
831.913	24958
832.051	24973
832.19	24916
832.329	24894
832.467	24726
832.606	24612
832.744	24582
832.883	24730
833.022	24817
833.16	24734
833.299	24760
833.437	24875
833.576	24840
833.714	24837
833.852	24814
833.991	24837
834.129	24856
834.267	24711
834.406	24760
834.544	24844
834.682	24821
834.821	24711
834.959	24878
835.097	24738
835.235	24730
835.373	24745
835.511	24692
835.65	24601
835.788	24582
835.926	24536
836.064	24376
836.202	24391
836.34	24566
836.478	24635
836.615	24646
836.753	24677
836.891	24711
837.029	24589
837.167	24646
837.305	24486
837.443	24350
837.58	24429
837.718	24452
837.856	24369
837.993	24353
838.131	24467
838.269	24224
838.406	24422
838.544	24281
838.681	24083
838.819	23984
838.956	23961
839.094	23996
839.231	23977
839.369	24178
839.506	24342
839.643	24163
839.781	23999
839.918	23927
840.055	23764
840.193	23878
840.33	23904
840.467	23874
840.604	23866
840.742	24064
840.879	23726
841.016	23676
841.153	23577
841.29	23992
841.427	23794
841.564	23847
841.701	23893
841.838	23764
841.975	23775
842.112	23707
842.249	23604
842.385	23642
842.522	23748
842.659	23680
842.796	23566
842.933	23665
843.069	23665
843.206	23482
843.343	23733
843.479	23627
843.616	23589
843.752	23349
843.889	23478
844.025	23482
844.162	23440
844.298	23486
844.435	23307
844.571	23269
844.708	23482
844.844	23630
844.98	23490
845.117	23490
845.253	23341
845.389	23258
845.525	23265
845.661	23307
845.798	23075
845.934	23235
846.07	23121
846.206	23113
846.342	23277
846.478	23132
846.614	22869
846.75	22744
846.886	22793
847.022	22843
847.158	22889
847.294	22774
847.429	22999
847.565	22896
847.701	23079
847.837	22622
847.972	22519
848.108	22607
848.244	22580
848.379	22542
848.515	22531
848.65	22451
848.786	22474
848.921	22424
849.057	22546
849.192	22527
849.328	22504
849.463	22276
849.598	22451
849.734	22360
849.869	22234
850.004	22124
850.14	22181
850.275	22268
850.41	22158
850.545	22051
850.68	22268
850.815	22181
850.95	22200
851.085	22363
851.22	22204
851.355	22169
851.49	22211
851.625	22067
851.76	22303
851.895	22158
852.03	22067
852.165	22029
852.299	22287
852.434	22196
852.569	22196
852.703	22234
852.838	22363
852.973	22265
853.107	22280
853.242	22078
853.376	22101
853.511	21949
853.645	21857
853.78	22215
853.914	22025
854.048	21861
854.183	22082
854.317	21998
854.451	22230
854.585	22029
854.72	22051
854.854	22200
854.988	22059
855.122	22101
855.256	21804
855.39	21945
855.524	21968
855.658	22032
855.792	21964
855.926	22078
856.06	21964
856.194	22265
856.327	22010
856.461	21827
856.595	21869
856.729	21956
856.862	22063
856.996	22097
857.13	22120
857.263	22242
857.397	22204
857.53	22013
857.664	21998
857.797	22135
857.931	22147
858.064	21983
858.197	22101
858.331	21979
858.464	21854
858.597	21964
858.731	22017
858.864	22010
858.997	22078
859.13	22044
859.263	22135
859.396	22124
859.529	21941
859.662	21956
859.795	21953
859.928	22070
860.061	22166
860.194	22048
860.327	22116
860.46	21983
860.592	22051
860.725	22230
860.858	22147
860.99	21911
861.123	21816
861.256	21953
861.388	22010
861.521	22782
861.653	21918
861.786	21861
861.918	21835
862.05	21892
862.183	21918
862.315	21949
862.447	22082
862.58	21949
862.712	21686
862.844	21671
862.976	21854
863.108	21884
863.24	22093
863.372	21732
863.504	21652
863.636	21812
863.768	21842
863.9	21675
864.032	21724
864.164	21838
864.296	21804
864.428	21755
864.559	21797
864.691	21778
864.823	21812
864.954	21644
865.086	21629
865.217	21572
865.349	21462
865.48	21618
865.612	21644
865.743	21747
865.875	21660
866.006	21610
866.137	21599
866.269	21606
866.4	21496
866.531	21583
866.662	21450
866.793	21424
866.924	21583
867.055	21557
867.186	21576
867.317	21443
867.448	21359
867.579	21469
867.71	21439
867.841	21412
867.972	21473
868.103	21466
868.233	21526
868.364	21557
868.495	21625
868.625	21873
868.756	21831
868.886	21865
869.017	21724
869.147	21850
869.278	21911
869.408	21671
869.539	21606
869.669	21816
869.799	21880
869.929	21797
870.06	21865
870.19	22006
870.32	21930
870.45	22166
870.58	22116
870.71	22276
870.84	22265
870.97	22101
871.1	22173
871.23	22333
871.36	22272
871.489	22207
871.619	22211
871.749	22226
871.879	22428
872.008	22489
872.138	22417
872.267	22303
872.397	22207
872.526	22261
872.656	22120
872.785	22188
872.915	22417
873.044	22478
873.173	22379
873.303	22466
873.432	22432
873.561	22421
873.69	22390
873.819	22375
873.948	22451
874.077	22493
874.206	22306
874.335	22405
874.464	22504
874.593	22573
874.722	22630
874.851	22710
874.979	22622
875.108	22672
875.237	22561
875.365	22516
875.494	22519
875.623	22683
875.751	22546
875.88	22588
876.008	22622
876.136	22767
876.265	22904
876.393	23113
876.521	23003
876.65	23109
876.778	23025
876.906	22984
877.034	22831
877.162	22961
877.29	23022
877.418	22892
877.546	22976
877.674	22961
877.802	22908
877.93	22930
878.058	22957
878.185	22706
878.313	22976
878.441	22862
878.568	22866
878.696	22869
878.824	23113
878.951	22961
879.079	23109
879.206	23231
879.333	23102
879.461	22968
879.588	23098
879.715	23113
879.842	23071
879.97	22976
880.097	22896
880.224	22752
880.351	22733
880.478	22706
880.605	22755
880.732	22752
880.859	23037
880.986	22752
881.112	22675
881.239	22626
881.366	22554
881.493	22371
881.619	22303
881.746	22352
881.872	22223
881.999	22299
882.125	22291
882.252	22337
882.378	22249
882.505	22303
882.631	22120
882.757	21945
882.883	22116
883.01	22044
883.136	22055
883.262	21941
883.388	21789
883.514	22036
883.64	22025
883.766	21911
883.892	21804
884.018	21797
884.143	21838
884.269	22025
884.395	21720
884.52	21610
884.646	21637
884.772	21553
884.897	21576
885.023	21572
885.148	21682
885.274	21854
885.399	21797
885.524	21667
885.65	21679
885.775	21648
885.9	21660
886.025	21709
886.15	21698
886.275	21667
886.4	21618
886.525	21671
886.65	21603
886.775	21526
886.9	21816
887.025	21854
887.149	21549
887.274	21450
887.399	21382
887.523	21443
887.648	21408
887.773	21310
887.897	21485
888.021	21481
888.146	21401
888.27	21530
888.395	21530
888.519	21477
888.643	21458
888.767	21477
888.891	21336
889.015	21329
889.139	21260
889.263	21192
889.387	21329
889.511	21329
889.635	21367
889.759	21157
889.883	21135
890.006	21169
890.13	21268
890.254	21055
890.377	21100
890.501	21055
890.624	20902
890.748	21032
890.871	20804
890.995	20693
891.118	20705
891.241	20777
891.364	20792
891.488	20845
891.611	20811
891.734	20792
891.857	20746
891.98	20876
892.103	20800
892.226	20735
892.349	20594
892.471	20575
892.594	20564
892.717	20625
892.839	20598
892.962	20670
893.085	20674
893.207	20640
893.33	20415
893.452	20575
893.575	20682
893.697	20629
893.819	20842
893.941	20876
894.064	20823
894.186	20621
894.308	20682
894.43	20731
894.552	20762
894.674	20686
894.796	20473
894.918	20587
895.04	20625
895.161	20750
895.283	20743
895.405	20587
895.526	20575
895.648	20606
895.769	20632
895.891	20667
896.012	20731
896.134	20712
896.255	20689
896.376	20606
896.498	20514
896.619	20678
896.74	20731
896.861	20762
896.982	20960
897.103	21100
897.224	20857
897.345	20891
897.466	20758
897.587	20811
897.708	20921
897.828	20857
897.949	20811
898.07	20773
898.19	20727
898.311	20834
898.431	20788
898.552	20750
898.672	20887
898.792	20910
898.913	20796
899.033	20674
899.153	20735
899.273	20412
899.393	20594
899.513	20598
899.633	20526
899.753	20556
899.873	20488
899.993	20655
900.113	20575
900.232	20590
900.352	20507
900.472	20290
900.591	20370
900.711	20355
900.83	20343
900.95	20301
901.069	20396
901.189	20176
901.308	19978
901.427	19993
901.546	20016
901.665	19909
901.784	19936
901.904	19731
902.023	19605
902.141	19548
902.26	19476
902.379	19521
902.498	19419
902.617	19396
902.735	19544
902.854	19430
902.973	19282
903.091	19027
903.21	19095
903.328	19095
903.446	19015
903.565	18829
903.683	18890
903.801	18798
903.919	18840
904.038	18806
904.156	18745
904.274	18776
904.392	18620
904.51	18589
904.627	18578
904.745	18608
904.863	18673
904.981	18490
905.098	18361
905.216	18289
905.334	18247
905.451	18372
905.569	18220
905.686	18243
905.803	18365
905.921	18095
906.038	18251
906.155	18026
906.272	18007
906.389	17923
906.506	17923
906.623	17878
906.74	17836
906.857	17775
906.974	17687
907.091	17882
907.208	18053
907.324	17863
907.441	17908
907.557	17577
907.674	17482
907.79	17471
907.907	17562
908.023	17703
908.139	17638
908.256	17600
908.372	17474
908.488	17539
908.604	17341
908.72	17242
908.836	17242
908.952	17330
909.068	17284
909.184	17391
909.3	17242
909.415	17322
909.531	17349
909.647	16957
909.762	17071
909.878	17075
909.993	17048
910.108	16911
910.224	16946
910.339	16961
910.454	16816
910.57	16862
910.685	16683
910.8	16930
910.915	16957
911.03	16915
911.145	16603
911.259	16656
911.374	16698
911.489	16489
911.604	16447
911.718	16322
911.833	16314
911.947	16200
912.062	16158
912.176	16379
912.291	16219
912.405	16337
912.519	16428
912.633	16523
912.748	16371
912.862	16303
912.976	16128
913.09	16029
913.204	16078
913.318	16112
913.431	16306
913.545	16223
913.659	16181
913.772	16032
913.886	15895
914	15972
914.113	15888
914.226	16029
914.34	16010
914.453	15808
914.566	15812
914.68	15865
914.793	15778
914.906	15580
915.019	15428
915.132	15500
915.245	15481
915.358	15576
915.47	15496
915.583	15568
915.696	15538
915.809	15576
915.921	15526
916.034	15462
916.146	15363
916.259	15355
916.371	15473
916.483	15447
916.595	15203
916.708	15340
916.82	15241
916.932	15310
917.044	15344
917.156	15268
917.268	15192
917.38	15142
917.491	15116
917.603	15173
917.715	15211
917.826	15249
917.938	15116
918.049	15070
918.161	15070
918.272	15294
918.384	15116
918.495	15058
918.606	14872
918.717	14880
918.828	15028
918.939	14880
919.05	14849
919.161	14807
919.272	14796
919.383	14769
919.494	14971
919.604	15093
919.715	14815
919.826	14762
919.936	14834
920.047	14960
920.157	14811
920.267	15032
920.378	14876
920.488	14781
920.598	14982
920.708	15146
920.818	15001
920.928	14944
921.038	15116
921.148	15119
921.258	14785
921.368	14754
921.477	14575
921.587	14648
921.697	14362
921.806	14617
921.916	14465
922.025	14294
922.134	14206
922.244	14275
922.353	14145
922.462	14012
922.571	14050
922.68	13883
922.789	13875
922.898	13932
923.007	13868
923.116	13909
923.224	13871
923.333	13852
923.442	13681
923.55	13605
923.659	13757
923.767	13715
923.876	13639
923.984	13689
924.092	13548
924.201	13670
924.309	13594
924.417	13563
924.525	13601
924.633	13510
924.741	14305
924.849	13297
924.956	13453
925.064	13244
925.172	13190
925.279	13266
925.387	13282
925.494	13232
925.602	13403
925.709	13289
925.816	13179
925.924	13209
926.031	13236
926.138	13179
926.245	13282
926.352	13118
926.459	13293
926.566	13266
926.673	13008
926.779	12928
926.886	12973
926.993	12802
927.099	12825
927.206	12833
927.312	12848
927.419	12791
927.525	12787
927.631	12821
927.737	12741
927.843	12703
927.95	12509
928.056	12692
928.162	12730
928.267	12639
928.373	13137
928.479	12749
928.585	12532
928.69	12574
928.796	12658
928.901	12467
929.007	12338
929.112	12460
929.218	12403
929.323	12334
929.428	12338
929.533	12426
929.638	12243
929.743	12399
929.848	12277
929.953	12292
930.058	12140
930.163	11980
930.267	12011
930.372	12182
930.477	12019
930.581	12167
930.685	12098
930.79	11840
930.894	11878
930.998	11897
931.103	12045
931.207	11680
931.311	11573
931.415	11581
931.519	11296
931.623	11387
