Data from test_V78500241_931.txt Node
Date: Fri Mar 25 15:16:20 CST 2022
User: usil
Spectrometer: V785-0024
Trigger mode: 0
Integration Time (sec): 4.000000E-1
Scans to average: 1
Nonlinearity correction enabled: false
Boxcar width: 0
Storing dark spectrum: false
XAxis mode: Wavelengths
Number of Pixels in Spectrum: 1024
>>>>>Begin Spectral Data<<<<<
801.071	28086
801.214	28010
801.356	27720
801.499	27603
801.641	27523
801.783	27576
801.926	27637
802.068	27511
802.211	27557
802.353	27291
802.496	27317
802.638	27089
802.78	27119
802.923	27142
803.065	27100
803.208	27241
803.35	27169
803.492	27256
803.635	27302
803.777	27279
803.919	27519
804.061	27660
804.204	27439
804.346	27329
804.488	27268
804.63	27469
804.773	27207
804.915	27340
805.057	27443
805.199	27332
805.341	27526
805.483	27614
805.626	27439
805.768	27447
805.91	27549
806.052	27622
806.194	27458
806.336	27641
806.478	27572
806.62	27561
806.762	27698
806.904	27797
807.046	27930
807.188	27991
807.33	27835
807.472	27979
807.614	27743
807.756	27842
807.898	27781
808.04	27800
808.182	27819
808.324	27755
808.465	27930
808.607	28059
808.749	28120
808.891	28204
809.033	28188
809.174	28257
809.316	28078
809.458	28329
809.6	28211
809.741	28276
809.883	28287
810.025	28569
810.166	28440
810.308	28527
810.45	28405
810.591	28348
810.733	28253
810.875	28303
811.016	28063
811.158	28070
811.299	28272
811.441	28337
811.582	28325
811.724	28162
811.865	28078
812.007	28063
812.148	28261
812.29	28211
812.431	28390
812.573	28565
812.714	28561
812.855	28831
812.997	28869
813.138	28892
813.279	28946
813.421	28736
813.562	28637
813.703	28516
813.845	28474
813.986	28128
814.127	28090
814.268	27842
814.41	27899
814.551	27762
814.692	27972
814.833	27793
814.974	27899
815.115	27819
815.256	27701
815.397	27766
815.539	27873
815.68	27835
815.821	27675
815.962	27728
816.103	27599
816.244	27538
816.385	27519
816.526	27462
816.666	27294
816.807	27195
816.948	27310
817.089	27294
817.23	27237
817.371	27260
817.512	27233
817.653	27256
817.793	27032
817.934	27173
818.075	27241
818.216	27279
818.356	27165
818.497	27085
818.638	26910
818.778	26998
818.919	27001
819.06	26963
819.2	27055
819.341	27287
819.481	27207
819.622	27237
819.762	27580
819.903	27405
820.043	27298
820.184	27203
820.324	27283
820.465	27252
820.605	27291
820.746	27256
820.886	27367
821.026	27226
821.167	27089
821.307	27249
821.447	27184
821.588	27009
821.728	27146
821.868	26815
822.008	26716
822.149	26678
822.289	26765
822.429	26400
822.569	26336
822.709	26362
822.849	26134
822.99	26187
823.13	26214
823.27	26122
823.41	26103
823.55	25970
823.69	26122
823.83	26145
823.97	26005
824.11	25734
824.25	25879
824.389	25788
824.529	26054
824.669	25871
824.809	25879
824.949	25917
825.089	25902
825.228	25925
825.368	25704
825.508	25826
825.648	25734
825.787	25864
825.927	25894
826.067	25693
826.206	25738
826.346	25849
826.485	25841
826.625	25674
826.765	25700
826.904	25731
827.044	25635
827.183	25582
827.323	25419
827.462	25388
827.601	25521
827.741	25369
827.88	25567
828.02	25327
828.159	25476
828.298	25502
828.437	25525
828.577	25407
828.716	25438
828.855	25403
828.994	25080
829.134	25187
829.273	25183
829.412	25148
829.551	25171
829.69	25152
829.829	25152
829.968	25183
830.107	25221
830.246	25217
830.385	25103
830.524	24966
830.663	24924
830.802	24935
830.941	24795
831.08	24798
831.219	24954
831.357	24825
831.496	24996
831.635	24738
831.774	24623
831.913	24578
832.051	24536
832.19	24585
832.329	24612
832.467	24555
832.606	24498
832.744	24395
832.883	24517
833.022	24456
833.16	24460
833.299	24505
833.437	24574
833.576	24669
833.714	24601
833.852	24608
833.991	24448
834.129	24582
834.267	24517
834.406	24460
834.544	24597
834.682	24521
834.821	24566
834.959	24776
835.097	24456
835.235	24551
835.373	24448
835.511	24483
835.65	24426
835.788	24410
835.926	24273
836.064	24114
836.202	24102
836.34	24327
836.478	24433
836.615	24353
836.753	24277
836.891	24498
837.029	24311
837.167	24281
837.305	24167
837.443	24243
837.58	24159
837.718	24251
837.856	24209
837.993	24102
838.131	24300
838.269	24068
838.406	23977
838.544	24007
838.681	23802
838.819	23809
838.956	23558
839.094	23710
839.231	23802
839.369	23889
839.506	24095
839.643	23954
839.781	23608
839.918	23539
840.055	23566
840.193	23600
840.33	23665
840.467	23558
840.604	23619
840.742	23843
840.879	23395
841.016	23474
841.153	23471
841.29	23646
841.427	23554
841.564	23535
841.701	23543
841.838	23547
841.975	23478
842.112	23520
842.249	23395
842.385	23398
842.522	23444
842.659	23292
842.796	23311
842.933	23433
843.069	23124
843.206	23341
843.343	23322
843.479	23277
843.616	23284
843.752	23117
843.889	23094
844.025	23109
844.162	23189
844.298	23159
844.435	23067
844.571	23067
844.708	23102
844.844	23246
844.98	23151
845.117	23155
845.253	23067
845.389	22889
845.525	23041
845.661	22942
845.798	22839
845.934	22881
846.07	22976
846.206	22763
846.342	22847
846.478	22839
846.614	22592
846.75	22462
846.886	22580
847.022	22588
847.158	22645
847.294	22550
847.429	22618
847.565	22531
847.701	22820
847.837	22303
847.972	22207
848.108	22295
848.244	22341
848.379	22192
848.515	22147
848.65	22223
848.786	22143
848.921	22207
849.057	22287
849.192	22249
849.328	22249
849.463	22215
849.598	22188
849.734	22025
849.869	21960
850.004	21945
850.14	21922
850.275	21956
850.41	21975
850.545	21956
850.68	21972
850.815	21911
850.95	21983
851.085	22013
851.22	22036
851.355	21876
851.49	22070
851.625	21922
851.76	21854
851.895	21846
852.03	21835
852.165	21892
852.299	21895
852.434	21937
852.569	21918
852.703	21941
852.838	22032
852.973	22074
853.107	22059
853.242	21797
853.376	21800
853.511	21458
853.645	21797
853.78	21690
853.914	21800
854.048	21770
854.183	21759
854.317	21694
854.451	21949
854.585	21778
854.72	21705
854.854	21838
854.988	21701
855.122	21679
855.256	21515
855.39	21652
855.524	21819
855.658	21736
855.792	21755
855.926	21698
856.06	21899
856.194	21770
856.327	21759
856.461	21720
856.595	21648
856.729	21625
856.862	21823
856.996	21682
857.13	21816
857.263	21823
857.397	21827
857.53	21606
857.664	21869
857.797	21800
857.931	21903
858.064	21857
858.197	21831
858.331	21747
858.464	21625
858.597	21530
858.731	21759
858.864	21717
858.997	21751
859.13	21656
859.263	21606
859.396	21778
859.529	21614
859.662	21568
859.795	21652
859.928	21827
860.061	21903
860.194	21953
860.327	21812
860.46	21785
860.592	21911
860.725	21903
860.858	21709
860.99	21682
861.123	21736
861.256	21755
861.388	21751
861.521	22360
861.653	21675
861.786	21538
861.918	21561
862.05	21603
862.183	21774
862.315	21686
862.447	21701
862.58	21599
862.712	21511
862.844	21401
862.976	21576
863.108	21523
863.24	21880
863.372	21431
863.504	21473
863.636	21363
863.768	21545
863.9	21431
864.032	21401
864.164	21466
864.296	21447
864.428	21538
864.559	21477
864.691	21511
864.823	21469
864.954	21496
865.086	21405
865.217	21431
865.349	21245
865.48	21439
865.612	21306
865.743	21557
865.875	21332
866.006	21287
866.137	21272
866.269	21408
866.4	21336
866.531	21237
866.662	21378
866.793	21214
866.924	21165
867.055	21310
867.186	21291
867.317	21291
867.448	21260
867.579	21291
867.71	21230
867.841	21074
867.972	21199
868.103	21237
868.233	21264
868.364	21195
868.495	21230
868.625	21561
868.756	21633
868.886	21397
869.017	21382
869.147	21424
869.278	21606
869.408	21481
869.539	21450
869.669	21545
869.799	21606
869.929	21538
870.06	21648
870.19	21728
870.32	21679
870.45	21789
870.58	21964
870.71	21964
870.84	21854
870.97	22032
871.1	21941
871.23	22109
871.36	22055
871.489	21953
871.619	22051
871.749	22147
871.879	22040
872.008	22284
872.138	22070
872.267	22044
872.397	21873
872.526	21956
872.656	21949
872.785	21930
872.915	22181
873.044	22192
873.173	22147
873.303	22116
873.432	22169
873.561	22223
873.69	22147
873.819	22181
873.948	22238
874.077	22181
874.206	22032
874.335	22215
874.464	22226
874.593	22318
874.722	22299
874.851	22379
874.979	22303
875.108	22470
875.237	22337
875.365	22211
875.494	22268
875.623	22409
875.751	22265
875.88	22299
876.008	22360
876.136	22443
876.265	22653
876.393	22831
876.521	22759
876.65	22828
876.778	22645
876.906	22649
877.034	22637
877.162	22622
877.29	22675
877.418	22596
877.546	22653
877.674	22774
877.802	22687
877.93	22626
878.058	22672
878.185	22656
878.313	22557
878.441	22691
878.568	22683
878.696	22615
878.824	22721
878.951	22755
879.079	22866
879.206	22938
879.333	22812
879.461	22755
879.588	22729
879.715	22843
879.842	22892
879.97	22771
880.097	22508
880.224	22481
880.351	22451
880.478	22516
880.605	22573
880.732	22546
880.859	22721
880.986	22447
881.112	22409
881.239	22329
881.366	22192
881.493	22135
881.619	22063
881.746	22017
881.872	22067
881.999	21975
882.125	21956
882.252	22036
882.378	22070
882.505	22162
882.631	21857
882.757	21819
882.883	21903
883.01	21850
883.136	21675
883.262	21526
883.388	21785
883.514	21713
883.64	21816
883.766	21625
883.892	21606
884.018	21458
884.143	21606
884.269	21797
884.395	21454
884.52	21344
884.646	21424
884.772	21325
884.897	21252
885.023	21344
885.148	21496
885.274	21481
885.399	21454
885.524	21420
885.65	21363
885.775	21443
885.9	21370
886.025	21481
886.15	21485
886.275	21454
886.4	21294
886.525	21332
886.65	21329
886.775	21275
886.9	21519
887.025	21644
887.149	21340
887.274	21211
887.399	21222
887.523	21226
887.648	21127
887.773	21070
887.897	21325
888.021	21157
888.146	21066
888.27	21230
888.395	21264
888.519	21081
888.643	21195
888.767	21146
888.891	20994
889.015	21135
889.139	20937
889.263	20990
889.387	21062
889.511	21112
889.635	21058
889.759	20876
889.883	20937
890.006	20982
890.13	20925
890.254	20845
890.377	20826
890.501	20708
890.624	20800
890.748	20754
890.871	20667
890.995	20488
891.118	20473
891.241	20549
891.364	20549
891.488	20758
891.611	20530
891.734	20522
891.857	20511
891.98	20590
892.103	20648
892.226	20594
892.349	20427
892.471	20320
892.594	20511
892.717	20465
892.839	20511
892.962	20412
893.085	20499
893.207	20412
893.33	20427
893.452	20339
893.575	20419
893.697	20412
893.819	20514
893.941	20564
894.064	20678
894.186	20240
894.308	20244
894.43	20415
894.552	20518
894.674	20408
894.796	20336
894.918	20404
895.04	20313
895.161	20522
895.283	20461
895.405	20362
895.526	20385
895.648	20301
895.769	20400
895.891	20438
896.012	20446
896.134	20438
896.255	20370
896.376	20347
896.498	20415
896.619	20488
896.74	20450
896.861	20446
896.982	20655
897.103	20914
897.224	20674
897.345	20583
897.466	20556
897.587	20636
897.708	20716
897.828	20587
897.949	20503
898.07	20374
898.19	20522
898.311	20648
898.431	20511
898.552	20629
898.672	20697
898.792	20678
898.913	20514
899.033	20533
899.153	20332
899.273	20290
899.393	20396
899.513	20374
899.633	20454
899.753	20358
899.873	20313
899.993	20347
900.113	20259
900.232	20282
900.352	20199
900.472	20259
900.591	20073
900.711	20119
900.83	20138
900.95	20259
901.069	20301
901.189	20046
901.308	19814
901.427	19651
901.546	19696
901.665	19772
901.784	19776
901.904	19620
902.023	19548
902.141	19293
902.26	19221
902.379	19255
902.498	19263
902.617	19122
902.735	19285
902.854	19228
902.973	19103
903.091	18913
903.21	18958
903.328	18924
903.446	18753
903.565	18787
903.683	18776
903.801	18646
903.919	18726
904.038	18650
904.156	18483
904.274	18566
904.392	18418
904.51	18448
904.627	18479
904.745	18471
904.863	18490
904.981	18213
905.098	18167
905.216	18136
905.334	18171
905.451	18136
905.569	18095
905.686	18178
905.803	18011
905.921	17927
906.038	18076
906.155	17912
906.272	17843
906.389	17847
906.506	17646
906.623	17665
906.74	17646
906.857	17478
906.974	17554
907.091	17779
907.208	17805
907.324	17589
907.441	17649
907.557	17360
907.674	17463
907.79	17353
907.907	17417
908.023	17417
908.139	17512
908.256	17273
908.372	17372
908.488	17292
908.604	17052
908.72	17071
908.836	16984
908.952	17090
909.068	17064
909.184	17140
909.3	16995
909.415	17140
909.531	17113
909.647	16949
909.762	16885
909.878	16778
909.993	16835
910.108	16831
910.224	16672
910.339	16748
910.454	16801
910.57	16577
910.685	16554
910.8	16812
910.915	16812
911.03	16554
911.145	16466
911.259	16363
911.374	16382
911.489	16310
911.604	16272
911.718	16093
911.833	16173
911.947	16086
912.062	15983
912.176	16071
912.291	16192
912.405	15998
912.519	16242
912.633	16352
912.748	16234
912.862	16105
912.976	16044
913.09	15747
913.204	15884
913.318	15953
913.431	15983
913.545	15998
913.659	16147
913.772	15880
913.886	15819
914	15694
914.113	15812
914.226	15819
914.34	15778
914.453	15622
914.566	15732
914.68	15633
914.793	15591
914.906	15420
915.019	15420
915.132	15268
915.245	15393
915.358	15374
915.47	15386
915.583	15313
915.696	15332
915.809	15340
915.921	15447
916.034	15287
916.146	15256
916.259	15279
916.371	15378
916.483	15203
916.595	15184
916.708	15195
916.82	15165
916.932	15127
917.044	15028
917.156	15081
917.268	14963
917.38	15123
917.491	14986
917.603	14960
917.715	15146
917.826	15066
917.938	14902
918.049	14769
918.161	14990
918.272	15039
918.384	15039
918.495	14929
918.606	14708
918.717	14625
918.828	14754
918.939	14720
919.05	14629
919.161	14777
919.272	14545
919.383	14549
919.494	14777
919.604	14842
919.715	14731
919.826	14629
919.936	14621
920.047	14754
920.157	14663
920.267	14823
920.378	14743
920.488	14705
920.598	14868
920.708	14982
920.818	14868
920.928	14842
921.038	15013
921.148	14880
921.258	14674
921.368	14640
921.477	14408
921.587	14282
921.697	14282
921.806	14377
921.916	14275
922.025	14062
922.134	14138
922.244	13951
922.353	14123
922.462	13951
922.571	13928
922.68	13715
922.789	13647
922.898	13765
923.007	13742
923.116	13700
923.224	13677
923.333	13651
923.442	13510
923.55	13521
923.659	13613
923.767	13491
923.876	13518
923.984	13529
924.092	13407
924.201	13518
924.309	13441
924.417	13506
924.525	13358
924.633	13407
924.741	14275
924.849	13129
924.956	13278
925.064	13133
925.172	12981
925.279	13126
925.387	13209
925.494	13133
925.602	13156
925.709	13072
925.816	13057
925.924	13023
926.031	13122
926.138	13057
926.245	13084
926.352	12901
926.459	13069
926.566	13080
926.673	12943
926.779	12886
926.886	12863
926.993	12688
927.099	12658
927.206	12665
927.312	12608
927.419	12681
927.525	12703
927.631	12627
927.737	12536
927.843	12456
927.95	12342
928.056	12452
928.162	12483
928.267	12521
928.373	13232
928.479	12559
928.585	12304
928.69	12452
928.796	12494
928.901	12365
929.007	12167
929.112	12319
929.218	12296
929.323	12209
929.428	12148
929.533	12334
929.638	12140
929.743	12152
929.848	12182
929.953	12175
930.058	12007
930.163	11908
930.267	11912
930.372	12057
930.477	11897
930.581	12110
930.685	11946
930.79	11726
930.894	11863
930.998	11771
931.103	11855
931.207	11573
931.311	11509
931.415	11296
931.519	11197
931.623	11212
