Data from test_V78500241_2832.txt Node
Date: Fri Mar 25 15:29:34 CST 2022
User: usil
Spectrometer: V785-0024
Trigger mode: 0
Integration Time (sec): 4.000000E-1
Scans to average: 1
Nonlinearity correction enabled: false
Boxcar width: 0
Storing dark spectrum: false
XAxis mode: Wavelengths
Number of Pixels in Spectrum: 1024
>>>>>Begin Spectral Data<<<<<
801.071	27313
801.214	27264
801.356	27062
801.499	26918
801.641	26899
801.783	26796
801.926	26830
802.068	26830
802.211	26708
802.353	26583
802.496	26583
802.638	26385
802.78	26507
802.923	26389
803.065	26237
803.208	26336
803.35	26400
803.492	26507
803.635	26716
803.777	26434
803.919	26625
804.061	26845
804.204	26651
804.346	26621
804.488	26488
804.63	26663
804.773	26453
804.915	26655
805.057	26663
805.199	26492
805.341	26621
805.483	26743
805.626	26640
805.768	26651
805.91	26686
806.052	26769
806.194	26545
806.336	26971
806.478	26598
806.62	26678
806.762	26785
806.904	27036
807.046	27211
807.188	27146
807.33	27154
807.472	27157
807.614	27127
807.756	27032
807.898	27135
808.04	26952
808.182	26918
808.324	27093
808.465	27005
808.607	27207
808.749	27359
808.891	27408
809.033	27378
809.174	27302
809.316	27310
809.458	27329
809.6	27283
809.741	27340
809.883	27397
810.025	27564
810.166	27545
810.308	27603
810.45	27454
810.591	27557
810.733	27294
810.875	27340
811.016	27138
811.158	27310
811.299	27370
811.441	27557
811.582	27431
811.724	27233
811.865	27264
812.007	27450
812.148	27176
812.29	27252
812.431	27443
812.573	27576
812.714	27743
812.855	27724
812.997	27907
813.138	27907
813.279	28002
813.421	27789
813.562	27713
813.703	27660
813.845	27427
813.986	27233
814.127	27085
814.268	26979
814.41	26998
814.551	27055
814.692	26963
814.833	26906
814.974	26952
815.115	27001
815.256	26842
815.397	26914
815.539	26838
815.68	26735
815.821	26781
815.962	26731
816.103	26678
816.244	26549
816.385	26499
816.526	26469
816.666	26366
816.807	26126
816.948	26374
817.089	26244
817.23	26240
817.371	26221
817.512	26199
817.653	26229
817.793	26035
817.934	26119
818.075	26126
818.216	26309
818.356	26225
818.497	26054
818.638	25970
818.778	25921
818.919	25966
819.06	26096
819.2	26168
819.341	26214
819.481	26161
819.622	26381
819.762	26480
819.903	26408
820.043	26358
820.184	26431
820.324	26317
820.465	26473
820.605	26298
820.746	26252
820.886	26107
821.026	26111
821.167	26180
821.307	26419
821.447	26138
821.588	26142
821.728	26005
821.868	25803
822.008	25769
822.149	25594
822.289	25685
822.429	25495
822.569	25343
822.709	25301
822.849	25225
822.99	25263
823.13	25297
823.27	25107
823.41	25015
823.55	24973
823.69	25084
823.83	24989
823.97	25065
824.11	24886
824.25	24688
824.389	24844
824.529	24863
824.669	24795
824.809	24875
824.949	24894
825.089	24985
825.228	24825
825.368	24601
825.508	24684
825.648	24669
825.787	24726
825.927	24707
826.067	24798
826.206	24707
826.346	24772
826.485	24582
826.625	24563
826.765	24882
826.904	24661
827.044	24471
827.183	24555
827.323	24372
827.462	24311
827.601	24296
827.741	24357
827.88	24357
828.02	24311
828.159	24155
828.298	24410
828.437	24509
828.577	24281
828.716	24532
828.855	24254
828.994	24178
829.134	24068
829.273	24182
829.412	24076
829.551	24106
829.69	24003
829.829	24178
829.968	24140
830.107	24091
830.246	24045
830.385	24064
830.524	23901
830.663	24022
830.802	23729
830.941	23600
831.08	23710
831.219	23813
831.357	23668
831.496	23889
831.635	23657
831.774	23524
831.913	23615
832.051	23543
832.19	23444
832.329	23512
832.467	23433
832.606	23311
832.744	23231
832.883	23349
833.022	23364
833.16	23322
833.299	23277
833.437	23459
833.576	23341
833.714	23414
833.852	23395
833.991	23372
834.129	23634
834.267	23600
834.406	23436
834.544	23353
834.682	23402
834.821	23391
834.959	23512
835.097	23474
835.235	23383
835.373	23379
835.511	23395
835.65	23311
835.788	23261
835.926	23086
836.064	22946
836.202	23124
836.34	23258
836.478	23258
836.615	23239
836.753	23246
836.891	23318
837.029	23296
837.167	23387
837.305	23227
837.443	23060
837.58	23033
837.718	23170
837.856	23185
837.993	23140
838.131	23018
838.269	22999
838.406	23003
838.544	22930
838.681	22843
838.819	22710
838.956	22512
839.094	22599
839.231	22653
839.369	22634
839.506	22919
839.643	22828
839.781	22500
839.918	22512
840.055	22504
840.193	22584
840.33	22500
840.467	22573
840.604	22645
840.742	22710
840.879	22344
841.016	22478
841.153	22497
841.29	22641
841.427	22538
841.564	22519
841.701	22500
841.838	22424
841.975	22371
842.112	22421
842.249	22325
842.385	22268
842.522	22394
842.659	22466
842.796	22223
842.933	22325
843.069	22257
843.206	22268
843.343	22360
843.479	22344
843.616	22341
843.752	22013
843.889	22128
844.025	22223
844.162	22112
844.298	22204
844.435	22032
844.571	21979
844.708	22070
844.844	22116
844.98	22150
845.117	22025
845.253	21899
845.389	21823
845.525	21975
845.661	21823
845.798	21838
845.934	21816
846.07	21606
846.206	21846
846.342	21831
846.478	21812
846.614	21557
846.75	21507
846.886	21473
847.022	21496
847.158	21507
847.294	21622
847.429	21523
847.565	21534
847.701	21686
847.837	21310
847.972	21294
848.108	21310
848.244	21252
848.379	21119
848.515	21096
848.65	21028
848.786	21150
848.921	21131
849.057	21294
849.192	21260
849.328	21188
849.463	21039
849.598	21100
849.734	21100
849.869	20948
850.004	20963
850.14	20895
850.275	20921
850.41	20804
850.545	20727
850.68	20872
850.815	20853
850.95	20731
851.085	21077
851.22	21096
851.355	20937
851.49	20823
851.625	20777
851.76	20921
851.895	20811
852.03	20788
852.165	20864
852.299	20830
852.434	20921
852.569	20925
852.703	20906
852.838	20830
852.973	20902
853.107	21070
853.242	20838
853.376	20636
853.511	20667
853.645	20735
853.78	20826
853.914	20693
854.048	20701
854.183	20678
854.317	20689
854.451	20849
854.585	20746
854.72	20754
854.854	20705
854.988	20495
855.122	20697
855.256	20564
855.39	20678
855.524	20693
855.658	20826
855.792	20701
855.926	20826
856.06	20933
856.194	20777
856.327	20514
856.461	20701
856.595	20697
856.729	20629
856.862	20727
856.996	20819
857.13	20823
857.263	20720
857.397	20765
857.53	20617
857.664	20716
857.797	20716
857.931	20807
858.064	20659
858.197	20849
858.331	20621
858.464	20632
858.597	20686
858.731	20708
858.864	20727
858.997	20659
859.13	20636
859.263	20606
859.396	20689
859.529	20640
859.662	20606
859.795	20621
859.928	20705
860.061	20910
860.194	20906
860.327	20636
860.46	20689
860.592	20785
860.725	20788
860.858	20815
860.99	20682
861.123	20648
861.256	20636
861.388	20617
861.521	21249
861.653	20682
861.786	20537
861.918	20545
862.05	20499
862.183	20583
862.315	20602
862.447	20708
862.58	20530
862.712	20419
862.844	20476
862.976	20454
863.108	20499
863.24	20872
863.372	20434
863.504	20313
863.636	20454
863.768	20442
863.9	20492
864.032	20389
864.164	20259
864.296	20518
864.428	20446
864.559	20465
864.691	20423
864.823	20461
864.954	20412
865.086	20434
865.217	20419
865.349	20248
865.48	20221
865.612	20351
865.743	20320
865.875	20324
866.006	20301
866.137	20294
866.269	20244
866.4	20237
866.531	20328
866.662	20161
866.793	20164
866.924	20221
867.055	20347
867.186	20259
867.317	20206
867.448	20195
867.579	20206
867.71	20050
867.841	20096
867.972	20286
868.103	20168
868.233	20309
868.364	20309
868.495	20240
868.625	20556
868.756	20663
868.886	20522
869.017	20434
869.147	20621
869.278	20629
869.408	20492
869.539	20590
869.669	20495
869.799	20556
869.929	20670
870.06	20545
870.19	20655
870.32	20785
870.45	20830
870.58	20800
870.71	21043
870.84	21017
870.97	20971
871.1	20857
871.23	20990
871.36	21013
871.489	21017
871.619	21013
871.749	21154
871.879	21173
872.008	21195
872.138	21195
872.267	21074
872.397	20990
872.526	20861
872.656	20971
872.785	20948
872.915	21150
873.044	21214
873.173	21195
873.303	21188
873.432	21104
873.561	21116
873.69	21165
873.819	21119
873.948	21302
874.077	21085
874.206	20975
874.335	21062
874.464	21028
874.593	21359
874.722	21329
874.851	21408
874.979	21416
875.108	21408
875.237	21359
875.365	21336
875.494	21302
875.623	21431
875.751	21435
875.88	21389
876.008	21401
876.136	21591
876.265	21781
876.393	21945
876.521	21823
876.65	21816
876.778	21850
876.906	21648
877.034	21698
877.162	21728
877.29	21648
877.418	21686
877.546	21759
877.674	21587
877.802	21663
877.93	21736
878.058	21564
878.185	21591
878.313	21698
878.441	21694
878.568	21462
878.696	21660
878.824	21808
878.951	21728
879.079	21937
879.206	21994
879.333	21812
879.461	21660
879.588	21739
879.715	21785
879.842	21983
879.97	21892
880.097	21572
880.224	21488
880.351	21492
880.478	21648
880.605	21447
880.732	21545
880.859	21759
880.986	21485
881.112	21538
881.239	21450
881.366	21268
881.493	21184
881.619	21131
881.746	21100
881.872	21188
881.999	21081
882.125	21058
882.252	21154
882.378	21093
882.505	21260
882.631	20906
882.757	20834
882.883	20826
883.01	20781
883.136	20746
883.262	20602
883.388	20579
883.514	20842
883.64	20906
883.766	20777
883.892	20636
884.018	20594
884.143	20830
884.269	20918
884.395	20583
884.52	20518
884.646	20511
884.772	20415
884.897	20450
885.023	20541
885.148	20560
885.274	20549
885.399	20594
885.524	20454
885.65	20320
885.775	20438
885.9	20492
886.025	20659
886.15	20545
886.275	20503
886.4	20286
886.525	20457
886.65	20343
886.775	20370
886.9	20602
887.025	20594
887.149	20492
887.274	20176
887.399	20290
887.523	20385
887.648	20172
887.773	20130
887.897	20336
888.021	20271
888.146	20225
888.27	20358
888.395	20172
888.519	20210
888.643	20309
888.767	20339
888.891	20100
889.015	20065
889.139	20168
889.263	20001
889.387	20206
889.511	20161
889.635	20206
889.759	19967
889.883	20107
890.006	20012
890.13	20202
890.254	19959
890.377	19978
890.501	19841
890.624	19643
890.748	19890
890.871	19765
890.995	19632
891.118	19578
891.241	19620
891.364	19666
891.488	19742
891.611	19696
891.734	19563
891.857	19734
891.98	19658
892.103	19700
892.226	19582
892.349	19609
892.471	19457
892.594	19712
892.717	19624
892.839	19537
892.962	19533
893.085	19723
893.207	19510
893.33	19480
893.452	19483
893.575	19651
893.697	19373
893.819	19597
893.941	19666
894.064	19658
894.186	19411
894.308	19510
894.43	19643
894.552	19723
894.674	19567
894.796	19460
894.918	19529
895.04	19438
895.161	19666
895.283	19655
895.405	19487
895.526	19563
895.648	19457
895.769	19529
895.891	19586
896.012	19628
896.134	19537
896.255	19613
896.376	19556
896.498	19613
896.619	19655
896.74	19655
896.861	19609
896.982	19849
897.103	20084
897.224	19742
897.345	19795
897.466	19700
897.587	19700
897.708	19879
897.828	19742
897.949	19803
898.07	19742
898.19	19708
898.311	19860
898.431	19788
898.552	19852
898.672	19765
898.792	19875
898.913	19780
899.033	19632
899.153	19696
899.273	19548
899.393	19643
899.513	19586
899.633	19586
899.753	19571
899.873	19392
899.993	19635
900.113	19537
900.232	19495
900.352	19453
900.472	19350
900.591	19304
900.711	19419
900.83	19263
900.95	19426
901.069	19396
901.189	19270
901.308	19027
901.427	18871
901.546	18954
901.665	18878
901.784	18920
901.904	18806
902.023	18787
902.141	18521
902.26	18490
902.379	18646
902.498	18448
902.617	18262
902.735	18559
902.854	18391
902.973	18353
903.091	18144
903.21	18106
903.328	18152
903.446	18087
903.565	17923
903.683	17912
903.801	17832
903.919	17882
904.038	17783
904.156	17661
904.274	17760
904.392	17661
904.51	17619
904.627	17665
904.745	17745
904.863	17866
904.981	17436
905.098	17337
905.216	17360
905.334	17463
905.451	17452
905.569	17288
905.686	17417
905.803	17296
905.921	17204
906.038	17258
906.155	17197
906.272	17094
906.389	17010
906.506	16923
906.623	16946
906.74	16946
906.857	16839
906.974	16740
907.091	16953
907.208	17056
907.324	16866
907.441	16961
907.557	16710
907.674	16668
907.79	16687
907.907	16645
908.023	16710
908.139	16603
908.256	16603
908.372	16531
908.488	16535
908.604	16413
908.72	16481
908.836	16371
908.952	16272
909.068	16363
909.184	16489
909.3	16394
909.415	16265
909.531	16238
909.647	16211
909.762	16143
909.878	15994
909.993	16048
910.108	16025
910.224	15907
910.339	16090
910.454	15991
910.57	15880
910.685	15880
910.8	16116
910.915	16002
911.03	15835
911.145	15755
911.259	15701
911.374	15652
911.489	15568
911.604	15603
911.718	15397
911.833	15515
911.947	15386
912.062	15173
912.176	15420
912.291	15416
912.405	15507
912.519	15599
912.633	15576
912.748	15367
912.862	15428
912.976	15249
913.09	15176
913.204	15245
913.318	15260
913.431	15302
913.545	15397
913.659	15469
913.772	15294
913.886	15066
914	14979
914.113	15085
914.226	15165
914.34	15146
914.453	14883
914.566	15093
914.68	14952
914.793	14918
914.906	14701
915.019	14571
915.132	14518
915.245	14686
915.358	14579
915.47	14610
915.583	14602
915.696	14697
915.809	14678
915.921	14743
916.034	14644
916.146	14568
916.259	14629
916.371	14727
916.483	14670
916.595	14454
916.708	14488
916.82	14503
916.932	14511
917.044	14484
917.156	14514
917.268	14419
917.38	14370
917.491	14404
917.603	14313
917.715	14412
917.826	14400
917.938	14362
918.049	14252
918.161	14294
918.272	14370
918.384	14408
918.495	14267
918.606	14046
918.717	14046
918.828	14081
918.939	14065
919.05	14020
919.161	14069
919.272	13909
919.383	14024
919.494	14088
919.604	14229
919.715	14069
919.826	14027
919.936	14008
920.047	14164
920.157	14043
920.267	14313
920.378	14024
920.488	13982
920.598	14278
920.708	14419
920.818	14210
920.928	14176
921.038	14355
921.148	14294
921.258	13989
921.368	13864
921.477	13887
921.587	13890
921.697	13658
921.806	13849
921.916	13639
922.025	13582
922.134	13464
922.244	13445
922.353	13495
922.462	13373
922.571	13289
922.68	13213
922.789	13095
922.898	13160
923.007	13038
923.116	13206
923.224	13110
923.333	13095
923.442	12977
923.55	12878
923.659	12973
923.767	13027
923.876	12798
923.984	13042
924.092	12916
924.201	12894
924.309	12867
924.417	12890
924.525	12779
924.633	12852
924.741	13575
924.849	12635
924.956	12798
925.064	12604
925.172	12486
925.279	12547
925.387	12544
925.494	12551
925.602	12612
925.709	12669
925.816	12467
925.924	12551
926.031	12620
926.138	12498
926.245	12471
926.352	12388
926.459	12574
926.566	12612
926.673	12475
926.779	12376
926.886	12365
926.993	12167
927.099	12136
927.206	12091
927.312	12148
927.419	12129
927.525	12186
927.631	12178
927.737	12007
927.843	12015
927.95	11802
928.056	11942
928.162	11961
928.267	12026
928.373	12662
928.479	12049
928.585	11836
928.69	11999
928.796	12060
928.901	11866
929.007	11722
929.112	11840
929.218	11752
929.323	11764
929.428	11745
929.533	11805
929.638	11665
929.743	11676
929.848	11703
929.953	11672
930.058	11566
930.163	11364
930.267	11421
930.372	11581
930.477	11395
930.581	11608
930.685	11398
930.79	11299
930.894	11391
930.998	11334
931.103	11383
931.207	11064
931.311	10968
931.415	10915
931.519	10637
931.623	10698
