Data from test_V78500241_2889.txt Node
Date: Fri Mar 25 15:29:58 CST 2022
User: usil
Spectrometer: V785-0024
Trigger mode: 0
Integration Time (sec): 4.000000E-1
Scans to average: 1
Nonlinearity correction enabled: false
Boxcar width: 0
Storing dark spectrum: false
XAxis mode: Wavelengths
Number of Pixels in Spectrum: 1024
>>>>>Begin Spectral Data<<<<<
801.071	27123
801.214	27009
801.356	27001
801.499	26804
801.641	26735
801.783	26785
801.926	26830
802.068	26762
802.211	26678
802.353	26617
802.496	26503
802.638	26374
802.78	26336
802.923	26336
803.065	26256
803.208	26313
803.35	26480
803.492	26427
803.635	26556
803.777	26370
803.919	26552
804.061	26933
804.204	26727
804.346	26549
804.488	26385
804.63	26511
804.773	26313
804.915	26526
805.057	26670
805.199	26625
805.341	26556
805.483	26762
805.626	26629
805.768	26549
805.91	26697
806.052	26735
806.194	26606
806.336	26750
806.478	26575
806.62	26609
806.762	26667
806.904	26864
807.046	27104
807.188	27039
807.33	27116
807.472	27047
807.614	26986
807.756	27051
807.898	26796
808.04	26765
808.182	26906
808.324	27062
808.465	27017
808.607	27135
808.749	27302
808.891	27450
809.033	27374
809.174	27325
809.316	27378
809.458	27245
809.6	27180
809.741	27435
809.883	27397
810.025	27587
810.166	27614
810.308	27538
810.45	27496
810.591	27523
810.733	27184
810.875	27256
811.016	27241
811.158	27127
811.299	27477
811.441	27397
811.582	27329
811.724	27317
811.865	27096
812.007	27207
812.148	27214
812.29	27180
812.431	27405
812.573	27606
812.714	27603
812.855	27690
812.997	27679
813.138	27861
813.279	27709
813.421	27698
813.562	27705
813.703	27534
813.845	27416
813.986	27116
814.127	26902
814.268	26872
814.41	27020
814.551	26819
814.692	27024
814.833	26754
814.974	26800
815.115	26880
815.256	26788
815.397	26906
815.539	26777
815.68	26781
815.821	26636
815.962	26788
816.103	26514
816.244	26488
816.385	26377
816.526	26396
816.666	26381
816.807	26176
816.948	26240
817.089	26309
817.23	26252
817.371	26065
817.512	26126
817.653	26172
817.793	26248
817.934	26062
818.075	26130
818.216	26233
818.356	26062
818.497	26020
818.638	25841
818.778	25883
818.919	25917
819.06	25963
819.2	26161
819.341	26256
819.481	26172
819.622	26259
819.762	26457
819.903	26461
820.043	26298
820.184	26229
820.324	26210
820.465	26355
820.605	26267
820.746	26199
820.886	26237
821.026	26176
821.167	26065
821.307	26237
821.447	26092
821.588	26130
821.728	26024
821.868	25837
822.008	25605
822.149	25586
822.289	25590
822.429	25400
822.569	25373
822.709	25384
822.849	25141
822.99	25160
823.13	25118
823.27	25015
823.41	24768
823.55	24757
823.69	24928
823.83	24939
823.97	24909
824.11	24734
824.25	24673
824.389	24791
824.529	24772
824.669	24673
824.809	24661
824.949	24741
825.089	24814
825.228	24684
825.368	24540
825.508	24544
825.648	24642
825.787	24585
825.927	24848
826.067	24601
826.206	24604
826.346	24719
826.485	24753
826.625	24650
826.765	24719
826.904	24585
827.044	24369
827.183	24361
827.323	24285
827.462	24323
827.601	24281
827.741	24289
827.88	24327
828.02	24182
828.159	24235
828.298	24334
828.437	24258
828.577	24171
828.716	24426
828.855	24220
828.994	23901
829.134	24018
829.273	24114
829.412	23965
829.551	24030
829.69	23999
829.829	24072
829.968	23984
830.107	24087
830.246	24057
830.385	23927
830.524	23904
830.663	23767
830.802	23638
830.941	23543
831.08	23649
831.219	23596
831.357	23680
831.496	23691
831.635	23623
831.774	23391
831.913	23414
832.051	23360
832.19	23410
832.329	23414
832.467	23280
832.606	23261
832.744	23258
832.883	23216
833.022	23204
833.16	23284
833.299	23258
833.437	23318
833.576	23337
833.714	23330
833.852	23486
833.991	23440
834.129	23406
834.267	23356
834.406	23440
834.544	23284
834.682	23391
834.821	23185
834.959	23455
835.097	23254
835.235	23448
835.373	23265
835.511	23261
835.65	23025
835.788	23193
835.926	23018
836.064	22946
836.202	23044
836.34	23159
836.478	23212
836.615	23044
836.753	23075
836.891	23117
837.029	23189
837.167	23204
837.305	23029
837.443	23022
837.58	22930
837.718	22953
837.856	22961
837.993	22900
838.131	22991
838.269	22862
838.406	22839
838.544	22778
838.681	22596
838.819	22664
838.956	22367
839.094	22485
839.231	22519
839.369	22660
839.506	22873
839.643	22713
839.781	22451
839.918	22417
840.055	22478
840.193	22402
840.33	22382
840.467	22474
840.604	22390
840.742	22717
840.879	22246
841.016	22246
841.153	22470
841.29	22413
841.427	22512
841.564	22459
841.701	22478
841.838	22310
841.975	22249
842.112	22291
842.249	22143
842.385	22181
842.522	22451
842.659	22211
842.796	22219
842.933	22169
843.069	22207
843.206	22059
843.343	22234
843.479	22246
843.616	22185
843.752	21819
843.889	22032
844.025	22059
844.162	21793
844.298	21983
844.435	21956
844.571	21899
844.708	21945
844.844	22093
844.98	22112
845.117	22032
845.253	21922
845.389	21812
845.525	21869
845.661	21781
845.798	21625
845.934	21759
846.07	21637
846.206	21679
846.342	21675
846.478	21564
846.614	21553
846.75	21272
846.886	21386
847.022	21458
847.158	21317
847.294	21408
847.429	21439
847.565	21321
847.701	21587
847.837	21154
847.972	21112
848.108	21237
848.244	21222
848.379	20982
848.515	20883
848.65	20956
848.786	20963
848.921	21039
849.057	21043
849.192	21032
849.328	20948
849.463	20998
849.598	20982
849.734	20994
849.869	20918
850.004	20781
850.14	20864
850.275	20750
850.41	20648
850.545	20792
850.68	20804
850.815	20746
850.95	20765
851.085	20948
851.22	20857
851.355	20902
851.49	20712
851.625	20765
851.76	20686
851.895	20758
852.03	20617
852.165	20849
852.299	20815
852.434	20819
852.569	20887
852.703	20762
852.838	20800
852.973	20868
853.107	20785
853.242	20644
853.376	20602
853.511	20533
853.645	20602
853.78	20815
853.914	20689
854.048	20533
854.183	20522
854.317	20613
854.451	20838
854.585	20503
854.72	20568
854.854	20731
854.988	20571
855.122	20499
855.256	20514
855.39	20651
855.524	20636
855.658	20518
855.792	20674
855.926	20549
856.06	20632
856.194	20617
856.327	20404
856.461	20457
856.595	20575
856.729	20533
856.862	20682
856.996	20579
857.13	20575
857.263	20746
857.397	20693
857.53	20697
857.664	20606
857.797	20686
857.931	20743
858.064	20651
858.197	20663
858.331	20625
858.464	20579
858.597	20442
858.731	20697
858.864	20674
858.997	20571
859.13	20594
859.263	20674
859.396	20678
859.529	20625
859.662	20663
859.795	20590
859.928	20590
860.061	20731
860.194	20811
860.327	20629
860.46	20564
860.592	20686
860.725	20708
860.858	20735
860.99	20636
861.123	20473
861.256	20507
861.388	20587
861.521	21176
861.653	20503
861.786	20351
861.918	20355
862.05	20438
862.183	20507
862.315	20556
862.447	20613
862.58	20476
862.712	20313
862.844	20305
862.976	20381
863.108	20499
863.24	20773
863.372	20157
863.504	20450
863.636	20248
863.768	20286
863.9	20317
864.032	20351
864.164	20275
864.296	20320
864.428	20427
864.559	20324
864.691	20381
864.823	20389
864.954	20248
865.086	20267
865.217	20210
865.349	20134
865.48	20305
865.612	20301
865.743	20313
865.875	20191
866.006	20221
866.137	20244
866.269	20115
866.4	20183
866.531	20142
866.662	20088
866.793	20081
866.924	20157
867.055	20237
867.186	20252
867.317	20275
867.448	20062
867.579	20218
867.71	20005
867.841	20050
867.972	20157
868.103	20180
868.233	20259
868.364	20161
868.495	20256
868.625	20404
868.756	20427
868.886	20381
869.017	20442
869.147	20545
869.278	20537
869.408	20434
869.539	20389
869.669	20423
869.799	20427
869.929	20590
870.06	20480
870.19	20701
870.32	20743
870.45	20762
870.58	20785
870.71	20944
870.84	20948
870.97	20769
871.1	20849
871.23	20929
871.36	20933
871.489	20956
871.619	20899
871.749	21116
871.879	20975
872.008	21096
872.138	21024
872.267	20891
872.397	20762
872.526	20769
872.656	20944
872.785	20861
872.915	20876
873.044	21176
873.173	20944
873.303	21032
873.432	20910
873.561	21146
873.69	21085
873.819	20963
873.948	21055
874.077	21070
874.206	20941
874.335	20819
874.464	21104
874.593	21150
874.722	21192
874.851	21302
874.979	21268
875.108	21340
875.237	21203
875.365	21180
875.494	21218
875.623	21325
875.751	21249
875.88	21230
876.008	21344
876.136	21496
876.265	21739
876.393	21736
876.521	21770
876.65	21770
876.778	21557
876.906	21652
877.034	21576
877.162	21667
877.29	21523
877.418	21637
877.546	21641
877.674	21534
877.802	21667
877.93	21576
878.058	21507
878.185	21473
878.313	21606
878.441	21538
878.568	21306
878.696	21526
878.824	21660
878.951	21713
879.079	21743
879.206	21854
879.333	21789
879.461	21583
879.588	21743
879.715	21656
879.842	21865
879.97	21625
880.097	21428
880.224	21405
880.351	21424
880.478	21504
880.605	21329
880.732	21576
880.859	21526
880.986	21488
881.112	21458
881.239	21184
881.366	21116
881.493	21047
881.619	20982
881.746	21081
881.872	21017
881.999	21043
882.125	20933
882.252	21161
882.378	20906
882.505	21081
882.631	20792
882.757	20845
882.883	20819
883.01	20785
883.136	20636
883.262	20625
883.388	20583
883.514	20670
883.64	20686
883.766	20663
883.892	20309
884.018	20583
884.143	20644
884.269	20648
884.395	20469
884.52	20434
884.646	20362
884.772	20218
884.897	20122
885.023	20377
885.148	20552
885.274	20442
885.399	20396
885.524	20450
885.65	20339
885.775	20423
885.9	20317
886.025	20507
886.15	20434
886.275	20286
886.4	20229
886.525	20374
886.65	20271
886.775	20381
886.9	20499
887.025	20450
887.149	20408
887.274	20206
887.399	20142
887.523	20100
887.648	20111
887.773	20122
887.897	20210
888.021	20214
888.146	20168
888.27	20195
888.395	20195
888.519	20202
888.643	20161
888.767	20244
888.891	19959
889.015	20039
889.139	20016
889.263	19864
889.387	20016
889.511	20115
889.635	20149
889.759	20046
889.883	19970
890.006	19974
890.13	20058
890.254	19921
890.377	19856
890.501	19712
890.624	19616
890.748	19753
890.871	19685
890.995	19514
891.118	19674
891.241	19487
891.364	19525
891.488	19700
891.611	19510
891.734	19647
891.857	19506
891.98	19609
892.103	19480
892.226	19506
892.349	19441
892.471	19343
892.594	19483
892.717	19438
892.839	19476
892.962	19525
893.085	19548
893.207	19373
893.33	19350
893.452	19365
893.575	19506
893.697	19472
893.819	19746
893.941	19685
894.064	19639
894.186	19514
894.308	19422
894.43	19529
894.552	19571
894.674	19624
894.796	19381
894.918	19518
895.04	19502
895.161	19540
895.283	19464
895.405	19346
895.526	19438
895.648	19472
895.769	19480
895.891	19491
896.012	19472
896.134	19544
896.255	19540
896.376	19339
896.498	19537
896.619	19468
896.74	19453
896.861	19544
896.982	19681
897.103	19947
897.224	19784
897.345	19700
897.466	19662
897.587	19594
897.708	19826
897.828	19753
897.949	19597
898.07	19381
898.19	19628
898.311	19795
898.431	19727
898.552	19674
898.672	19818
898.792	19727
898.913	19750
899.033	19594
899.153	19571
899.273	19358
899.393	19586
899.513	19419
899.633	19537
899.753	19438
899.873	19411
899.993	19384
900.113	19457
900.232	19388
900.352	19384
900.472	19289
900.591	19175
900.711	19266
900.83	19289
900.95	19358
901.069	19373
901.189	19061
901.308	19088
901.427	18768
901.546	18814
901.665	18802
901.784	18810
901.904	18589
902.023	18650
902.141	18452
902.26	18365
902.379	18494
902.498	18395
902.617	18334
902.735	18399
902.854	18285
902.973	18323
903.091	18273
903.21	18068
903.328	17999
903.446	17958
903.565	17779
903.683	17973
903.801	17592
903.919	17885
904.038	17767
904.156	17767
904.274	17710
904.392	17638
904.51	17619
904.627	17585
904.745	17695
904.863	17718
904.981	17501
905.098	17353
905.216	17296
905.334	17326
905.451	17299
905.569	17296
905.686	17277
905.803	17208
905.921	17117
906.038	17098
906.155	17086
906.272	16911
906.389	17075
906.506	16748
906.623	16809
906.74	16805
906.857	16778
906.974	16755
907.091	16847
907.208	16923
907.324	16866
907.441	16778
907.557	16599
907.674	16535
907.79	16466
907.907	16493
908.023	16694
908.139	16565
908.256	16417
908.372	16481
908.488	16428
908.604	16386
908.72	16325
908.836	16284
908.952	16188
909.068	16318
909.184	16379
909.3	16253
909.415	16318
909.531	16265
909.647	16128
909.762	16002
909.878	15983
909.993	16025
910.108	15956
910.224	15941
910.339	15968
910.454	15823
910.57	15789
910.685	15686
910.8	16048
910.915	15964
911.03	15728
911.145	15713
911.259	15557
911.374	15515
911.489	15477
911.604	15435
911.718	15408
911.833	15393
911.947	15332
912.062	15275
912.176	15378
912.291	15477
912.405	15359
912.519	15488
912.633	15542
912.748	15355
912.862	15401
912.976	15157
913.09	15028
913.204	15241
913.318	15230
913.431	15199
913.545	15241
913.659	15214
913.772	15211
913.886	14967
914	15020
914.113	15062
914.226	15154
914.34	15051
914.453	14891
914.566	14998
914.68	14804
914.793	14838
914.906	14689
915.019	14583
915.132	14560
915.245	14442
915.358	14716
915.47	14686
915.583	14465
915.696	14579
915.809	14670
915.921	14735
916.034	14476
916.146	14476
916.259	14434
916.371	14594
916.483	14632
916.595	14423
916.708	14545
916.82	14495
916.932	14381
917.044	14431
917.156	14427
917.268	14244
917.38	14271
917.491	14183
917.603	14343
917.715	14355
917.826	14377
917.938	14282
918.049	14168
918.161	14294
918.272	14396
918.384	14408
918.495	14172
918.606	14050
918.717	14035
918.828	14012
918.939	14016
919.05	13997
919.161	14100
919.272	13841
919.383	13841
919.494	14043
919.604	14275
919.715	14077
919.826	14001
919.936	13989
920.047	14103
920.157	14012
920.267	14229
920.378	14145
920.488	14024
920.598	14248
920.708	14324
920.818	14126
920.928	14092
921.038	14286
921.148	14252
921.258	14012
921.368	13894
921.477	13738
921.587	13704
921.697	13624
921.806	13868
921.916	13601
922.025	13559
922.134	13419
922.244	13407
922.353	13445
922.462	13297
922.571	13320
922.68	13038
922.789	13091
922.898	13259
923.007	13065
923.116	13053
923.224	12970
923.333	13107
923.442	12943
923.55	12905
923.659	12840
923.767	12954
923.876	12863
923.984	12867
924.092	12916
924.201	12817
924.309	12852
924.417	12833
924.525	12741
924.633	12848
924.741	13655
924.849	12517
924.956	12665
925.064	12506
925.172	12426
925.279	12582
925.387	12551
925.494	12506
925.602	12665
925.709	12521
925.816	12410
925.924	12528
926.031	12650
926.138	12471
926.245	12456
926.352	12376
926.459	12418
926.566	12494
926.673	12353
926.779	12251
926.886	12304
926.993	12095
927.099	12034
927.206	12007
927.312	12049
927.419	12136
927.525	12098
927.631	12129
927.737	11961
927.843	11920
927.95	11756
928.056	11988
928.162	11916
928.267	11965
928.373	12627
928.479	12034
928.585	11786
928.69	11946
928.796	11859
928.901	11859
929.007	11604
929.112	11745
929.218	11707
929.323	11714
929.428	11638
929.533	11737
929.638	11532
929.743	11589
929.848	11653
929.953	11703
930.058	11554
930.163	11353
930.267	11322
930.372	11512
930.477	11364
930.581	11520
930.685	11402
930.79	11265
930.894	11254
930.998	11185
931.103	11387
931.207	11079
931.311	10965
931.415	10873
931.519	10603
931.623	10626
