Data from test_V78500241_1096.txt Node
Date: Fri Mar 25 15:17:29 CST 2022
User: usil
Spectrometer: V785-0024
Trigger mode: 0
Integration Time (sec): 4.000000E-1
Scans to average: 1
Nonlinearity correction enabled: false
Boxcar width: 0
Storing dark spectrum: false
XAxis mode: Wavelengths
Number of Pixels in Spectrum: 1024
>>>>>Begin Spectral Data<<<<<
801.071	28584
801.214	28508
801.356	28078
801.499	28051
801.641	28048
801.783	27972
801.926	28044
802.068	27903
802.211	28051
802.353	27854
802.496	27751
802.638	27743
802.78	27679
802.923	27660
803.065	27644
803.208	27675
803.35	27583
803.492	27747
803.635	27876
803.777	27652
803.919	27873
804.061	28223
804.204	28021
804.346	27736
804.488	27785
804.63	27838
804.773	27831
804.915	27914
805.057	28051
805.199	27842
805.341	28017
805.483	28082
805.626	27876
805.768	27960
805.91	27911
806.052	28109
806.194	27941
806.336	28211
806.478	28090
806.62	28017
806.762	28238
806.904	28272
807.046	28694
807.188	28478
807.33	28447
807.472	28481
807.614	28405
807.756	28440
807.898	28356
808.04	28223
808.182	28200
808.324	28405
808.465	28329
808.607	28523
808.749	28721
808.891	28847
809.033	28812
809.174	28740
809.316	28679
809.458	28725
809.6	28706
809.741	28938
809.883	28930
810.025	29025
810.166	29060
810.308	28984
810.45	28896
810.591	28934
810.733	28713
810.875	28755
811.016	28634
811.158	28580
811.299	28828
811.441	28831
811.582	29003
811.724	28763
811.865	28740
812.007	28679
812.148	28816
812.29	28721
812.431	29010
812.573	29140
812.714	29060
812.855	29246
812.997	29364
813.138	29577
813.279	29395
813.421	29334
813.562	29193
813.703	28965
813.845	29018
813.986	28801
814.127	28622
814.268	28462
814.41	28519
814.551	28386
814.692	28531
814.833	28470
814.974	28344
815.115	28379
815.256	28272
815.397	28409
815.539	28295
815.68	28253
815.821	28215
815.962	28443
816.103	28147
816.244	28226
816.385	28048
816.526	28013
816.666	27751
816.807	27633
816.948	27808
817.089	27991
817.23	27751
817.371	27854
817.512	27755
817.653	27705
817.793	27686
817.934	27739
818.075	27778
818.216	27637
818.356	27812
818.497	27720
818.638	27450
818.778	27500
818.919	27450
819.06	27599
819.2	27656
819.341	27667
819.481	27641
819.622	27941
819.762	28169
819.903	27964
820.043	28006
820.184	27941
820.324	27903
820.465	27903
820.605	28010
820.746	28025
820.886	27918
821.026	27899
821.167	27812
821.307	27994
821.447	27755
821.588	27679
821.728	27534
821.868	27435
822.008	27268
822.149	27192
822.289	27184
822.429	27039
822.569	26872
822.709	26823
822.849	26716
822.99	26735
823.13	26765
823.27	26804
823.41	26541
823.55	26453
823.69	26655
823.83	26613
823.97	26594
824.11	26263
824.25	26507
824.389	26377
824.529	26492
824.669	26404
824.809	26708
824.949	26480
825.089	26575
825.228	26404
825.368	26252
825.508	26324
825.648	26358
825.787	26351
825.927	26393
826.067	26282
826.206	26332
826.346	26320
826.485	26389
826.625	26237
826.765	26332
826.904	26492
827.044	26111
827.183	26195
827.323	25978
827.462	26077
827.601	26142
827.741	26088
827.88	26065
828.02	25951
828.159	25974
828.298	26054
828.437	26138
828.577	26012
828.716	26161
828.855	25955
828.994	25765
829.134	25791
829.273	25799
829.412	25750
829.551	25742
829.69	25719
829.829	25791
829.968	25921
830.107	25799
830.246	25712
830.385	25586
830.524	25624
830.663	25628
830.802	25571
830.941	25400
831.08	25308
831.219	25293
831.357	25304
831.496	25521
831.635	25350
831.774	25289
831.913	25141
832.051	25103
832.19	25282
832.329	25107
832.467	25069
832.606	24947
832.744	25012
832.883	25072
833.022	24985
833.16	24970
833.299	24992
833.437	25038
833.576	25145
833.714	25202
833.852	25084
833.991	25270
834.129	25217
834.267	25259
834.406	25103
834.544	25156
834.682	25171
834.821	25148
834.959	25335
835.097	25061
835.235	25129
835.373	25122
835.511	25107
835.65	25133
835.788	24939
835.926	24833
836.064	24776
836.202	24604
836.34	24977
836.478	25091
836.615	24814
836.753	24897
836.891	24989
837.029	25095
837.167	24825
837.305	24783
837.443	24741
837.58	24711
837.718	24783
837.856	24787
837.993	24707
838.131	24715
838.269	24631
838.406	24684
838.544	24669
838.681	24429
838.819	24410
838.956	24357
839.094	24258
839.231	24330
839.369	24426
839.506	24566
839.643	24563
839.781	24186
839.918	24235
840.055	24247
840.193	24182
840.33	24125
840.467	24121
840.604	24243
840.742	24464
840.879	24098
841.016	24106
841.153	24083
841.29	24277
841.427	24045
841.564	24292
841.701	24254
841.838	24098
841.975	23908
842.112	24034
842.249	23901
842.385	23935
842.522	24049
842.659	23999
842.796	24007
842.933	23897
843.069	23817
843.206	23874
843.343	23942
843.479	23931
843.616	23817
843.752	23824
843.889	23764
844.025	23878
844.162	23695
844.298	23786
844.435	23657
844.571	23646
844.708	23771
844.844	23912
844.98	23767
845.117	23760
845.253	23699
845.389	23585
845.525	23653
845.661	23524
845.798	23482
845.934	23440
846.07	23497
846.206	23391
846.342	23402
846.478	23345
846.614	23261
846.75	23170
846.886	23121
847.022	23147
847.158	23109
847.294	23231
847.429	23246
847.565	23242
847.701	23448
847.837	22889
847.972	22885
848.108	23022
848.244	23048
848.379	22786
848.515	22736
848.65	22790
848.786	22744
848.921	22752
849.057	22854
849.192	22774
849.328	22706
849.463	22725
849.598	22702
849.734	22679
849.869	22687
850.004	22573
850.14	22569
850.275	22508
850.41	22413
850.545	22432
850.68	22428
850.815	22607
850.95	22557
851.085	22698
851.22	22580
851.355	22603
851.49	22478
851.625	22565
851.76	22527
851.895	22379
852.03	22405
852.165	22554
852.299	22474
852.434	22512
852.569	22573
852.703	22481
852.838	22584
852.973	22535
853.107	22527
853.242	22478
853.376	22352
853.511	22093
853.645	22329
853.78	22424
853.914	22363
854.048	22276
854.183	22306
854.317	22272
854.451	22470
854.585	22295
854.72	22295
854.854	22443
854.988	22226
855.122	22322
855.256	22215
855.39	22325
855.524	22421
855.658	22417
855.792	22344
855.926	22375
856.06	22516
856.194	22371
856.327	22348
856.461	22230
856.595	22249
856.729	22314
856.862	22314
856.996	22246
857.13	22341
857.263	22440
857.397	22451
857.53	22295
857.664	22303
857.797	22413
857.931	22375
858.064	22375
858.197	22352
858.331	22314
858.464	22192
858.597	22348
858.731	22226
858.864	22226
858.997	22306
859.13	22325
859.263	22249
859.396	22379
859.529	22295
859.662	22367
859.795	22268
859.928	22325
860.061	22447
860.194	22542
860.327	22363
860.46	22481
860.592	22409
860.725	22500
860.858	22462
860.99	22322
861.123	22192
861.256	22272
861.388	22325
861.521	23064
861.653	22124
861.786	22139
861.918	22112
862.05	22173
862.183	22257
862.315	22253
862.447	22337
862.58	22177
862.712	22017
862.844	22025
862.976	22158
863.108	22177
863.24	22596
863.372	21918
863.504	21983
863.636	21953
863.768	22059
863.9	21956
864.032	21876
864.164	21945
864.296	22017
864.428	22169
864.559	22067
864.691	22196
864.823	21911
864.954	22070
865.086	21960
865.217	21941
865.349	21846
865.48	21934
865.612	21873
865.743	22029
865.875	21831
866.006	21835
866.137	21899
866.269	21972
866.4	21895
866.531	21838
866.662	21667
866.793	21781
866.924	21846
867.055	21804
867.186	21838
867.317	21751
867.448	21743
867.579	21774
867.71	21603
867.841	21732
867.972	21835
868.103	21785
868.233	21888
868.364	21701
868.495	21915
868.625	22097
868.756	22268
868.886	21941
869.017	22074
869.147	22143
869.278	22211
869.408	22204
869.539	22154
869.669	22226
869.799	22093
869.929	22162
870.06	22124
870.19	22363
870.32	22402
870.45	22318
870.58	22322
870.71	22523
870.84	22687
870.97	22390
871.1	22447
871.23	22721
871.36	22557
871.489	22565
871.619	22702
871.749	22542
871.879	22725
872.008	22771
872.138	22668
872.267	22519
872.397	22611
872.526	22424
872.656	22436
872.785	22577
872.915	22645
873.044	22729
873.173	22759
873.303	22637
873.432	22683
873.561	22858
873.69	22645
873.819	22607
873.948	22721
874.077	22675
874.206	22622
874.335	22744
874.464	22694
874.593	22919
874.722	22862
874.851	22816
874.979	22949
875.108	22923
875.237	22771
875.365	22767
875.494	22835
875.623	22972
875.751	22889
875.88	22881
876.008	22984
876.136	23056
876.265	23284
876.393	23406
876.521	23311
876.65	23315
876.778	23250
876.906	23315
877.034	23269
877.162	23265
877.29	23067
877.418	23239
877.546	23231
877.674	23052
877.802	23181
877.93	23216
878.058	23330
878.185	23064
878.313	23193
878.441	23189
878.568	23044
878.696	23200
878.824	23159
878.951	23334
879.079	23398
879.206	23478
879.333	23189
879.461	23174
879.588	23383
879.715	23280
879.842	23516
879.97	23360
880.097	23037
880.224	22987
880.351	23143
880.478	23048
880.605	23086
880.732	23041
880.859	23223
880.986	23079
881.112	23048
881.239	22953
881.366	22812
881.493	22603
881.619	22577
881.746	22618
881.872	22618
881.999	22527
882.125	22565
882.252	22584
882.378	22542
882.505	22580
882.631	22379
882.757	22367
882.883	22447
883.01	22280
883.136	22265
883.262	22097
883.388	22093
883.514	22356
883.64	22318
883.766	22219
883.892	22158
884.018	22147
884.143	22124
884.269	22295
884.395	21937
884.52	21876
884.646	21918
884.772	21827
884.897	21842
885.023	21876
885.148	22097
885.274	22055
885.399	22093
885.524	21953
885.65	21899
885.775	21888
885.9	21922
886.025	21937
886.15	22021
886.275	21728
886.4	21964
886.525	21835
886.65	21823
886.775	21816
886.9	22025
887.025	22135
887.149	21865
887.274	21690
887.399	21774
887.523	21724
887.648	21633
887.773	21675
887.897	21755
888.021	21701
888.146	21599
888.27	21709
888.395	21865
888.519	21759
888.643	21663
888.767	21808
888.891	21587
889.015	21553
889.139	21485
889.263	21393
889.387	21599
889.511	21690
889.635	21603
889.759	21469
889.883	21367
890.006	21469
890.13	21462
890.254	21443
890.377	21363
890.501	21138
890.624	21074
890.748	21233
890.871	21085
890.995	21077
891.118	21028
891.241	21112
891.364	20998
891.488	21173
891.611	21096
891.734	21036
891.857	21157
891.98	20990
892.103	21108
892.226	21180
892.349	20872
892.471	20765
892.594	20868
892.717	21112
892.839	20963
892.962	20906
893.085	20929
893.207	20982
893.33	20830
893.452	20883
893.575	21062
893.697	20864
893.819	20994
893.941	21161
894.064	21119
894.186	20895
894.308	20861
894.43	20868
894.552	21051
894.674	21032
894.796	20788
894.918	20883
895.04	20910
895.161	21047
895.283	20891
895.405	20842
895.526	20819
895.648	20857
895.769	20902
895.891	20857
896.012	20971
896.134	20929
896.255	20902
896.376	20864
896.498	20849
896.619	20819
896.74	20853
896.861	20861
896.982	21260
897.103	21370
897.224	21112
897.345	21066
897.466	21081
897.587	21123
897.708	21150
897.828	21005
897.949	21062
898.07	20963
898.19	20941
898.311	21169
898.431	20979
898.552	21020
898.672	21028
898.792	21176
898.913	21077
899.033	20937
899.153	21005
899.273	20819
899.393	20853
899.513	20861
899.633	20811
899.753	20864
899.873	20754
899.993	20781
900.113	20720
900.232	20773
900.352	20765
900.472	20484
900.591	20541
900.711	20511
900.83	20442
900.95	20625
901.069	20720
901.189	20385
901.308	20237
901.427	20088
901.546	20225
901.665	20191
901.784	20221
901.904	19982
902.023	19879
902.141	19814
902.26	19731
902.379	19742
902.498	19670
902.617	19670
902.735	19784
902.854	19643
902.973	19552
903.091	19304
903.21	19270
903.328	19453
903.446	19118
903.565	19091
903.683	19133
903.801	19034
903.919	19126
904.038	19053
904.156	18924
904.274	18935
904.392	18890
904.51	18859
904.627	18798
904.745	18947
904.863	19061
904.981	18623
905.098	18532
905.216	18631
905.334	18528
905.451	18597
905.569	18597
905.686	18547
905.803	18555
905.921	18350
906.038	18479
906.155	18350
906.272	18304
906.389	18258
906.506	18117
906.623	18194
906.74	18140
906.857	17988
906.974	17969
907.091	18133
907.208	18155
907.324	18083
907.441	17999
907.557	17908
907.674	17920
907.79	17729
907.907	17866
908.023	17847
908.139	17828
908.256	17718
908.372	17718
908.488	17604
908.604	17570
908.72	17528
908.836	17448
908.952	17577
909.068	17535
909.184	17592
909.3	17429
909.415	17535
909.531	17444
909.647	17307
909.762	17212
909.878	17197
909.993	17162
910.108	17170
910.224	17193
910.339	17200
910.454	17098
910.57	17071
910.685	16953
910.8	17288
910.915	17178
911.03	17010
911.145	16771
911.259	16736
911.374	16713
911.489	16740
911.604	16630
911.718	16466
911.833	16546
911.947	16405
912.062	16443
912.176	16379
912.291	16519
912.405	16481
912.519	16710
912.633	16656
912.748	16615
912.862	16462
912.976	16352
913.09	16318
913.204	16219
913.318	16325
913.431	16459
913.545	16470
913.659	16360
913.772	16268
913.886	16169
914	16120
914.113	16181
914.226	16223
914.34	16192
914.453	16040
914.566	16112
914.68	16105
914.793	15934
914.906	15869
915.019	15747
915.132	15759
915.245	15739
915.358	15762
915.47	15789
915.583	15690
915.696	15770
915.809	15850
915.921	15838
916.034	15652
916.146	15610
916.259	15572
916.371	15660
916.483	15705
916.595	15534
916.708	15610
916.82	15530
916.932	15485
917.044	15462
917.156	15538
917.268	15393
917.38	15443
917.491	15336
917.603	15397
917.715	15481
917.826	15439
917.938	15291
918.049	15222
918.161	15298
918.272	15386
918.384	15374
918.495	15294
918.606	15207
918.717	15074
918.828	15039
918.939	15077
919.05	14990
919.161	15116
919.272	14826
919.383	14979
919.494	15055
919.604	15298
919.715	15108
919.826	14975
919.936	15047
920.047	15150
920.157	14979
920.267	15226
920.378	14982
920.488	15074
920.598	15218
920.708	15401
920.818	15233
920.928	15161
921.038	15256
921.148	15351
921.258	15001
921.368	14952
921.477	14758
921.587	14800
921.697	14629
921.806	14754
921.916	14682
922.025	14442
922.134	14438
922.244	14320
922.353	14454
922.462	14259
922.571	14180
922.68	14016
922.789	14039
922.898	14031
923.007	13913
923.116	14046
923.224	14054
923.333	13944
923.442	13928
923.55	13830
923.659	13795
923.767	13852
923.876	13799
923.984	13868
924.092	13761
924.201	13822
924.309	13784
924.417	13833
924.525	13826
924.633	13746
924.741	14636
924.849	13506
924.956	13655
925.064	13552
925.172	13415
925.279	13343
925.387	13430
925.494	13518
925.602	13525
925.709	13464
925.816	13346
925.924	13316
926.031	13419
926.138	13373
926.245	13449
926.352	13301
926.459	13400
926.566	13483
926.673	13263
926.779	13187
926.886	13175
926.993	12996
927.099	13015
927.206	12973
927.312	12947
927.419	12970
927.525	13008
927.631	12981
927.737	12939
927.843	12856
927.95	12719
928.056	12726
928.162	12764
928.267	12909
928.373	13396
928.479	12863
928.585	12677
928.69	12787
928.796	12795
928.901	12688
929.007	12483
929.112	12635
929.218	12563
929.323	12563
929.428	12475
929.533	12608
929.638	12437
929.743	12460
929.848	12525
929.953	12448
930.058	12311
930.163	12251
930.267	12270
930.372	12376
930.477	12182
930.581	12391
930.685	12197
930.79	12038
930.894	12110
930.998	12019
931.103	12117
931.207	11786
931.311	11767
931.415	11684
931.519	11387
931.623	11395
