Data from test_V78500241_2294.txt Node
Date: Fri Mar 25 15:25:49 CST 2022
User: usil
Spectrometer: V785-0024
Trigger mode: 0
Integration Time (sec): 4.000000E-1
Scans to average: 1
Nonlinearity correction enabled: false
Boxcar width: 0
Storing dark spectrum: false
XAxis mode: Wavelengths
Number of Pixels in Spectrum: 1024
>>>>>Begin Spectral Data<<<<<
801.071	27709
801.214	27690
801.356	27507
801.499	27481
801.641	27329
801.783	27222
801.926	27382
802.068	27329
802.211	27176
802.353	27100
802.496	27096
802.638	27039
802.78	26891
802.923	26933
803.065	26667
803.208	26765
803.35	26929
803.492	27066
803.635	27081
803.777	27074
803.919	27089
804.061	27306
804.204	27367
804.346	27077
804.488	27005
804.63	27131
804.773	27123
804.915	27020
805.057	27161
805.199	27066
805.341	27317
805.483	27310
805.626	27230
805.768	27165
805.91	27397
806.052	27283
806.194	27116
806.336	27526
806.478	27218
806.62	27249
806.762	27291
806.904	27477
807.046	27759
807.188	27701
807.33	27660
807.472	27781
807.614	27694
807.756	27606
807.898	27572
808.04	27511
808.182	27367
808.324	27614
808.465	27580
808.607	27846
808.749	27869
808.891	28116
809.033	27907
809.174	27968
809.316	27941
809.458	27934
809.6	27873
809.741	28048
809.883	27975
810.025	28090
810.166	28185
810.308	28166
810.45	28059
810.591	27983
810.733	27876
810.875	27778
811.016	27869
811.158	27762
811.299	27819
811.441	27941
811.582	27857
811.724	27934
811.865	27854
812.007	27816
812.148	27755
812.29	27812
812.431	28010
812.573	28131
812.714	28207
812.855	28242
812.997	28356
813.138	28512
813.279	28462
813.421	28310
813.562	28379
813.703	28223
813.845	27892
813.986	27831
814.127	27652
814.268	27648
814.41	27663
814.551	27530
814.692	27717
814.833	27401
814.974	27549
815.115	27583
815.256	27382
815.397	27386
815.539	27340
815.68	27310
815.821	27256
815.962	27397
816.103	27222
816.244	27291
816.385	27047
816.526	26952
816.666	26902
816.807	26845
816.948	26902
817.089	26960
817.23	26746
817.371	26792
817.512	26739
817.653	26781
817.793	26670
817.934	26853
818.075	26838
818.216	26819
818.356	26868
818.497	26720
818.638	26629
818.778	26575
818.919	26583
819.06	26621
819.2	26632
819.341	26727
819.481	26731
819.622	26971
819.762	27154
819.903	26998
820.043	26979
820.184	26971
820.324	26880
820.465	26785
820.605	26933
820.746	26937
820.886	26769
821.026	26861
821.167	26777
821.307	26899
821.447	26804
821.588	26849
821.728	26636
821.868	26518
822.008	26347
822.149	26355
822.289	26244
822.429	25951
822.569	26005
822.709	25906
822.849	25795
822.99	25822
823.13	25712
823.27	25803
823.41	25556
823.55	25441
823.69	25632
823.83	25464
823.97	25514
824.11	25388
824.25	25415
824.389	25419
824.529	25491
824.669	25495
824.809	25518
824.949	25499
825.089	25495
825.228	25369
825.368	25266
825.508	25384
825.648	25259
825.787	25213
825.927	25350
826.067	25175
826.206	25266
826.346	25263
826.485	25198
826.625	25354
826.765	25510
826.904	25304
827.044	25015
827.183	25080
827.323	24985
827.462	25038
827.601	25000
827.741	25031
827.88	24958
828.02	24825
828.159	24878
828.298	25072
828.437	24989
828.577	24886
828.716	24951
828.855	24882
828.994	24620
829.134	24631
829.273	24677
829.412	24700
829.551	24749
829.69	24635
829.829	24715
829.968	24703
830.107	24817
830.246	24719
830.385	24566
830.524	24547
830.663	24528
830.802	24357
830.941	24372
831.08	24289
831.219	24361
831.357	24369
831.496	24483
831.635	24277
831.774	24163
831.913	24144
832.051	24018
832.19	24133
832.329	24083
832.467	24068
832.606	24026
832.744	23870
832.883	23950
833.022	23973
833.16	24053
833.299	23977
833.437	24041
833.576	24083
833.714	24095
833.852	24121
833.991	24114
834.129	23999
834.267	23984
834.406	23969
834.544	23965
834.682	23996
834.821	23984
834.959	24133
835.097	23920
835.235	24022
835.373	24095
835.511	23965
835.65	23969
835.788	23813
835.926	23752
836.064	23619
836.202	23531
836.34	23840
836.478	23904
836.615	23931
836.753	23878
836.891	23912
837.029	23923
837.167	23771
837.305	23764
837.443	23672
837.58	23710
837.718	23893
837.856	23729
837.993	23691
838.131	23665
838.269	23630
838.406	23615
838.544	23646
838.681	23414
838.819	23296
838.956	23151
839.094	23231
839.231	23258
839.369	23368
839.506	23646
839.643	23421
839.781	23136
839.918	23098
840.055	23075
840.193	23151
840.33	23079
840.467	23105
840.604	22991
840.742	23318
840.879	23003
841.016	22991
841.153	23083
841.29	23132
841.427	23204
841.564	23136
841.701	23060
841.838	23193
841.975	22938
842.112	22885
842.249	22847
842.385	22896
842.522	23037
842.659	22858
842.796	22953
842.933	22805
843.069	22908
843.206	22820
843.343	22889
843.479	22843
843.616	22767
843.752	22637
843.889	22611
844.025	22839
844.162	22569
844.298	22786
844.435	22500
844.571	22508
844.708	22763
844.844	22733
844.98	22691
845.117	22736
845.253	22637
845.389	22432
845.525	22474
845.661	22462
845.798	22382
845.934	22432
846.07	22318
846.206	22242
846.342	22405
846.478	22192
846.614	22112
846.75	22051
846.886	22029
847.022	22162
847.158	22025
847.294	22067
847.429	22242
847.565	22055
847.701	22211
847.837	21899
847.972	21895
848.108	21915
848.244	21945
848.379	21800
848.515	21728
848.65	21599
848.786	21679
848.921	21747
849.057	21804
849.192	21648
849.328	21671
849.463	21663
849.598	21599
849.734	21549
849.869	21485
850.004	21469
850.14	21481
850.275	21572
850.41	21435
850.545	21378
850.68	21408
850.815	21389
850.95	21576
851.085	21507
851.22	21504
851.355	21545
851.49	21443
851.625	21469
851.76	21393
851.895	21325
852.03	21226
852.165	21466
852.299	21370
852.434	21412
852.569	21424
852.703	21530
852.838	21443
852.973	21515
853.107	21599
853.242	21378
853.376	21256
853.511	21173
853.645	21131
853.78	21298
853.914	21294
854.048	21233
854.183	21260
854.317	21252
854.451	21378
854.585	21184
854.72	21237
854.854	21317
854.988	21294
855.122	21214
855.256	21207
855.39	21241
855.524	21374
855.658	21370
855.792	21291
855.926	21195
856.06	21195
856.194	21336
856.327	21214
856.461	21230
856.595	21272
856.729	21173
856.862	21325
856.996	21226
857.13	21359
857.263	21416
857.397	21435
857.53	21310
857.664	21321
857.797	21294
857.931	21408
858.064	21214
858.197	21329
858.331	21252
858.464	21142
858.597	21051
858.731	21154
858.864	21272
858.997	21199
859.13	21272
859.263	21302
859.396	21408
859.529	21298
859.662	21203
859.795	21279
859.928	21154
860.061	21336
860.194	21549
860.327	21146
860.46	21131
860.592	21226
860.725	21431
860.858	21351
860.99	21230
861.123	21214
861.256	21169
861.388	21252
861.521	22105
861.653	21176
861.786	21047
861.918	21195
862.05	21116
862.183	21169
862.315	21096
862.447	21237
862.58	21188
862.712	21005
862.844	20902
862.976	21085
863.108	21161
863.24	21424
863.372	20956
863.504	21070
863.636	21005
863.768	21070
863.9	20975
864.032	20842
864.164	20910
864.296	20929
864.428	21066
864.559	21024
864.691	20982
864.823	20956
864.954	20868
865.086	20967
865.217	20785
865.349	20762
865.48	20845
865.612	20857
865.743	20876
865.875	20872
866.006	20746
866.137	20864
866.269	20842
866.4	20785
866.531	20788
866.662	20727
866.793	20838
866.924	20899
867.055	20804
867.186	20724
867.317	20697
867.448	20655
867.579	20796
867.71	20617
867.841	20750
867.972	20724
868.103	20842
868.233	20750
868.364	20800
868.495	20868
868.625	21032
868.756	21188
868.886	20902
869.017	21077
869.147	21203
869.278	21154
869.408	21119
869.539	21058
869.669	21154
869.799	21051
869.929	21142
870.06	21028
870.19	21332
870.32	21218
870.45	21523
870.58	21443
870.71	21591
870.84	21572
870.97	21515
871.1	21424
871.23	21576
871.36	21523
871.489	21370
871.619	21701
871.749	21591
871.879	21637
872.008	21823
872.138	21667
872.267	21610
872.397	21511
872.526	21291
872.656	21439
872.785	21519
872.915	21720
873.044	21785
873.173	21633
873.303	21781
873.432	21625
873.561	21701
873.69	21641
873.819	21660
873.948	21762
874.077	21576
874.206	21591
874.335	21641
874.464	21800
874.593	21789
874.722	21804
874.851	21987
874.979	21994
875.108	21915
875.237	21774
875.365	21625
875.494	21793
875.623	21964
875.751	21861
875.88	21808
876.008	22040
876.136	21884
876.265	22192
876.393	22379
876.521	22299
876.65	22421
876.778	22337
876.906	22303
877.034	22124
877.162	22329
877.29	22211
877.418	22166
877.546	22177
877.674	22242
877.802	22268
877.93	22207
878.058	22226
878.185	22120
878.313	22200
878.441	22291
878.568	21926
878.696	22135
878.824	22257
878.951	22314
879.079	22367
879.206	22417
879.333	22333
879.461	22234
879.588	22287
879.715	22318
879.842	22470
879.97	22371
880.097	22055
880.224	21998
880.351	22158
880.478	22147
880.605	21945
880.732	21972
880.859	22215
880.986	22109
881.112	22112
881.239	21918
881.366	21781
881.493	21800
881.619	21606
881.746	21618
881.872	21679
881.999	21485
882.125	21515
882.252	21656
882.378	21580
882.505	21751
882.631	21469
882.757	21325
882.883	21329
883.01	21306
883.136	21268
883.262	21165
883.388	21142
883.514	21367
883.64	21329
883.766	21214
883.892	21116
884.018	21119
884.143	21249
884.269	21325
884.395	21028
884.52	20857
884.646	20998
884.772	21009
884.897	20925
885.023	20933
885.148	21096
885.274	21074
885.399	21116
885.524	21017
885.65	21009
885.775	20952
885.9	20986
886.025	21032
886.15	21089
886.275	20876
886.4	20842
886.525	20994
886.65	20887
886.775	20769
886.9	20963
887.025	21066
887.149	20937
887.274	20785
887.399	20716
887.523	20743
887.648	20788
887.773	20651
887.897	20781
888.021	20739
888.146	20682
888.27	20667
888.395	20792
888.519	20750
888.643	20754
888.767	20701
888.891	20625
889.015	20507
889.139	20617
889.263	20469
889.387	20701
889.511	20826
889.635	20606
889.759	20408
889.883	20454
890.006	20587
890.13	20648
890.254	20389
890.377	20446
890.501	20320
890.624	20263
890.748	20362
890.871	20119
890.995	20149
891.118	20031
891.241	20088
891.364	20122
891.488	20153
891.611	19997
891.734	20016
891.857	20122
891.98	20001
892.103	20111
892.226	20062
892.349	20168
892.471	19868
892.594	19940
892.717	20001
892.839	19936
892.962	20065
893.085	20024
893.207	19951
893.33	20035
893.452	20050
893.575	20122
893.697	19921
893.819	20149
893.941	20206
894.064	20043
894.186	19963
894.308	19871
894.43	20016
894.552	20138
894.674	20119
894.796	20001
894.918	20005
895.04	19986
895.161	20100
895.283	20084
895.405	19982
895.526	19913
895.648	19982
895.769	20077
895.891	20016
896.012	20008
896.134	20058
896.255	19959
896.376	19997
896.498	20046
896.619	20046
896.74	19993
896.861	19959
896.982	20298
897.103	20442
897.224	20370
897.345	20290
897.466	20206
897.587	20267
897.708	20454
897.828	20214
897.949	20107
898.07	20001
898.19	20164
898.311	20221
898.431	20081
898.552	20168
898.672	20366
898.792	20214
898.913	20282
899.033	20016
899.153	20119
899.273	19974
899.393	20001
899.513	20001
899.633	19887
899.753	20039
899.873	19883
899.993	20046
900.113	19932
900.232	19833
900.352	19871
900.472	19776
900.591	19746
900.711	19864
900.83	19791
900.95	19761
901.069	19852
901.189	19712
901.308	19396
901.427	19327
901.546	19343
901.665	19350
901.784	19350
901.904	19240
902.023	19179
902.141	18947
902.26	18878
902.379	19031
902.498	18798
902.617	18859
902.735	18954
902.854	18848
902.973	18871
903.091	18555
903.21	18540
903.328	18456
903.446	18407
903.565	18285
903.683	18441
903.801	18224
903.919	18327
904.038	18308
904.156	18148
904.274	18144
904.392	18053
904.51	18034
904.627	18072
904.745	18194
904.863	18133
904.981	18003
905.098	17859
905.216	17832
905.334	17855
905.451	17840
905.569	17764
905.686	17836
905.803	17794
905.921	17634
906.038	17676
906.155	17478
906.272	17471
906.389	17490
906.506	17292
906.623	17307
906.74	17353
906.857	17143
906.974	17311
907.091	17197
907.208	17444
907.324	17280
907.441	17178
907.557	17056
907.674	16991
907.79	16934
907.907	17006
908.023	17143
908.139	17052
908.256	16980
908.372	16976
908.488	16946
908.604	16820
908.72	16725
908.836	16778
908.952	16797
909.068	16786
909.184	16816
909.3	16740
909.415	16717
909.531	16675
909.647	16493
909.762	16421
909.878	16390
909.993	16417
910.108	16409
910.224	16443
910.339	16504
910.454	16265
910.57	16242
910.685	16169
910.8	16516
910.915	16451
911.03	16246
911.145	16067
911.259	16067
911.374	16086
911.489	15972
911.604	15926
911.718	15797
911.833	15857
911.947	15682
912.062	15736
912.176	15762
912.291	15690
912.405	15755
912.519	15899
912.633	15953
912.748	15808
912.862	15770
912.976	15641
913.09	15466
913.204	15660
913.318	15622
913.431	15705
913.545	15644
913.659	15644
913.772	15519
913.886	15454
914	15313
914.113	15416
914.226	15576
914.34	15477
914.453	15279
914.566	15496
914.68	15272
914.793	15279
914.906	15104
915.019	15100
915.132	14967
915.245	14963
915.358	15032
915.47	15028
915.583	14971
915.696	14986
915.809	15157
915.921	15123
916.034	14941
916.146	14849
916.259	14933
916.371	14979
916.483	14952
916.595	14857
916.708	14849
916.82	14838
916.932	14845
917.044	14777
917.156	14857
917.268	14613
917.38	14754
917.491	14610
917.603	14686
917.715	14689
917.826	14731
917.938	14602
918.049	14473
918.161	14674
918.272	14754
918.384	14697
918.495	14594
918.606	14514
918.717	14393
918.828	14518
918.939	14377
919.05	14271
919.161	14374
919.272	14237
919.383	14233
919.494	14450
919.604	14636
919.715	14385
919.826	14309
919.936	14419
920.047	14355
920.157	14431
920.267	14488
920.378	14362
920.488	14320
920.598	14590
920.708	14712
920.818	14495
920.928	14571
921.038	14697
921.148	14644
921.258	14355
921.368	14248
921.477	14172
921.587	14050
921.697	14039
921.806	14142
921.916	13879
922.025	13860
922.134	13757
922.244	13712
922.353	13883
922.462	13613
922.571	13674
922.68	13419
922.789	13495
922.898	13426
923.007	13327
923.116	13472
923.224	13354
923.333	13457
923.442	13308
923.55	13225
923.659	13308
923.767	13289
923.876	13285
923.984	13339
924.092	13114
924.201	13137
924.309	13137
924.417	13187
924.525	13168
924.633	13099
924.741	13951
924.849	12913
924.956	13122
925.064	12882
925.172	12753
925.279	12875
925.387	12920
925.494	12867
925.602	12913
925.709	12890
925.816	12757
925.924	12787
926.031	12814
926.138	12749
926.245	12878
926.352	12795
926.459	12757
926.566	12916
926.673	12700
926.779	12601
926.886	12639
926.993	12441
927.099	12502
927.206	12380
927.312	12452
927.419	12452
927.525	12437
927.631	12422
927.737	12311
927.843	12266
927.95	12197
928.056	12213
928.162	12254
928.267	12266
928.373	12715
928.479	12281
928.585	12034
928.69	12228
928.796	12159
928.901	12121
929.007	11946
929.112	12087
929.218	12136
929.323	11984
929.428	11999
929.533	12068
929.638	11912
929.743	11942
929.848	11935
929.953	11923
930.058	11771
930.163	11615
930.267	11649
930.372	11821
930.477	11570
930.581	11908
930.685	11741
930.79	11543
930.894	11539
930.998	11490
931.103	11657
931.207	11379
931.311	11174
931.415	11174
931.519	10972
931.623	10919
