Data from test_V78500241_1939.txt Node
Date: Fri Mar 25 15:23:21 CST 2022
User: usil
Spectrometer: V785-0024
Trigger mode: 0
Integration Time (sec): 4.000000E-1
Scans to average: 1
Nonlinearity correction enabled: false
Boxcar width: 0
Storing dark spectrum: false
XAxis mode: Wavelengths
Number of Pixels in Spectrum: 1024
>>>>>Begin Spectral Data<<<<<
801.071	27857
801.214	27686
801.356	27530
801.499	27412
801.641	27283
801.783	27325
801.926	27287
802.068	27382
802.211	27291
802.353	27085
802.496	26944
802.638	26998
802.78	26918
802.923	26971
803.065	26750
803.208	26853
803.35	26823
803.492	27024
803.635	27081
803.777	26925
803.919	27123
804.061	27393
804.204	27138
804.346	27005
804.488	26975
804.63	27096
804.773	26876
804.915	27176
805.057	27279
805.199	27062
805.341	27203
805.483	27264
805.626	27169
805.768	27173
805.91	27226
806.052	27329
806.194	27138
806.336	27386
806.478	27100
806.62	27325
806.762	27405
806.904	27408
807.046	27660
807.188	27633
807.33	27591
807.472	27713
807.614	27591
807.756	27530
807.898	27538
808.04	27485
808.182	27469
808.324	27469
808.465	27644
808.607	27671
808.749	27869
808.891	27960
809.033	27998
809.174	27895
809.316	27774
809.458	27850
809.6	27873
809.741	27934
809.883	28059
810.025	28173
810.166	28112
810.308	28002
810.45	28086
810.591	28055
810.733	27850
810.875	27861
811.016	27641
811.158	27736
811.299	27994
811.441	28002
811.582	27945
811.724	27918
811.865	27857
812.007	27690
812.148	27937
812.29	27857
812.431	27941
812.573	28101
812.714	28333
812.855	28257
812.997	28512
813.138	28607
813.279	28550
813.421	28303
813.562	28162
813.703	28131
813.845	27956
813.986	27846
814.127	27747
814.268	27447
814.41	27473
814.551	27603
814.692	27466
814.833	27523
814.974	27420
815.115	27500
815.256	27393
815.397	27469
815.539	27359
815.68	27279
815.821	27252
815.962	27195
816.103	27313
816.244	27146
816.385	27043
816.526	27142
816.666	26975
816.807	26796
816.948	26849
817.089	26998
817.23	26872
817.371	26910
817.512	26830
817.653	26891
817.793	26727
817.934	26769
818.075	26785
818.216	26872
818.356	26682
818.497	26644
818.638	26617
818.778	26499
818.919	26617
819.06	26655
819.2	26644
819.341	26758
819.481	26826
819.622	26819
819.762	27135
819.903	26880
820.043	27085
820.184	26906
820.324	27062
820.465	27062
820.605	26967
820.746	26807
820.886	26800
821.026	26979
821.167	26937
821.307	26929
821.447	26883
821.588	26724
821.728	26522
821.868	26473
822.008	26305
822.149	26480
822.289	26221
822.429	25909
822.569	26035
822.709	25989
822.849	25731
822.99	25826
823.13	25826
823.27	25643
823.41	25651
823.55	25674
823.69	25715
823.83	25712
823.97	25552
824.11	25430
824.25	25346
824.389	25327
824.529	25620
824.669	25396
824.809	25628
824.949	25590
825.089	25381
825.228	25499
825.368	25266
825.508	25122
825.648	25327
825.787	25221
825.927	25438
826.067	25285
826.206	25240
826.346	25266
826.485	25202
826.625	25312
826.765	25449
826.904	25297
827.044	25107
827.183	25110
827.323	24996
827.462	25038
827.601	24973
827.741	24970
827.88	25107
828.02	24951
828.159	24901
828.298	25107
828.437	25046
828.577	25110
828.716	25027
828.855	24894
828.994	24757
829.134	24772
829.273	24859
829.412	24665
829.551	24787
829.69	24753
829.829	24684
829.968	24700
830.107	24905
830.246	24814
830.385	24608
830.524	24566
830.663	24627
830.802	24384
830.941	24441
831.08	24365
831.219	24452
831.357	24330
831.496	24528
831.635	24319
831.774	24232
831.913	24254
832.051	24091
832.19	24072
832.329	24254
832.467	24121
832.606	24011
832.744	23923
832.883	23996
833.022	23984
833.16	24076
833.299	24091
833.437	24034
833.576	24053
833.714	24174
833.852	24098
833.991	24102
834.129	24228
834.267	24098
834.406	24125
834.544	24091
834.682	24117
834.821	23973
834.959	24228
835.097	24003
835.235	24194
835.373	24068
835.511	24125
835.65	23988
835.788	23901
835.926	23821
836.064	23794
836.202	23889
836.34	23802
836.478	23988
836.615	23969
836.753	23912
836.891	23950
837.029	24060
837.167	23851
837.305	23798
837.443	23836
837.58	23821
837.718	23718
837.856	23703
837.993	23794
838.131	23592
838.269	23649
838.406	23653
838.544	23634
838.681	23478
838.819	23512
838.956	23223
839.094	23265
839.231	23307
839.369	23425
839.506	23718
839.643	23459
839.781	23258
839.918	23223
840.055	23261
840.193	23208
840.33	23178
840.467	23223
840.604	23200
840.742	23573
840.879	23052
841.016	23170
841.153	22976
841.29	23280
841.427	23185
841.564	23235
841.701	23185
841.838	23193
841.975	22934
842.112	23052
842.249	23102
842.385	22953
842.522	23025
842.659	22995
842.796	22961
842.933	22801
843.069	22793
843.206	22896
843.343	22961
843.479	22889
843.616	22877
843.752	22774
843.889	22786
844.025	22889
844.162	22687
844.298	22831
844.435	22771
844.571	22622
844.708	22744
844.844	22831
844.98	22843
845.117	22793
845.253	22599
845.389	22554
845.525	22637
845.661	22546
845.798	22409
845.934	22432
846.07	22459
846.206	22523
846.342	22531
846.478	22382
846.614	22093
846.75	22128
846.886	22211
847.022	22158
847.158	22291
847.294	22162
847.429	22268
847.565	22238
847.701	22325
847.837	21797
847.972	21759
848.108	22002
848.244	21915
848.379	21861
848.515	21755
848.65	21739
848.786	21755
848.921	21759
849.057	21751
849.192	21854
849.328	21751
849.463	21732
849.598	21648
849.734	21739
849.869	21622
850.004	21466
850.14	21500
850.275	21542
850.41	21428
850.545	21382
850.68	21473
850.815	21534
850.95	21606
851.085	21713
851.22	21618
851.355	21641
851.49	21595
851.625	21401
851.76	21466
851.895	21462
852.03	21408
852.165	21519
852.299	21492
852.434	21618
852.569	21526
852.703	21424
852.838	21599
852.973	21561
853.107	21644
853.242	21435
853.376	21256
853.511	21264
853.645	21195
853.78	21534
853.914	21279
854.048	21355
854.183	21310
854.317	21412
854.451	21454
854.585	21420
854.72	21348
854.854	21530
854.988	21298
855.122	21249
855.256	21230
855.39	21420
855.524	21454
855.658	21340
855.792	21424
855.926	21279
856.06	21454
856.194	21412
856.327	21245
856.461	21275
856.595	21275
856.729	21211
856.862	21469
856.996	21382
857.13	21256
857.263	21439
857.397	21386
857.53	21405
857.664	21439
857.797	21302
857.931	21507
858.064	21401
858.197	21374
858.331	21363
858.464	21252
858.597	21157
858.731	21329
858.864	21268
858.997	21351
859.13	21329
859.263	21313
859.396	21408
859.529	21431
859.662	21192
859.795	21370
859.928	21344
860.061	21553
860.194	21523
860.327	21363
860.46	21397
860.592	21428
860.725	21519
860.858	21576
860.99	21275
861.123	21249
861.256	21180
861.388	21439
861.521	22010
861.653	21302
861.786	21077
861.918	21146
862.05	21268
862.183	21211
862.315	21275
862.447	21348
862.58	21260
862.712	20990
862.844	20925
862.976	21131
863.108	21146
863.24	21420
863.372	20937
863.504	20998
863.636	20960
863.768	21157
863.9	21005
864.032	21055
864.164	21013
864.296	21051
864.428	21207
864.559	21100
864.691	21047
864.823	21085
864.954	20948
865.086	21058
865.217	20910
865.349	20918
865.48	20883
865.612	20880
865.743	21154
865.875	20883
866.006	20674
866.137	20880
866.269	20956
866.4	20979
866.531	20804
866.662	20902
866.793	20845
866.924	20769
867.055	20830
867.186	21001
867.317	20785
867.448	20925
867.579	20864
867.71	20785
867.841	20693
867.972	20823
868.103	20853
868.233	20921
868.364	20842
868.495	20857
868.625	21138
868.756	21138
868.886	21013
869.017	21096
869.147	21184
869.278	21218
869.408	21169
869.539	21112
869.669	21173
869.799	21184
869.929	21176
870.06	21249
870.19	21473
870.32	21454
870.45	21389
870.58	21405
870.71	21561
870.84	21576
870.97	21355
871.1	21504
871.23	21667
871.36	21679
871.489	21667
871.619	21682
871.749	21675
871.879	21743
872.008	21690
872.138	21679
872.267	21629
872.397	21530
872.526	21599
872.656	21534
872.785	21564
872.915	21648
873.044	21728
873.173	21667
873.303	21876
873.432	21743
873.561	21800
873.69	21766
873.819	21667
873.948	21869
874.077	21747
874.206	21652
874.335	21690
874.464	21823
874.593	22029
874.722	21903
874.851	21979
874.979	21953
875.108	22013
875.237	21835
875.365	21827
875.494	21903
875.623	22131
875.751	21865
875.88	21930
876.008	22215
876.136	22112
876.265	22402
876.393	22428
876.521	22474
876.65	22341
876.778	22360
876.906	22291
877.034	22207
877.162	22386
877.29	22219
877.418	22314
877.546	22413
877.674	22249
877.802	22242
877.93	22253
878.058	22299
878.185	22211
878.313	22322
878.441	22306
878.568	22109
878.696	22196
878.824	22276
878.951	22436
879.079	22443
879.206	22660
879.333	22386
879.461	22325
879.588	22459
879.715	22432
879.842	22664
879.97	22329
880.097	22128
880.224	22185
880.351	22082
880.478	22109
880.605	22078
880.732	22166
880.859	22303
880.986	22120
881.112	22124
881.239	22032
881.366	21941
881.493	21873
881.619	21728
881.746	21736
881.872	21698
881.999	21564
882.125	21644
882.252	21724
882.378	21717
882.505	21755
882.631	21564
882.757	21408
882.883	21485
883.01	21485
883.136	21252
883.262	21275
883.388	21245
883.514	21408
883.64	21458
883.766	21294
883.892	21112
884.018	21211
884.143	21317
884.269	21469
884.395	21100
884.52	20891
884.646	21104
884.772	20979
884.897	20994
885.023	20838
885.148	21062
885.274	21207
885.399	21252
885.524	21036
885.65	20971
885.775	21009
885.9	20960
886.025	21199
886.15	21161
886.275	21020
886.4	20986
886.525	20963
886.65	20952
886.775	20971
886.9	21074
887.025	21169
887.149	21032
887.274	20849
887.399	20792
887.523	20918
887.648	20773
887.773	20689
887.897	20758
888.021	20773
888.146	20720
888.27	20914
888.395	20868
888.519	20842
888.643	20800
888.767	20834
888.891	20773
889.015	20609
889.139	20590
889.263	20514
889.387	20651
889.511	20876
889.635	20819
889.759	20651
889.883	20632
890.006	20682
890.13	20571
890.254	20484
890.377	20503
890.501	20404
890.624	20309
890.748	20339
890.871	20187
890.995	20275
891.118	20218
891.241	20210
891.364	20122
891.488	20339
891.611	20240
891.734	20153
891.857	20161
891.98	20290
892.103	20225
892.226	20168
892.349	20126
892.471	19944
892.594	20016
892.717	20043
892.839	20024
892.962	20043
893.085	20142
893.207	20024
893.33	19932
893.452	20100
893.575	20077
893.697	20153
893.819	20164
893.941	20328
894.064	20187
894.186	20001
894.308	20016
894.43	20218
894.552	20267
894.674	20119
894.796	19993
894.918	20088
895.04	19982
895.161	20153
895.283	19997
895.405	19921
895.526	20145
895.648	20084
895.769	20046
895.891	20077
896.012	20183
896.134	20096
896.255	20100
896.376	19997
896.498	20054
896.619	20122
896.74	20020
896.861	20126
896.982	20309
897.103	20511
897.224	20263
897.345	20199
897.466	20122
897.587	20351
897.708	20389
897.828	20355
897.949	20225
898.07	20107
898.19	20199
898.311	20290
898.431	20271
898.552	20362
898.672	20309
898.792	20271
898.913	20381
899.033	20115
899.153	20065
899.273	20001
899.393	19947
899.513	20058
899.633	20088
899.753	20031
899.873	20107
899.993	20005
900.113	19845
900.232	20058
900.352	19818
900.472	19925
900.591	19822
900.711	19849
900.83	19833
900.95	19894
901.069	19887
901.189	19761
901.308	19445
901.427	19415
901.546	19388
901.665	19434
901.784	19396
901.904	19308
902.023	19187
902.141	18928
902.26	18958
902.379	19126
902.498	18882
902.617	18863
902.735	18875
902.854	18905
902.973	18779
903.091	18574
903.21	18566
903.328	18639
903.446	18570
903.565	18388
903.683	18388
903.801	18296
903.919	18357
904.038	18350
904.156	18087
904.274	18205
904.392	18076
904.51	18121
904.627	18091
904.745	18220
904.863	18266
904.981	17859
905.098	17950
905.216	17756
905.334	17977
905.451	17863
905.569	17764
905.686	17783
905.803	17703
905.921	17630
906.038	17615
906.155	17687
906.272	17543
906.389	17596
906.506	17421
906.623	17337
906.74	17242
906.857	17254
906.974	17216
907.091	17368
907.208	17444
907.324	17330
907.441	17239
907.557	17185
907.674	17075
907.79	16949
907.907	17094
908.023	17056
908.139	17048
908.256	17033
908.372	16968
908.488	16946
908.604	16904
908.72	16752
908.836	16767
908.952	16752
909.068	16850
909.184	16733
909.3	16816
909.415	16850
909.531	16706
909.647	16615
909.762	16550
909.878	16497
909.993	16573
910.108	16371
910.224	16382
910.339	16561
910.454	16382
910.57	16325
910.685	16295
910.8	16417
910.915	16493
911.03	16200
911.145	16158
911.259	16097
911.374	16116
911.489	16059
911.604	16086
911.718	15850
911.833	15968
911.947	15728
912.062	15618
912.176	15804
912.291	15797
912.405	15819
912.519	15918
912.633	16002
912.748	15743
912.862	15861
912.976	15751
913.09	15587
913.204	15686
913.318	15599
913.431	15732
913.545	15698
913.659	15755
913.772	15641
913.886	15485
914	15481
914.113	15534
914.226	15652
914.34	15504
914.453	15321
914.566	15393
914.68	15370
914.793	15249
914.906	15142
915.019	15138
915.132	15062
915.245	15055
915.358	15100
915.47	15066
915.583	15123
915.696	15062
915.809	15081
915.921	15218
916.034	15043
916.146	14849
916.259	14876
916.371	15085
916.483	14902
916.595	14883
916.708	14838
916.82	14929
916.932	14838
917.044	14777
917.156	14773
917.268	14750
917.38	14788
917.491	14739
917.603	14648
917.715	14781
917.826	14785
917.938	14606
918.049	14484
918.161	14716
918.272	14826
918.384	14731
918.495	14636
918.606	14434
918.717	14499
918.828	14541
918.939	14454
919.05	14362
919.161	14495
919.272	14336
919.383	14332
919.494	14473
919.604	14648
919.715	14503
919.826	14362
919.936	14476
920.047	14533
920.157	14465
920.267	14636
920.378	14355
920.488	14393
920.598	14613
920.708	14750
920.818	14598
920.928	14492
921.038	14720
921.148	14708
921.258	14396
921.368	14248
921.477	14202
921.587	14126
921.697	14031
921.806	14172
921.916	14058
922.025	13780
922.134	13849
922.244	13807
922.353	13830
922.462	13696
922.571	13662
922.68	13476
922.789	13468
922.898	13525
923.007	13419
923.116	13502
923.224	13609
923.333	13369
923.442	13255
923.55	13327
923.659	13236
923.767	13297
923.876	13209
923.984	13365
924.092	13213
924.201	13187
924.309	13137
924.417	13236
924.525	13118
924.633	13065
924.741	14001
924.849	12878
924.956	12977
925.064	12932
925.172	12700
925.279	12806
925.387	12954
925.494	12947
925.602	12951
925.709	12913
925.816	12829
925.924	12886
926.031	12939
926.138	12787
926.245	12848
926.352	12764
926.459	12913
926.566	12924
926.673	12677
926.779	12631
926.886	12616
926.993	12578
927.099	12399
927.206	12479
927.312	12407
927.419	12490
927.525	12414
927.631	12452
927.737	12437
927.843	12270
927.95	12224
928.056	12243
928.162	12262
928.267	12304
928.373	12856
928.479	12350
928.585	12133
928.69	12228
928.796	12235
928.901	12091
929.007	11999
929.112	12182
929.218	12175
929.323	12015
929.428	11999
929.533	12152
929.638	11878
929.743	12007
929.848	11984
929.953	11992
930.058	11809
930.163	11676
930.267	11718
930.372	11821
930.477	11676
930.581	11942
930.685	11775
930.79	11558
930.894	11551
930.998	11570
931.103	11699
931.207	11292
931.311	11311
931.415	11143
931.519	11014
931.623	11018
