Data from test_V78500241_1745.txt Node
Date: Fri Mar 25 15:22:00 CST 2022
User: usil
Spectrometer: V785-0024
Trigger mode: 0
Integration Time (sec): 4.000000E-1
Scans to average: 1
Nonlinearity correction enabled: false
Boxcar width: 0
Storing dark spectrum: false
XAxis mode: Wavelengths
Number of Pixels in Spectrum: 1024
>>>>>Begin Spectral Data<<<<<
801.071	27865
801.214	27739
801.356	27523
801.499	27450
801.641	27321
801.783	27416
801.926	27447
802.068	27237
802.211	27298
802.353	27226
802.496	27005
802.638	27081
802.78	26925
802.923	26952
803.065	26800
803.208	27005
803.35	27085
803.492	27039
803.635	27264
803.777	27062
803.919	27127
804.061	27534
804.204	27108
804.346	27100
804.488	27184
804.63	27093
804.773	27017
804.915	27226
805.057	27272
805.199	27074
805.341	27294
805.483	27310
805.626	27382
805.768	27203
805.91	27367
806.052	27294
806.194	27256
806.336	27367
806.478	27230
806.62	27249
806.762	27462
806.904	27564
807.046	27804
807.188	27728
807.33	27595
807.472	27751
807.614	27690
807.756	27663
807.898	27599
808.04	27523
808.182	27488
808.324	27644
808.465	27713
808.607	27800
808.749	27953
808.891	27945
809.033	28036
809.174	28029
809.316	27899
809.458	27914
809.6	27964
809.741	27979
809.883	28055
810.025	28223
810.166	28204
810.308	28360
810.45	28139
810.591	28002
810.733	27937
810.875	27880
811.016	27698
811.158	27724
811.299	27964
811.441	27949
811.582	28036
811.724	27846
811.865	27774
812.007	27956
812.148	27808
812.29	27892
812.431	28048
812.573	28154
812.714	28314
812.855	28466
812.997	28584
813.138	28740
813.279	28561
813.421	28519
813.562	28394
813.703	28246
813.845	28158
813.986	27804
814.127	27816
814.268	27648
814.41	27652
814.551	27542
814.692	27717
814.833	27561
814.974	27485
815.115	27641
815.256	27545
815.397	27542
815.539	27530
815.68	27401
815.821	27374
815.962	27557
816.103	27420
816.244	27325
816.385	27199
816.526	27036
816.666	26918
816.807	26735
816.948	27009
817.089	26982
817.23	26804
817.371	26746
817.512	26982
817.653	26891
817.793	26918
817.934	26929
818.075	26807
818.216	26990
818.356	26834
818.497	26678
818.638	26621
818.778	26549
818.919	26583
819.06	26575
819.2	26895
819.341	26796
819.481	26895
819.622	27032
819.762	27233
819.903	27127
820.043	27104
820.184	27009
820.324	27085
820.465	26986
820.605	26982
820.746	27051
820.886	26891
821.026	27013
821.167	26956
821.307	27138
821.447	26914
821.588	26777
821.728	26629
821.868	26499
822.008	26355
822.149	26442
822.289	26385
822.429	26069
822.569	25982
822.709	26084
822.849	25963
822.99	25898
823.13	25826
823.27	25837
823.41	25632
823.55	25552
823.69	25662
823.83	25689
823.97	25674
824.11	25476
824.25	25445
824.389	25479
824.529	25552
824.669	25594
824.809	25537
824.949	25605
825.089	25624
825.228	25670
825.368	25274
825.508	25453
825.648	25354
825.787	25472
825.927	25464
826.067	25354
826.206	25354
826.346	25358
826.485	25441
826.625	25350
826.765	25540
826.904	25460
827.044	25247
827.183	25152
827.323	25099
827.462	25088
827.601	25084
827.741	25095
827.88	25072
828.02	24958
828.159	25000
828.298	24970
828.437	25129
828.577	24973
828.716	25232
828.855	25057
828.994	24856
829.134	24932
829.273	24791
829.412	24757
829.551	24661
829.69	24745
829.829	24707
829.968	24966
830.107	24913
830.246	24810
830.385	24753
830.524	24639
830.663	24513
830.802	24563
830.941	24323
831.08	24467
831.219	24467
831.357	24608
831.496	24802
831.635	24418
831.774	24369
831.913	24292
832.051	24243
832.19	24235
832.329	24266
832.467	24072
832.606	24057
832.744	24053
832.883	23965
833.022	24022
833.16	24095
833.299	24102
833.437	24114
833.576	24186
833.714	24205
833.852	24270
833.991	24155
834.129	24205
834.267	24330
834.406	24220
834.544	24277
834.682	24121
834.821	24114
834.959	24292
835.097	24144
835.235	24277
835.373	24144
835.511	24095
835.65	24136
835.788	24083
835.926	23847
836.064	23805
836.202	23885
836.34	24083
836.478	24095
836.615	23961
836.753	24064
836.891	23946
837.029	24121
837.167	23904
837.305	23977
837.443	23870
837.58	23843
837.718	23984
837.856	23832
837.993	23779
838.131	23802
838.269	23836
838.406	23646
838.544	23634
838.681	23547
838.819	23524
838.956	23258
839.094	23376
839.231	23406
839.369	23509
839.506	23786
839.643	23577
839.781	23425
839.918	23341
840.055	23315
840.193	23296
840.33	23398
840.467	23284
840.604	23318
840.742	23490
840.879	23121
841.016	23189
841.153	23208
841.29	23398
841.427	23395
841.564	23330
841.701	23231
841.838	23185
841.975	23258
842.112	23197
842.249	23098
842.385	22889
842.522	23170
842.659	23124
842.796	22968
842.933	23094
843.069	23132
843.206	22961
843.343	23143
843.479	22984
843.616	23083
843.752	22968
843.889	22873
844.025	22999
844.162	22854
844.298	22854
844.435	22816
844.571	22767
844.708	22809
844.844	23041
844.98	22938
845.117	22824
845.253	22675
845.389	22694
845.525	22675
845.661	22615
845.798	22432
845.934	22493
846.07	22497
846.206	22535
846.342	22592
846.478	22386
846.614	22352
846.75	22238
846.886	22299
847.022	22333
847.158	22322
847.294	22219
847.429	22272
847.565	22276
847.701	22451
847.837	21945
847.972	21949
848.108	22097
848.244	22002
848.379	21861
848.515	21816
848.65	21895
848.786	21850
848.921	21831
849.057	21998
849.192	21903
849.328	21953
849.463	21789
849.598	21800
849.734	21698
849.869	21842
850.004	21530
850.14	21671
850.275	21618
850.41	21618
850.545	21606
850.68	21523
850.815	21663
850.95	21534
851.085	21895
851.22	21656
851.355	21720
851.49	21595
851.625	21530
851.76	21652
851.895	21538
852.03	21389
852.165	21557
852.299	21568
852.434	21694
852.569	21686
852.703	21675
852.838	21614
852.973	21789
853.107	21648
853.242	21587
853.376	21496
853.511	21252
853.645	21523
853.78	21485
853.914	21428
854.048	21340
854.183	21386
854.317	21557
854.451	21610
854.585	21496
854.72	21450
854.854	21492
854.988	21447
855.122	21393
855.256	21420
855.39	21401
855.524	21568
855.658	21507
855.792	21378
855.926	21412
856.06	21477
856.194	21466
856.327	21344
856.461	21344
856.595	21302
856.729	21408
856.862	21534
856.996	21454
857.13	21519
857.263	21469
857.397	21447
857.53	21416
857.664	21553
857.797	21447
857.931	21481
858.064	21447
858.197	21424
858.331	21420
858.464	21370
858.597	21424
858.731	21431
858.864	21386
858.997	21374
859.13	21340
859.263	21363
859.396	21473
859.529	21420
859.662	21515
859.795	21340
859.928	21511
860.061	21720
860.194	21572
860.327	21504
860.46	21454
860.592	21587
860.725	21564
860.858	21534
860.99	21538
861.123	21199
861.256	21507
861.388	21412
861.521	22135
861.653	21226
861.786	21298
861.918	21195
862.05	21264
862.183	21294
862.315	21367
862.447	21393
862.58	21405
862.712	21131
862.844	21024
862.976	21249
863.108	21146
863.24	21428
863.372	21112
863.504	21157
863.636	21066
863.768	21226
863.9	21211
864.032	21009
864.164	21070
864.296	21272
864.428	21317
864.559	21222
864.691	21222
864.823	21245
864.954	21127
865.086	21070
865.217	21009
865.349	21028
865.48	21100
865.612	20990
865.743	21142
865.875	21009
866.006	21146
866.137	21051
866.269	20975
866.4	21036
866.531	20929
866.662	20994
866.793	21119
866.924	20994
867.055	21096
867.186	21058
867.317	20944
867.448	20914
867.579	20998
867.71	20891
867.841	20868
867.972	20895
868.103	20845
868.233	21009
868.364	20994
868.495	21017
868.625	21203
868.756	21336
868.886	21093
869.017	21249
869.147	21222
869.278	21283
869.408	21283
869.539	21249
869.669	21222
869.799	21222
869.929	21428
870.06	21363
870.19	21504
870.32	21450
870.45	21557
870.58	21500
870.71	21660
870.84	21629
870.97	21481
871.1	21576
871.23	21679
871.36	21835
871.489	21629
871.619	21915
871.749	21800
871.879	21873
872.008	22044
872.138	21861
872.267	21876
872.397	21618
872.526	21553
872.656	21576
872.785	21766
872.915	21835
873.044	21861
873.173	21797
873.303	21873
873.432	21827
873.561	21876
873.69	21846
873.819	21819
873.948	21983
874.077	21926
874.206	21755
874.335	21876
874.464	21876
874.593	21972
874.722	22040
874.851	22139
874.979	22124
875.108	22002
875.237	21968
875.365	21903
875.494	22070
875.623	22204
875.751	22086
875.88	22059
876.008	22173
876.136	22169
876.265	22538
876.393	22607
876.521	22493
876.65	22550
876.778	22421
876.906	22413
877.034	22276
877.162	22470
877.29	22318
877.418	22424
877.546	22352
877.674	22341
877.802	22371
877.93	22276
878.058	22337
878.185	22234
878.313	22337
878.441	22367
878.568	22226
878.696	22291
878.824	22470
878.951	22481
879.079	22668
879.206	22691
879.333	22550
879.461	22402
879.588	22474
879.715	22485
879.842	22512
879.97	22508
880.097	22299
880.224	22166
880.351	22242
880.478	22314
880.605	22173
880.732	22299
880.859	22573
880.986	22287
881.112	22207
881.239	22021
881.366	21972
881.493	21953
881.619	21842
881.746	21850
881.872	21850
881.999	21762
882.125	21717
882.252	21884
882.378	21694
882.505	21835
882.631	21652
882.757	21534
882.883	21583
883.01	21526
883.136	21397
883.262	21344
883.388	21370
883.514	21302
883.64	21492
883.766	21439
883.892	21268
884.018	21355
884.143	21458
884.269	21519
884.395	21222
884.52	20994
884.646	21108
884.772	21055
884.897	20910
885.023	21180
885.148	21184
885.274	21310
885.399	21275
885.524	21081
885.65	21017
885.775	21214
885.9	21173
886.025	21192
886.15	21192
886.275	21161
886.4	21020
886.525	21055
886.65	21157
886.775	21062
886.9	21154
887.025	21348
887.149	21062
887.274	20982
887.399	20876
887.523	20906
887.648	20830
887.773	20853
887.897	21074
888.021	20826
888.146	20754
888.27	20956
888.395	20971
888.519	20921
888.643	20883
888.767	20921
888.891	20762
889.015	20815
889.139	20804
889.263	20648
889.387	20895
889.511	20887
889.635	20781
889.759	20701
889.883	20663
890.006	20617
890.13	20823
890.254	20648
890.377	20693
890.501	20461
890.624	20461
890.748	20408
890.871	20332
890.995	20332
891.118	20191
891.241	20278
891.364	20214
891.488	20377
891.611	20320
891.734	20206
891.857	20366
891.98	20271
892.103	20317
892.226	20263
892.349	20225
892.471	20069
892.594	20252
892.717	20218
892.839	20157
892.962	20202
893.085	20332
893.207	20119
893.33	20084
893.452	20008
893.575	20221
893.697	20130
893.819	20294
893.941	20404
894.064	20191
894.186	20244
894.308	20069
894.43	20244
894.552	20374
894.674	20195
894.796	20008
894.918	20149
895.04	20164
895.161	20233
895.283	20153
895.405	20130
895.526	20122
895.648	20050
895.769	20084
895.891	20050
896.012	20199
896.134	20195
896.255	20134
896.376	20111
896.498	20180
896.619	20187
896.74	20240
896.861	20218
896.982	20415
897.103	20598
897.224	20503
897.345	20404
897.466	20229
897.587	20355
897.708	20461
897.828	20434
897.949	20271
898.07	20309
898.19	20381
898.311	20427
898.431	20358
898.552	20381
898.672	20393
898.792	20263
898.913	20320
899.033	20282
899.153	20126
899.273	20024
899.393	20187
899.513	20282
899.633	20168
899.753	20069
899.873	20008
899.993	20115
900.113	20016
900.232	20039
900.352	20054
900.472	19974
900.591	19887
900.711	19936
900.83	19837
900.95	19932
901.069	19978
901.189	19871
901.308	19620
901.427	19575
901.546	19483
901.665	19468
901.784	19521
901.904	19308
902.023	19225
902.141	19141
902.26	19012
902.379	19050
902.498	18970
902.617	18878
902.735	19023
902.854	18943
902.973	18920
903.091	18658
903.21	18696
903.328	18692
903.446	18601
903.565	18498
903.683	18445
903.801	18407
903.919	18369
904.038	18464
904.156	18140
904.274	18235
904.392	18228
904.51	18190
904.627	18182
904.745	18281
904.863	18258
904.981	18072
905.098	17942
905.216	17874
905.334	17946
905.451	17859
905.569	17920
905.686	17969
905.803	17798
905.921	17779
906.038	17764
906.155	17779
906.272	17520
906.389	17528
906.506	17535
906.623	17452
906.74	17482
906.857	17349
906.974	17436
907.091	17490
907.208	17512
907.324	17379
907.441	17326
907.557	17200
907.674	17193
907.79	17090
907.907	17105
908.023	17231
908.139	17117
908.256	17094
908.372	17022
908.488	17079
908.604	16896
908.72	16869
908.836	16824
908.952	16809
909.068	16923
909.184	16991
909.3	16900
909.415	16847
909.531	16816
909.647	16554
909.762	16630
909.878	16546
909.993	16550
910.108	16542
910.224	16493
910.339	16554
910.454	16257
910.57	16421
910.685	16310
910.8	16577
910.915	16546
911.03	16371
911.145	16177
911.259	16223
911.374	16086
911.489	16124
911.604	16090
911.718	15930
911.833	15869
911.947	15884
912.062	15698
912.176	15895
912.291	16010
912.405	15888
912.519	16048
912.633	16055
912.748	15934
912.862	15861
912.976	15766
913.09	15663
913.204	15694
913.318	15774
913.431	15816
913.545	15778
913.659	15915
913.772	15667
913.886	15553
914	15545
914.113	15618
914.226	15644
914.34	15652
914.453	15488
914.566	15599
914.68	15443
914.793	15428
914.906	15241
915.019	15192
915.132	15013
915.245	15066
915.358	15085
915.47	15180
915.583	15203
915.696	15062
915.809	15218
915.921	15226
916.034	15074
916.146	15119
916.259	14975
916.371	15070
916.483	15077
916.595	14948
916.708	15028
916.82	14952
916.932	14982
917.044	14895
917.156	14906
917.268	14769
917.38	14800
917.491	14663
917.603	14735
917.715	14823
917.826	14857
917.938	14689
918.049	14693
918.161	14754
918.272	14788
918.384	14845
918.495	14819
918.606	14530
918.717	14514
918.828	14465
918.939	14617
919.05	14503
919.161	14537
919.272	14377
919.383	14427
919.494	14522
919.604	14716
919.715	14499
919.826	14476
919.936	14503
920.047	14507
920.157	14575
920.267	14682
920.378	14507
920.488	14431
920.598	14724
920.708	14849
920.818	14606
920.928	14610
921.038	14765
921.148	14659
921.258	14415
921.368	14393
921.477	14195
921.587	14202
921.697	14073
921.806	14225
921.916	14180
922.025	13986
922.134	13856
922.244	13864
922.353	13887
922.462	13742
922.571	13696
922.68	13544
922.789	13476
922.898	13620
923.007	13468
923.116	13518
923.224	13381
923.333	13438
923.442	13297
923.55	13426
923.659	13434
923.767	13453
923.876	13289
923.984	13335
924.092	13213
924.201	13346
924.309	13285
924.417	13278
924.525	13198
924.633	13156
924.741	13993
924.849	13015
924.956	13160
925.064	13012
925.172	12920
925.279	12920
925.387	13046
925.494	12973
925.602	12954
925.709	13027
925.816	12871
925.924	12939
926.031	12878
926.138	12844
926.245	12958
926.352	12856
926.459	12909
926.566	12909
926.673	12837
926.779	12745
926.886	12703
926.993	12528
927.099	12574
927.206	12350
927.312	12399
927.419	12475
927.525	12517
927.631	12475
927.737	12384
927.843	12361
927.95	12190
928.056	12338
928.162	12285
928.267	12437
928.373	13053
928.479	12380
928.585	12133
928.69	12296
928.796	12350
928.901	12140
929.007	11942
929.112	12224
929.218	12163
929.323	12083
929.428	12053
929.533	12201
929.638	12003
929.743	12068
929.848	12087
929.953	11973
930.058	11927
930.163	11718
930.267	11817
930.372	11859
930.477	11707
930.581	11916
930.685	11752
930.79	11592
930.894	11646
930.998	11615
931.103	11729
931.207	11387
931.311	11326
931.415	11315
931.519	11079
931.623	11014
