Data from test_V78500241_1535.txt Node
Date: Fri Mar 25 15:20:32 CST 2022
User: usil
Spectrometer: V785-0024
Trigger mode: 0
Integration Time (sec): 4.000000E-1
Scans to average: 1
Nonlinearity correction enabled: false
Boxcar width: 0
Storing dark spectrum: false
XAxis mode: Wavelengths
Number of Pixels in Spectrum: 1024
>>>>>Begin Spectral Data<<<<<
801.071	28124
801.214	28021
801.356	27926
801.499	27747
801.641	27739
801.783	27637
801.926	27705
802.068	27694
802.211	27644
802.353	27713
802.496	27466
802.638	27481
802.78	27386
802.923	27222
803.065	27420
803.208	27397
803.35	27386
803.492	27454
803.635	27595
803.777	27492
803.919	27629
804.061	27774
804.204	27682
804.346	27427
804.488	27420
804.63	27515
804.773	27439
804.915	27519
805.057	27709
805.199	27561
805.341	27591
805.483	27720
805.626	27690
805.768	27671
805.91	27694
806.052	27698
806.194	27587
806.336	27804
806.478	27736
806.62	27679
806.762	27766
806.904	27972
807.046	28257
807.188	28120
807.33	28226
807.472	28196
807.614	28074
807.756	28055
807.898	28006
808.04	27941
808.182	28078
808.324	28044
808.465	28070
808.607	28215
808.749	28261
808.891	28508
809.033	28455
809.174	28291
809.316	28428
809.458	28207
809.6	28257
809.741	28611
809.883	28375
810.025	28653
810.166	28683
810.308	28630
810.45	28550
810.591	28516
810.733	28310
810.875	28329
811.016	28215
811.158	28367
811.299	28295
811.441	28550
811.582	28573
811.724	28390
811.865	28329
812.007	28329
812.148	28462
812.29	28405
812.431	28504
812.573	28771
812.714	28862
812.855	28820
812.997	29014
813.138	29094
813.279	29029
813.421	28812
813.562	28805
813.703	28793
813.845	28569
813.986	28325
814.127	28109
814.268	28013
814.41	28135
814.551	27987
814.692	28044
814.833	28010
814.974	28070
815.115	28006
815.256	27895
815.397	27922
815.539	27968
815.68	27880
815.821	27785
815.962	28013
816.103	28032
816.244	27793
816.385	27515
816.526	27641
816.666	27291
816.807	27268
816.948	27401
817.089	27469
817.23	27412
817.371	27382
817.512	27313
817.653	27439
817.793	27348
817.934	27291
818.075	27348
818.216	27397
818.356	27161
818.497	27188
818.638	27119
818.778	27195
818.919	27157
819.06	27112
819.2	27256
819.341	27397
819.481	27431
819.622	27534
819.762	27789
819.903	27580
820.043	27439
820.184	27424
820.324	27355
820.465	27587
820.605	27504
820.746	27439
820.886	27298
821.026	27538
821.167	27313
821.307	27523
821.447	27458
821.588	27340
821.728	27157
821.868	26868
822.008	26887
822.149	26891
822.289	26807
822.429	26530
822.569	26461
822.709	26480
822.849	26332
822.99	26328
823.13	26408
823.27	26202
823.41	26145
823.55	25986
823.69	26259
823.83	26218
823.97	26092
824.11	25966
824.25	25917
824.389	26058
824.529	26092
824.669	26008
824.809	26111
824.949	26168
825.089	26088
825.228	25902
825.368	25833
825.508	25776
825.648	25849
825.787	25845
825.927	25925
826.067	25761
826.206	25898
826.346	25860
826.485	25921
826.625	25837
826.765	26073
826.904	25940
827.044	25677
827.183	25655
827.323	25540
827.462	25712
827.601	25605
827.741	25506
827.88	25738
828.02	25438
828.159	25552
828.298	25586
828.437	25578
828.577	25495
828.716	25776
828.855	25438
828.994	25175
829.134	25411
829.273	25369
829.412	25301
829.551	25103
829.69	25244
829.829	25217
829.968	25270
830.107	25373
830.246	25213
830.385	25221
830.524	25099
830.663	25088
830.802	24954
830.941	24821
831.08	24886
831.219	24848
831.357	24992
831.496	25133
831.635	24696
831.774	24806
831.913	24802
832.051	24502
832.19	24528
832.329	24658
832.467	24589
832.606	24642
832.744	24540
832.883	24547
833.022	24616
833.16	24517
833.299	24574
833.437	24642
833.576	24563
833.714	24654
833.852	24616
833.991	24627
834.129	24745
834.267	24772
834.406	24688
834.544	24639
834.682	24559
834.821	24566
834.959	24798
835.097	24555
835.235	24559
835.373	24566
835.511	24441
835.65	24471
835.788	24452
835.926	24292
836.064	24277
836.202	24254
836.34	24369
836.478	24456
836.615	24380
836.753	24464
836.891	24376
837.029	24456
837.167	24342
837.305	24380
837.443	24152
837.58	24285
837.718	24330
837.856	24232
837.993	24110
838.131	24209
838.269	24091
838.406	24174
838.544	24098
838.681	23908
838.819	23923
838.956	23733
839.094	23737
839.231	23779
839.369	23901
839.506	24072
839.643	24072
839.781	23695
839.918	23668
840.055	23707
840.193	23707
840.33	23627
840.467	23707
840.604	23672
840.742	23942
840.879	23528
841.016	23379
841.153	23604
841.29	23714
841.427	23589
841.564	23592
841.701	23520
841.838	23581
841.975	23668
842.112	23524
842.249	23410
842.385	23326
842.522	23672
842.659	23391
842.796	23280
842.933	23383
843.069	23406
843.206	23277
843.343	23337
843.479	23463
843.616	23474
843.752	23231
843.889	23124
844.025	23360
844.162	23071
844.298	23231
844.435	23299
844.571	23064
844.708	23170
844.844	23292
844.98	23463
845.117	23318
845.253	23121
845.389	23029
845.525	23041
845.661	22987
845.798	22911
845.934	22885
846.07	22831
846.206	22911
846.342	22984
846.478	22869
846.614	22618
846.75	22485
846.886	22694
847.022	22679
847.158	22687
847.294	22588
847.429	22618
847.565	22569
847.701	22908
847.837	22249
847.972	22291
848.108	22504
848.244	22440
848.379	22276
848.515	22211
848.65	22173
848.786	22173
848.921	22333
849.057	22291
849.192	22215
849.328	22238
849.463	22192
849.598	22204
849.734	22074
849.869	21998
850.004	22063
850.14	22013
850.275	21949
850.41	21835
850.545	21968
850.68	22006
850.815	21949
850.95	21972
851.085	22253
851.22	22093
851.355	22078
851.49	21880
851.625	21934
851.76	21842
851.895	21873
852.03	21835
852.165	21956
852.299	22097
852.434	21983
852.569	22063
852.703	21968
852.838	21926
852.973	22124
853.107	22070
853.242	21869
853.376	21804
853.511	21720
853.645	21690
853.78	21895
853.914	21873
854.048	21759
854.183	21823
854.317	21739
854.451	21797
854.585	21728
854.72	21739
854.854	21850
854.988	21819
855.122	21823
855.256	21637
855.39	21759
855.524	21812
855.658	21865
855.792	21816
855.926	21682
856.06	21797
856.194	21922
856.327	21812
856.461	21747
856.595	21808
856.729	21755
856.862	21869
856.996	21838
857.13	21800
857.263	21743
857.397	21895
857.53	21816
857.664	21876
857.797	21797
857.931	21873
858.064	21846
858.197	21903
858.331	21625
858.464	21667
858.597	21682
858.731	21671
858.864	21743
858.997	21656
859.13	21789
859.263	21671
859.396	21911
859.529	21812
859.662	21713
859.795	21694
859.928	21728
860.061	22013
860.194	21994
860.327	21770
860.46	21705
860.592	21956
860.725	21964
860.858	21865
860.99	21793
861.123	21827
861.256	21644
861.388	21694
861.521	22462
861.653	21698
861.786	21534
861.918	21637
862.05	21625
862.183	21633
862.315	21793
862.447	21724
862.58	21736
862.712	21542
862.844	21424
862.976	21561
863.108	21526
863.24	21800
863.372	21374
863.504	21466
863.636	21519
863.768	21469
863.9	21515
864.032	21370
864.164	21329
864.296	21515
864.428	21538
864.559	21572
864.691	21545
864.823	21568
864.954	21496
865.086	21542
865.217	21393
865.349	21241
865.48	21344
865.612	21382
865.743	21416
865.875	21405
866.006	21378
866.137	21386
866.269	21359
866.4	21321
866.531	21348
866.662	21214
866.793	21302
866.924	21344
867.055	21306
867.186	21359
867.317	21233
867.448	21188
867.579	21287
867.71	21089
867.841	21260
867.972	21279
868.103	21222
868.233	21367
868.364	21348
868.495	21310
868.625	21435
868.756	21507
868.886	21405
869.017	21648
869.147	21625
869.278	21606
869.408	21507
869.539	21553
869.669	21591
869.799	21530
869.929	21629
870.06	21705
870.19	21766
870.32	21854
870.45	21869
870.58	21987
870.71	21998
870.84	21949
870.97	21892
871.1	21979
871.23	22211
871.36	22131
871.489	21884
871.619	22131
871.749	22135
871.879	22188
872.008	22185
872.138	22219
872.267	22158
872.397	21964
872.526	21979
872.656	21861
872.785	21930
872.915	22211
873.044	22215
873.173	22143
873.303	22162
873.432	22246
873.561	22367
873.69	22177
873.819	22147
873.948	22124
874.077	22196
874.206	22131
874.335	22074
874.464	22295
874.593	22577
874.722	22367
874.851	22440
874.979	22325
875.108	22344
875.237	22181
875.365	22261
875.494	22223
875.623	22329
875.751	22409
875.88	22394
876.008	22508
876.136	22546
876.265	22771
876.393	22698
876.521	22759
876.65	22877
876.778	22653
876.906	22759
877.034	22550
877.162	22729
877.29	22599
877.418	22725
877.546	22664
877.674	22694
877.802	22649
877.93	22713
878.058	22713
878.185	22611
878.313	22550
878.441	22634
878.568	22546
878.696	22740
878.824	22683
878.951	22736
879.079	22820
879.206	23056
879.333	22858
879.461	22767
879.588	22736
879.715	22816
879.842	22953
879.97	22835
880.097	22618
880.224	22390
880.351	22584
880.478	22561
880.605	22615
880.732	22455
880.859	22805
880.986	22531
881.112	22478
881.239	22440
881.366	22257
881.493	22196
881.619	22223
881.746	22128
881.872	22143
881.999	22082
882.125	22040
882.252	22135
882.378	22010
882.505	22185
882.631	21892
882.757	21876
882.883	21869
883.01	21831
883.136	21762
883.262	21682
883.388	21530
883.514	21812
883.64	21751
883.766	21781
883.892	21599
884.018	21576
884.143	21732
884.269	21835
884.395	21557
884.52	21370
884.646	21435
884.772	21298
884.897	21310
885.023	21500
885.148	21488
885.274	21443
885.399	21405
885.524	21454
885.65	21359
885.775	21420
885.9	21329
886.025	21576
886.15	21530
886.275	21268
886.4	21294
886.525	21363
886.65	21279
886.775	21351
886.9	21439
887.025	21622
887.149	21374
887.274	21165
887.399	21142
887.523	21157
887.648	21199
887.773	21192
887.897	21135
888.021	21230
888.146	21070
888.27	21184
888.395	21245
888.519	21283
888.643	21116
888.767	21367
888.891	21070
889.015	21017
889.139	21138
889.263	21074
889.387	21074
889.511	21325
889.635	20960
889.759	20944
889.883	20876
890.006	20887
890.13	21138
890.254	20929
890.377	20918
890.501	20727
890.624	20712
890.748	20682
890.871	20632
890.995	20575
891.118	20602
891.241	20651
891.364	20476
891.488	20571
891.611	20526
891.734	20537
891.857	20640
891.98	20560
892.103	20583
892.226	20484
892.349	20495
892.471	20305
892.594	20465
892.717	20552
892.839	20442
892.962	20473
893.085	20560
893.207	20237
893.33	20263
893.452	20313
893.575	20404
893.697	20408
893.819	20526
893.941	20571
894.064	20609
894.186	20317
894.308	20305
894.43	20579
894.552	20640
894.674	20530
894.796	20271
894.918	20358
895.04	20347
895.161	20568
895.283	20469
895.405	20362
895.526	20480
895.648	20415
895.769	20568
895.891	20381
896.012	20568
896.134	20408
896.255	20389
896.376	20298
896.498	20381
896.619	20480
896.74	20415
896.861	20396
896.982	20868
897.103	20899
897.224	20705
897.345	20625
897.466	20629
897.587	20621
897.708	20659
897.828	20674
897.949	20659
898.07	20404
898.19	20564
898.311	20583
898.431	20590
898.552	20632
898.672	20602
898.792	20731
898.913	20758
899.033	20556
899.153	20495
899.273	20343
899.393	20442
899.513	20385
899.633	20434
899.753	20362
899.873	20305
899.993	20393
900.113	20362
900.232	20263
900.352	20343
900.472	20218
900.591	20161
900.711	20157
900.83	20134
900.95	20206
901.069	20206
901.189	20130
901.308	19780
901.427	19647
901.546	19795
901.665	19693
901.784	19708
901.904	19639
902.023	19525
902.141	19320
902.26	19255
902.379	19278
902.498	19335
902.617	19122
902.735	19282
902.854	19152
902.973	19168
903.091	18894
903.21	18913
903.328	18875
903.446	18886
903.565	18715
903.683	18673
903.801	18681
903.919	18787
904.038	18601
904.156	18483
904.274	18471
904.392	18639
904.51	18342
904.627	18369
904.745	18578
904.863	18513
904.981	18232
905.098	18129
905.216	18194
905.334	18190
905.451	18205
905.569	18121
905.686	18190
905.803	18049
905.921	17935
906.038	18053
906.155	17996
906.272	17851
906.389	17889
906.506	17596
906.623	17687
906.74	17665
906.857	17486
906.974	17608
907.091	17718
907.208	17790
907.324	17630
907.441	17611
907.557	17372
907.674	17398
907.79	17345
907.907	17402
908.023	17414
908.139	17379
908.256	17307
908.372	17402
908.488	17376
908.604	17181
908.72	17117
908.836	17170
908.952	17090
909.068	17155
909.184	17136
909.3	17105
909.415	17159
909.531	17113
909.647	16858
909.762	16885
909.878	16820
909.993	16736
910.108	16683
910.224	16752
910.339	16824
910.454	16679
910.57	16641
910.685	16500
910.8	16809
910.915	16664
911.03	16653
911.145	16440
911.259	16523
911.374	16371
911.489	16360
911.604	16284
911.718	16200
911.833	16116
911.947	16204
912.062	15987
912.176	16139
912.291	16090
912.405	16082
912.519	16329
912.633	16268
912.748	16219
912.862	16093
912.976	16048
913.09	15892
913.204	15953
913.318	16021
913.431	16063
913.545	16082
913.659	15911
913.772	15964
913.886	15739
914	15686
914.113	15770
914.226	15857
914.34	15831
914.453	15679
914.566	15785
914.68	15679
914.793	15595
914.906	15507
915.019	15332
915.132	15256
915.245	15325
915.358	15329
915.47	15473
915.583	15249
915.696	15329
915.809	15481
915.921	15473
916.034	15329
916.146	15249
916.259	15207
916.371	15344
916.483	15310
916.595	15192
916.708	15173
916.82	15150
916.932	15043
917.044	15138
917.156	15131
917.268	15005
917.38	15020
917.491	14914
917.603	14967
917.715	15051
917.826	15066
917.938	14948
918.049	14876
918.161	14929
918.272	15032
918.384	15028
918.495	14910
918.606	14708
918.717	14746
918.828	14758
918.939	14743
919.05	14686
919.161	14667
919.272	14575
919.383	14552
919.494	14754
919.604	14914
919.715	14750
919.826	14610
919.936	14720
920.047	14849
920.157	14670
920.267	14823
920.378	14689
920.488	14762
920.598	14902
920.708	15039
920.818	14807
920.928	14910
921.038	14933
921.148	14933
921.258	14712
921.368	14575
921.477	14499
921.587	14427
921.697	14309
921.806	14556
921.916	14256
922.025	14142
922.134	14126
922.244	14065
922.353	14103
922.462	14020
922.571	13830
922.68	13761
922.789	13734
922.898	13704
923.007	13552
923.116	13772
923.224	13681
923.333	13632
923.442	13609
923.55	13533
923.659	13601
923.767	13518
923.876	13480
923.984	13533
924.092	13445
924.201	13510
924.309	13460
924.417	13400
924.525	13331
924.633	13362
924.741	14267
924.849	13156
924.956	13369
925.064	13133
925.172	13038
925.279	13000
925.387	13171
925.494	13149
925.602	13251
925.709	13072
925.816	12954
925.924	13065
926.031	13164
926.138	13065
926.245	13038
926.352	12924
926.459	13099
926.566	13057
926.673	12985
926.779	12806
926.886	12871
926.993	12844
927.099	12608
927.206	12654
927.312	12646
927.419	12677
927.525	12597
927.631	12669
927.737	12623
927.843	12521
927.95	12437
928.056	12464
928.162	12521
928.267	12551
928.373	13118
928.479	12631
928.585	12350
928.69	12486
928.796	12532
928.901	12380
929.007	12262
929.112	12346
929.218	12407
929.323	12292
929.428	12201
929.533	12369
929.638	12163
929.743	12159
929.848	12178
929.953	12213
930.058	12026
930.163	11893
930.267	11889
930.372	12019
930.477	11866
930.581	12068
930.685	11992
930.79	11882
930.894	11760
930.998	11775
931.103	11885
931.207	11474
931.311	11433
931.415	11353
931.519	11151
931.623	11083
