Data from test_V78500241_3242.txt Node
Date: Fri Mar 25 15:32:26 CST 2022
User: usil
Spectrometer: V785-0024
Trigger mode: 0
Integration Time (sec): 4.000000E-1
Scans to average: 1
Nonlinearity correction enabled: false
Boxcar width: 0
Storing dark spectrum: false
XAxis mode: Wavelengths
Number of Pixels in Spectrum: 1024
>>>>>Begin Spectral Data<<<<<
801.071	27184
801.214	27184
801.356	26857
801.499	26788
801.641	26800
801.783	26640
801.926	26857
802.068	26765
802.211	26590
802.353	26651
802.496	26499
802.638	26282
802.78	26358
802.923	26461
803.065	26298
803.208	26305
803.35	26415
803.492	26518
803.635	26602
803.777	26408
803.919	26552
804.061	26994
804.204	26648
804.346	26507
804.488	26393
804.63	26442
804.773	26404
804.915	26507
805.057	26632
805.199	26480
805.341	26640
805.483	26819
805.626	26602
805.768	26526
805.91	26644
806.052	26678
806.194	26465
806.336	26701
806.478	26629
806.62	26712
806.762	26872
806.904	26960
807.046	27173
807.188	27047
807.33	27173
807.472	27199
807.614	26800
807.756	27028
807.898	26914
808.04	26826
808.182	26826
808.324	26819
808.465	27085
808.607	27100
808.749	27218
808.891	27363
809.033	27340
809.174	27226
809.316	27268
809.458	27294
809.6	27218
809.741	27382
809.883	27424
810.025	27553
810.166	27412
810.308	27538
810.45	27572
810.591	27466
810.733	27245
810.875	27272
811.016	27165
811.158	27161
811.299	27283
811.441	27355
811.582	27359
811.724	27233
811.865	27317
812.007	27310
812.148	27291
812.29	27450
812.431	27424
812.573	27705
812.714	27747
812.855	27724
812.997	27854
813.138	27914
813.279	27823
813.421	27827
813.562	27618
813.703	27500
813.845	27435
813.986	27043
814.127	27013
814.268	26918
814.41	26944
814.551	26826
814.692	26933
814.833	26754
814.974	26834
815.115	26853
815.256	26857
815.397	26617
815.539	26773
815.68	26689
815.821	26530
815.962	26750
816.103	26602
816.244	26450
816.385	26427
816.526	26404
816.666	26404
816.807	26050
816.948	26240
817.089	26370
817.23	26180
817.371	26130
817.512	26153
817.653	26187
817.793	26092
817.934	26142
818.075	26157
818.216	26115
818.356	26263
818.497	26191
818.638	25966
818.778	25860
818.919	25986
819.06	25986
819.2	26092
819.341	26138
819.481	26050
819.622	26294
819.762	26434
819.903	26434
820.043	26096
820.184	26233
820.324	26275
820.465	26225
820.605	26206
820.746	26339
820.886	26092
821.026	26214
821.167	26149
821.307	26221
821.447	26214
821.588	25856
821.728	25879
821.868	25719
822.008	25666
822.149	25632
822.289	25529
822.429	25324
822.569	25217
822.709	25331
822.849	25057
822.99	25114
823.13	25160
823.27	25148
823.41	25000
823.55	24886
823.69	24958
823.83	24890
823.97	24951
824.11	24715
824.25	24681
824.389	24700
824.529	24635
824.669	24730
824.809	24741
824.949	24890
825.089	24798
825.228	24646
825.368	24608
825.508	24593
825.648	24669
825.787	24646
825.927	24673
826.067	24604
826.206	24654
826.346	24768
826.485	24665
826.625	24654
826.765	24673
826.904	24563
827.044	24441
827.183	24384
827.323	24403
827.462	24350
827.601	24239
827.741	24334
827.88	24380
828.02	24194
828.159	24228
828.298	24429
828.437	24334
828.577	24281
828.716	24486
828.855	24270
828.994	24091
829.134	24163
829.273	24133
829.412	23969
829.551	23958
829.69	24007
829.829	24102
829.968	24098
830.107	24041
830.246	24045
830.385	24121
830.524	24030
830.663	23885
830.802	23802
830.941	23729
831.08	23608
831.219	23813
831.357	23832
831.496	23935
831.635	23642
831.774	23554
831.913	23501
832.051	23509
832.19	23463
832.329	23444
832.467	23493
832.606	23292
832.744	23326
832.883	23292
833.022	23315
833.16	23383
833.299	23372
833.437	23406
833.576	23486
833.714	23433
833.852	23592
833.991	23528
834.129	23505
834.267	23482
834.406	23345
834.544	23436
834.682	23448
834.821	23318
834.959	23573
835.097	23311
835.235	23474
835.373	23455
835.511	23436
835.65	23220
835.788	23277
835.926	23033
836.064	22980
836.202	23102
836.34	23250
836.478	23360
836.615	23208
836.753	23318
836.891	23356
837.029	23349
837.167	23227
837.305	23132
837.443	23174
837.58	22957
837.718	23265
837.856	23117
837.993	23079
838.131	23064
838.269	22957
838.406	23170
838.544	22991
838.681	22946
838.819	22755
838.956	22634
839.094	22580
839.231	22592
839.369	22767
839.506	23014
839.643	22877
839.781	22634
839.918	22702
840.055	22535
840.193	22618
840.33	22573
840.467	22481
840.604	22352
840.742	22923
840.879	22398
841.016	22504
841.153	22436
841.29	22687
841.427	22542
841.564	22554
841.701	22516
841.838	22462
841.975	22363
842.112	22405
842.249	22436
842.385	22287
842.522	22470
842.659	22371
842.796	22310
842.933	22226
843.069	22185
843.206	22192
843.343	22379
843.479	22360
843.616	22268
843.752	21987
843.889	22078
844.025	22207
844.162	22128
844.298	22177
844.435	22078
844.571	21968
844.708	22188
844.844	22238
844.98	22166
845.117	22211
845.253	21987
845.389	22120
845.525	22036
845.661	21869
845.798	21880
845.934	21789
846.07	21835
846.206	21724
846.342	21945
846.478	21831
846.614	21557
846.75	21534
846.886	21534
847.022	21530
847.158	21580
847.294	21538
847.429	21549
847.565	21500
847.701	21762
847.837	21332
847.972	21329
848.108	21408
848.244	21260
848.379	21317
848.515	21226
848.65	21017
848.786	21108
848.921	20967
849.057	21199
849.192	21283
849.328	21291
849.463	21233
849.598	21116
849.734	21100
849.869	21020
850.004	20952
850.14	20979
850.275	20910
850.41	20937
850.545	20872
850.68	20864
850.815	20963
850.95	20864
851.085	20967
851.22	21020
851.355	20895
851.49	20937
851.625	20948
851.76	20819
851.895	20868
852.03	20826
852.165	20849
852.299	20967
852.434	20975
852.569	20956
852.703	20830
852.838	20998
852.973	21074
853.107	21028
853.242	20731
853.376	20727
853.511	20636
853.645	20724
853.78	20811
853.914	20773
854.048	20705
854.183	20861
854.317	20819
854.451	20982
854.585	20826
854.72	20739
854.854	20743
854.988	20788
855.122	20815
855.256	20720
855.39	20781
855.524	20853
855.658	20773
855.792	20830
855.926	20792
856.06	20705
856.194	20792
856.327	20659
856.461	20731
856.595	20693
856.729	20849
856.862	20842
856.996	20739
857.13	20796
857.263	20792
857.397	20864
857.53	20667
857.664	20765
857.797	20796
857.931	20914
858.064	20727
858.197	20590
858.331	20686
858.464	20686
858.597	20541
858.731	20716
858.864	20830
858.997	20670
859.13	20796
859.263	20651
859.396	20845
859.529	20781
859.662	20754
859.795	20697
859.928	20765
860.061	20849
860.194	20804
860.327	20739
860.46	20712
860.592	20937
860.725	20944
860.858	21024
860.99	20781
861.123	20754
861.256	20765
861.388	20712
861.521	21268
861.653	20541
861.786	20609
861.918	20575
862.05	20648
862.183	20735
862.315	20682
862.447	20731
862.58	20590
862.712	20499
862.844	20473
862.976	20530
863.108	20431
863.24	20804
863.372	20465
863.504	20511
863.636	20488
863.768	20598
863.9	20552
864.032	20400
864.164	20412
864.296	20332
864.428	20556
864.559	20556
864.691	20522
864.823	20465
864.954	20503
865.086	20484
865.217	20461
865.349	20324
865.48	20484
865.612	20457
865.743	20488
865.875	20328
866.006	20298
866.137	20324
866.269	20377
866.4	20271
866.531	20313
866.662	20446
866.793	20313
866.924	20385
867.055	20229
867.186	20313
867.317	20256
867.448	20214
867.579	20328
867.71	20229
867.841	20225
867.972	20385
868.103	20221
868.233	20328
868.364	20358
868.495	20355
868.625	20476
868.756	20583
868.886	20488
869.017	20507
869.147	20663
869.278	20670
869.408	20560
869.539	20552
869.669	20579
869.799	20568
869.929	20651
870.06	20590
870.19	20693
870.32	20796
870.45	20952
870.58	20899
870.71	21131
870.84	21005
870.97	20857
871.1	20952
871.23	21043
871.36	21165
871.489	21051
871.619	21055
871.749	21119
871.879	21169
872.008	21218
872.138	21017
872.267	21173
872.397	21051
872.526	20967
872.656	20956
872.785	20918
872.915	21188
873.044	21275
873.173	21245
873.303	21142
873.432	21184
873.561	21370
873.69	21192
873.819	21237
873.948	21233
874.077	21116
874.206	21104
874.335	21260
874.464	21291
874.593	21367
874.722	21363
874.851	21473
874.979	21370
875.108	21492
875.237	21294
875.365	21348
875.494	21325
875.623	21355
875.751	21408
875.88	21450
876.008	21450
876.136	21633
876.265	21717
876.393	21930
876.521	21934
876.65	21907
876.778	21831
876.906	21804
877.034	21755
877.162	21785
877.29	21580
877.418	21755
877.546	21736
877.674	21755
877.802	21774
877.93	21785
878.058	21644
878.185	21709
878.313	21652
878.441	21686
878.568	21557
878.696	21743
878.824	21705
878.951	21846
879.079	21937
879.206	22029
879.333	21865
879.461	21816
879.588	21816
879.715	21892
879.842	22029
879.97	21930
880.097	21629
880.224	21637
880.351	21492
880.478	21698
880.605	21614
880.732	21576
880.859	21827
880.986	21504
881.112	21667
881.239	21378
881.366	21260
881.493	21188
881.619	21176
881.746	21089
881.872	21230
881.999	21173
882.125	21100
882.252	21226
882.378	21135
882.505	21203
882.631	20914
882.757	20842
882.883	20990
883.01	20914
883.136	20853
883.262	20758
883.388	20754
883.514	20880
883.64	20853
883.766	20887
883.892	20686
884.018	20659
884.143	20773
884.269	20872
884.395	20701
884.52	20461
884.646	20476
884.772	20518
884.897	20423
885.023	20602
885.148	20617
885.274	20663
885.399	20511
885.524	20686
885.65	20438
885.775	20571
885.9	20594
886.025	20556
886.15	20617
886.275	20473
886.4	20457
886.525	20560
886.65	20366
886.775	20381
886.9	20644
887.025	20716
887.149	20518
887.274	20355
887.399	20256
887.523	20374
887.648	20259
887.773	20282
887.897	20480
888.021	20278
888.146	20233
888.27	20320
888.395	20309
888.519	20301
888.643	20396
888.767	20294
888.891	20267
889.015	20096
889.139	20161
889.263	20077
889.387	20244
889.511	20385
889.635	20278
889.759	20065
889.883	20088
890.006	20199
890.13	20381
890.254	20084
890.377	20027
890.501	19883
890.624	19818
890.748	19883
890.871	19845
890.995	19635
891.118	19609
891.241	19670
891.364	19632
891.488	19742
891.611	19609
891.734	19780
891.857	19742
891.98	19662
892.103	19799
892.226	19772
892.349	19620
892.471	19449
892.594	19525
892.717	19597
892.839	19594
892.962	19578
893.085	19696
893.207	19605
893.33	19548
893.452	19556
893.575	19700
893.697	19552
893.819	19601
893.941	19772
894.064	19658
894.186	19441
894.308	19430
894.43	19666
894.552	19632
894.674	19681
894.796	19495
894.918	19605
895.04	19708
895.161	19594
895.283	19613
895.405	19453
895.526	19552
895.648	19533
895.769	19590
895.891	19571
896.012	19696
896.134	19601
896.255	19655
896.376	19594
896.498	19597
896.619	19685
896.74	19540
896.861	19719
896.982	19849
897.103	20088
897.224	19890
897.345	19856
897.466	19818
897.587	19814
897.708	20050
897.828	19845
897.949	19727
898.07	19635
898.19	19708
898.311	19879
898.431	19689
898.552	19811
898.672	19849
898.792	19898
898.913	19757
899.033	19750
899.153	19662
899.273	19537
899.393	19605
899.513	19613
899.633	19559
899.753	19632
899.873	19411
899.993	19537
900.113	19487
900.232	19548
900.352	19499
900.472	19514
900.591	19297
900.711	19453
900.83	19499
900.95	19483
901.069	19422
901.189	19247
901.308	19053
901.427	18939
901.546	18909
901.665	19034
901.784	19008
901.904	18783
902.023	18779
902.141	18490
902.26	18437
902.379	18563
902.498	18441
902.617	18338
902.735	18544
902.854	18448
902.973	18315
903.091	18129
903.21	18239
903.328	18133
903.446	17965
903.565	17958
903.683	17942
903.801	17901
903.919	17923
904.038	17935
904.156	17687
904.274	17764
904.392	17680
904.51	17707
904.627	17638
904.745	17703
904.863	17813
904.981	17532
905.098	17459
905.216	17429
905.334	17482
905.451	17421
905.569	17501
905.686	17509
905.803	17406
905.921	17094
906.038	17296
906.155	17246
906.272	17109
906.389	17132
906.506	16942
906.623	16869
906.74	16980
906.857	16858
906.974	16801
907.091	17018
907.208	17071
907.324	16987
907.441	16938
907.557	16679
907.674	16691
907.79	16660
907.907	16630
908.023	16660
908.139	16683
908.256	16660
908.372	16565
908.488	16596
908.604	16447
908.72	16382
908.836	16352
908.952	16318
909.068	16466
909.184	16500
909.3	16451
909.415	16417
909.531	16417
909.647	16101
909.762	16105
909.878	16090
909.993	16185
910.108	16261
910.224	16055
910.339	16063
910.454	15922
910.57	15926
910.685	15861
910.8	16143
910.915	16021
911.03	15949
911.145	15789
911.259	15622
911.374	15732
911.489	15633
911.604	15587
911.718	15515
911.833	15435
911.947	15450
912.062	15329
912.176	15496
912.291	15606
912.405	15511
912.519	15637
912.633	15557
912.748	15534
912.862	15408
912.976	15336
913.09	15036
913.204	15291
913.318	15313
913.431	15355
913.545	15348
913.659	15412
913.772	15252
913.886	15089
914	15077
914.113	15214
914.226	15154
914.34	15100
914.453	15043
914.566	15047
914.68	14910
914.793	14956
914.906	14796
915.019	14682
915.132	14617
915.245	14636
915.358	14705
915.47	14758
915.583	14735
915.696	14693
915.809	14826
915.921	14731
916.034	14579
916.146	14564
916.259	14629
916.371	14621
916.483	14655
916.595	14522
916.708	14552
916.82	14564
916.932	14541
917.044	14457
917.156	14457
917.268	14324
917.38	14278
917.491	14408
917.603	14408
917.715	14370
917.826	14499
917.938	14358
918.049	14172
918.161	14267
918.272	14473
918.384	14408
918.495	14301
918.606	14252
918.717	14138
918.828	14134
918.939	14054
919.05	14145
919.161	14084
919.272	13970
919.383	13860
919.494	14180
919.604	14328
919.715	14111
919.826	14046
919.936	14115
920.047	14149
920.157	14092
920.267	14301
920.378	14130
920.488	14016
920.598	14263
920.708	14351
920.818	14195
920.928	14278
921.038	14537
921.148	14385
921.258	14027
921.368	14027
921.477	13947
921.587	13818
921.697	13788
921.806	13913
921.916	13715
922.025	13499
922.134	13499
922.244	13400
922.353	13590
922.462	13308
922.571	13312
922.68	13084
922.789	13137
922.898	13221
923.007	13171
923.116	13251
923.224	13209
923.333	13065
923.442	12966
923.55	12939
923.659	13080
923.767	13057
923.876	12905
923.984	12958
924.092	12909
924.201	13023
924.309	12977
924.417	12954
924.525	12795
924.633	12783
924.741	13681
924.849	12650
924.956	12692
925.064	12688
925.172	12486
925.279	12608
925.387	12635
925.494	12559
925.602	12783
925.709	12654
925.816	12403
925.924	12528
926.031	12692
926.138	12502
926.245	12597
926.352	12471
926.459	12528
926.566	12597
926.673	12513
926.779	12410
926.886	12418
926.993	12289
927.099	12175
927.206	12095
927.312	12117
927.419	12213
927.525	12171
927.631	12117
927.737	12072
927.843	12068
927.95	11885
928.056	11942
928.162	12003
928.267	12022
928.373	12673
928.479	12125
928.585	11794
928.69	12003
928.796	12026
928.901	11878
929.007	11691
929.112	11893
929.218	11809
929.323	11775
929.428	11802
929.533	11786
929.638	11581
929.743	11623
929.848	11741
929.953	11733
930.058	11543
930.163	11467
930.267	11379
930.372	11543
930.477	11467
930.581	11661
930.685	11448
930.79	11273
930.894	11303
930.998	11204
931.103	11471
931.207	11124
931.311	11041
931.415	10850
931.519	10649
931.623	10801
