Data from test_V78500241_2519.txt Node
Date: Fri Mar 25 15:27:23 CST 2022
User: usil
Spectrometer: V785-0024
Trigger mode: 0
Integration Time (sec): 4.000000E-1
Scans to average: 1
Nonlinearity correction enabled: false
Boxcar width: 0
Storing dark spectrum: false
XAxis mode: Wavelengths
Number of Pixels in Spectrum: 1024
>>>>>Begin Spectral Data<<<<<
801.071	27051
801.214	27089
801.356	26880
801.499	26864
801.641	26670
801.783	26541
801.926	26705
802.068	26689
802.211	26682
802.353	26400
802.496	26370
802.638	26453
802.78	26271
802.923	26225
803.065	26195
803.208	26214
803.35	26248
803.492	26355
803.635	26518
803.777	26294
803.919	26495
804.061	26724
804.204	26651
804.346	26381
804.488	26450
804.63	26457
804.773	26248
804.915	26339
805.057	26568
805.199	26396
805.341	26332
805.483	26499
805.626	26453
805.768	26602
805.91	26568
806.052	26549
806.194	26453
806.336	26826
806.478	26571
806.62	26575
806.762	26689
806.904	26826
807.046	27062
807.188	27036
807.33	27005
807.472	26994
807.614	27001
807.756	27017
807.898	26716
808.04	26777
808.182	26648
808.324	26868
808.465	26914
808.607	27005
808.749	27245
808.891	27123
809.033	27226
809.174	27207
809.316	27024
809.458	27104
809.6	27119
809.741	27348
809.883	27279
810.025	27306
810.166	27378
810.308	27378
810.45	27431
810.591	27264
810.733	27028
810.875	27100
811.016	27028
811.158	26967
811.299	27401
811.441	27348
811.582	27241
811.724	27150
811.865	27001
812.007	27100
812.148	27032
812.29	27226
812.431	27378
812.573	27370
812.714	27378
812.855	27633
812.997	27736
813.138	27861
813.279	27743
813.421	27667
813.562	27568
813.703	27386
813.845	27222
813.986	27108
814.127	26857
814.268	26845
814.41	26739
814.551	26826
814.692	26842
814.833	26731
814.974	26758
815.115	26861
815.256	26674
815.397	26629
815.539	26682
815.68	26663
815.821	26503
815.962	26606
816.103	26587
816.244	26488
816.385	26305
816.526	26187
816.666	26210
816.807	26027
816.948	26043
817.089	26122
817.23	26012
817.371	26001
817.512	25974
817.653	25982
817.793	26065
817.934	26008
818.075	26126
818.216	26119
818.356	26020
818.497	25966
818.638	25712
818.778	25753
818.919	25731
819.06	25936
819.2	25875
819.341	26081
819.481	25909
819.622	26176
819.762	26343
819.903	26332
820.043	26172
820.184	26176
820.324	26164
820.465	26183
820.605	26221
820.746	26069
820.886	25932
821.026	26157
821.167	26233
821.307	26218
821.447	25982
821.588	26069
821.728	25814
821.868	25563
822.008	25502
822.149	25575
822.289	25362
822.429	25320
822.569	25141
822.709	25133
822.849	25194
822.99	25019
823.13	24977
823.27	24875
823.41	24932
823.55	24772
823.69	24856
823.83	24730
823.97	24939
824.11	24661
824.25	24589
824.389	24703
824.529	24810
824.669	24623
824.809	24779
824.949	24798
825.089	24776
825.228	24650
825.368	24604
825.508	24551
825.648	24631
825.787	24448
825.927	24593
826.067	24521
826.206	24574
826.346	24604
826.485	24578
826.625	24525
826.765	24745
826.904	24627
827.044	24448
827.183	24376
827.323	24315
827.462	24372
827.601	24216
827.741	24281
827.88	24353
828.02	24266
828.159	24300
828.298	24273
828.437	24163
828.577	24190
828.716	24490
828.855	24186
828.994	23920
829.134	24106
829.273	23988
829.412	23878
829.551	23946
829.69	23866
829.829	23908
829.968	24015
830.107	23927
830.246	24076
830.385	23828
830.524	23980
830.663	23988
830.802	23726
830.941	23604
831.08	23657
831.219	23748
831.357	23653
831.496	23646
831.635	23646
831.774	23539
831.913	23486
832.051	23330
832.19	23493
832.329	23531
832.467	23311
832.606	23379
832.744	23341
832.883	23296
833.022	23181
833.16	23391
833.299	23280
833.437	23322
833.576	23406
833.714	23330
833.852	23452
833.991	23250
834.129	23372
834.267	23414
834.406	23284
834.544	23406
834.682	23417
834.821	23376
834.959	23467
835.097	23334
835.235	23402
835.373	23341
835.511	23360
835.65	23189
835.788	23166
835.926	23121
836.064	22991
836.202	23006
836.34	23250
836.478	23231
836.615	23223
836.753	23269
836.891	23448
837.029	23269
837.167	23113
837.305	23124
837.443	23025
837.58	23041
837.718	23006
837.856	23060
837.993	22968
838.131	22999
838.269	22843
838.406	22930
838.544	22896
838.681	22816
838.819	22694
838.956	22413
839.094	22546
839.231	22630
839.369	22607
839.506	22923
839.643	22793
839.781	22588
839.918	22527
840.055	22630
840.193	22577
840.33	22580
840.467	22466
840.604	22512
840.742	22706
840.879	22390
841.016	22424
841.153	22421
841.29	22660
841.427	22447
841.564	22470
841.701	22379
841.838	22455
841.975	22424
842.112	22493
842.249	22409
842.385	22303
842.522	22516
842.659	22257
842.796	22143
842.933	22234
843.069	22169
843.206	22177
843.343	22413
843.479	22329
843.616	22207
843.752	22006
843.889	22078
844.025	22040
844.162	22002
844.298	22017
844.435	22093
844.571	21998
844.708	21934
844.844	22162
844.98	22128
845.117	22109
845.253	21941
845.389	21960
845.525	21819
845.661	21876
845.798	21667
845.934	21789
846.07	21755
846.206	21709
846.342	21854
846.478	21717
846.614	21523
846.75	21340
846.886	21412
847.022	21599
847.158	21443
847.294	21599
847.429	21538
847.565	21534
847.701	21713
847.837	21237
847.972	21279
848.108	21302
848.244	21230
848.379	21157
848.515	21013
848.65	21055
848.786	21070
848.921	21142
849.057	21154
849.192	21112
849.328	21100
849.463	21131
849.598	20986
849.734	20960
849.869	20937
850.004	20804
850.14	20880
850.275	20914
850.41	20830
850.545	20762
850.68	20815
850.815	20891
850.95	20853
851.085	21028
851.22	20880
851.355	20800
851.49	20819
851.625	20830
851.76	20849
851.895	20845
852.03	20765
852.165	20910
852.299	20849
852.434	21039
852.569	20929
852.703	20849
852.838	20861
852.973	21036
853.107	20948
853.242	20727
853.376	20621
853.511	20476
853.645	20609
853.78	20785
853.914	20678
854.048	20674
854.183	20602
854.317	20754
854.451	20781
854.585	20701
854.72	20659
854.854	20781
854.988	20674
855.122	20640
855.256	20552
855.39	20583
855.524	20697
855.658	20708
855.792	20587
855.926	20587
856.06	20625
856.194	20815
856.327	20693
856.461	20743
856.595	20697
856.729	20632
856.862	20705
856.996	20701
857.13	20769
857.263	20754
857.397	20800
857.53	20708
857.664	20648
857.797	20777
857.931	20773
858.064	20651
858.197	20621
858.331	20655
858.464	20682
858.597	20568
858.731	20606
858.864	20609
858.997	20564
859.13	20686
859.263	20788
859.396	20758
859.529	20533
859.662	20552
859.795	20571
859.928	20739
860.061	20796
860.194	20804
860.327	20693
860.46	20644
860.592	20765
860.725	20887
860.858	20720
860.99	20712
861.123	20587
861.256	20659
861.388	20731
861.521	21344
861.653	20427
861.786	20442
861.918	20454
862.05	20655
862.183	20689
862.315	20579
862.447	20689
862.58	20552
862.712	20465
862.844	20374
862.976	20434
863.108	20336
863.24	20872
863.372	20404
863.504	20469
863.636	20339
863.768	20446
863.9	20324
864.032	20244
864.164	20309
864.296	20374
864.428	20484
864.559	20339
864.691	20396
864.823	20332
864.954	20404
865.086	20374
865.217	20370
865.349	20172
865.48	20275
865.612	20320
865.743	20438
865.875	20377
866.006	20252
866.137	20271
866.269	20271
866.4	20336
866.531	20233
866.662	20164
866.793	20180
866.924	20259
867.055	20259
867.186	20221
867.317	20145
867.448	20134
867.579	20164
867.71	20164
867.841	20161
867.972	20336
868.103	20286
868.233	20275
868.364	20221
868.495	20366
868.625	20484
868.756	20488
868.886	20427
869.017	20404
869.147	20617
869.278	20461
869.408	20446
869.539	20423
869.669	20636
869.799	20484
869.929	20697
870.06	20617
870.19	20785
870.32	20731
870.45	20842
870.58	20785
870.71	20925
870.84	20914
870.97	20906
871.1	20891
871.23	21108
871.36	21077
871.489	20853
871.619	21081
871.749	21119
871.879	21112
872.008	21146
872.138	21131
872.267	21058
872.397	20941
872.526	20971
872.656	21058
872.785	20918
872.915	21138
873.044	21119
873.173	21070
873.303	21070
873.432	21279
873.561	21226
873.69	21036
873.819	21150
873.948	21028
874.077	21211
874.206	21013
874.335	21089
874.464	21237
874.593	21386
874.722	21252
874.851	21386
874.979	21302
875.108	21329
875.237	21355
875.365	21226
875.494	21283
875.623	21454
875.751	21283
875.88	21393
876.008	21412
876.136	21553
876.265	21812
876.393	21816
876.521	21842
876.65	21816
876.778	21720
876.906	21701
877.034	21644
877.162	21762
877.29	21785
877.418	21747
877.546	21622
877.674	21663
877.802	21675
877.93	21713
878.058	21625
878.185	21538
878.313	21622
878.441	21561
878.568	21534
878.696	21667
878.824	21762
878.951	21793
879.079	21880
879.206	22036
879.333	21884
879.461	21812
879.588	21679
879.715	21888
879.842	21895
879.97	21778
880.097	21469
880.224	21694
880.351	21652
880.478	21542
880.605	21477
880.732	21519
880.859	21656
880.986	21553
881.112	21424
881.239	21389
881.366	21180
881.493	21176
881.619	21104
881.746	21032
881.872	21093
881.999	21024
882.125	20986
882.252	21142
882.378	21047
882.505	21207
882.631	21039
882.757	20746
882.883	20979
883.01	20739
883.136	20758
883.262	20735
883.388	20785
883.514	20701
883.64	20864
883.766	20689
883.892	20545
884.018	20651
884.143	20739
884.269	20830
884.395	20556
884.52	20423
884.646	20454
884.772	20355
884.897	20275
885.023	20408
885.148	20598
885.274	20632
885.399	20560
885.524	20461
885.65	20396
885.775	20396
885.9	20507
886.025	20560
886.15	20480
886.275	20465
886.4	20313
886.525	20427
886.65	20309
886.775	20362
886.9	20480
887.025	20697
887.149	20461
887.274	20240
887.399	20248
887.523	20233
887.648	20221
887.773	20221
887.897	20252
888.021	20248
888.146	20202
888.27	20358
888.395	20339
888.519	20301
888.643	20202
888.767	20298
888.891	20214
889.015	20054
889.139	20142
889.263	19955
889.387	20046
889.511	20278
889.635	20092
889.759	20062
889.883	19986
890.006	20111
890.13	20267
890.254	19887
890.377	20031
890.501	19833
890.624	19788
890.748	19928
890.871	19681
890.995	19548
891.118	19567
891.241	19658
891.364	19643
891.488	19734
891.611	19651
891.734	19628
891.857	19651
891.98	19616
892.103	19723
892.226	19556
892.349	19556
892.471	19422
892.594	19544
892.717	19571
892.839	19510
892.962	19502
893.085	19635
893.207	19468
893.33	19445
893.452	19457
893.575	19578
893.697	19559
893.819	19727
893.941	19795
894.064	19609
894.186	19628
894.308	19419
894.43	19544
894.552	19655
894.674	19685
894.796	19510
894.918	19559
895.04	19597
895.161	19514
895.283	19590
895.405	19480
895.526	19529
895.648	19571
895.769	19453
895.891	19559
896.012	19693
896.134	19632
896.255	19616
896.376	19445
896.498	19601
896.619	19597
896.74	19502
896.861	19556
896.982	19811
897.103	19982
897.224	19818
897.345	19898
897.466	19765
897.587	19723
897.708	19959
897.828	19613
897.949	19670
898.07	19571
898.19	19651
898.311	19883
898.431	19734
898.552	19765
898.672	19704
898.792	19742
898.913	19746
899.033	19578
899.153	19540
899.273	19613
899.393	19411
899.513	19480
899.633	19506
899.753	19525
899.873	19434
899.993	19537
900.113	19476
900.232	19499
900.352	19438
900.472	19240
900.591	19152
900.711	19400
900.83	19209
900.95	19381
901.069	19422
901.189	19164
901.308	19012
901.427	18791
901.546	18890
901.665	18897
901.784	18962
901.904	18745
902.023	18692
902.141	18448
902.26	18498
902.379	18604
902.498	18372
902.617	18350
902.735	18509
902.854	18521
902.973	18258
903.091	18030
903.21	18155
903.328	18076
903.446	18011
903.565	17992
903.683	17885
903.801	17786
903.919	17745
904.038	17920
904.156	17668
904.274	17703
904.392	17649
904.51	17657
904.627	17623
904.745	17714
904.863	17608
904.981	17467
905.098	17280
905.216	17303
905.334	17311
905.451	17387
905.569	17258
905.686	17231
905.803	17360
905.921	17250
906.038	17303
906.155	17216
906.272	17121
906.389	17071
906.506	16908
906.623	16885
906.74	16839
906.857	16755
906.974	16771
907.091	16923
907.208	16949
907.324	16923
907.441	16786
907.557	16641
907.674	16603
907.79	16459
907.907	16554
908.023	16698
908.139	16561
908.256	16554
908.372	16508
908.488	16455
908.604	16280
908.72	16371
908.836	16379
908.952	16322
909.068	16424
909.184	16470
909.3	16310
909.415	16310
909.531	16284
909.647	16078
909.762	16158
909.878	16021
909.993	16029
910.108	16059
910.224	16051
910.339	15998
910.454	15888
910.57	15888
910.685	15888
910.8	15998
910.915	15964
911.03	15926
911.145	15720
911.259	15736
911.374	15595
911.489	15618
911.604	15652
911.718	15397
911.833	15408
911.947	15393
912.062	15313
912.176	15485
912.291	15458
912.405	15515
912.519	15625
912.633	15603
912.748	15462
912.862	15370
912.976	15211
913.09	15123
913.204	15123
913.318	15222
913.431	15302
913.545	15302
913.659	15340
913.772	15165
913.886	15104
914	14979
914.113	15119
914.226	15150
914.34	15108
914.453	14880
914.566	15150
914.68	14883
914.793	14933
914.906	14739
915.019	14602
915.132	14556
915.245	14640
915.358	14556
915.47	14621
915.583	14541
915.696	14689
915.809	14765
915.921	14735
916.034	14670
916.146	14587
916.259	14610
916.371	14678
916.483	14571
916.595	14526
916.708	14457
916.82	14533
916.932	14507
917.044	14503
917.156	14370
917.268	14317
917.38	14294
917.491	14263
917.603	14298
917.715	14389
917.826	14317
917.938	14351
918.049	14115
918.161	14191
918.272	14339
918.384	14332
918.495	14332
918.606	14161
918.717	14035
918.828	14138
918.939	14054
919.05	14043
919.161	14065
919.272	14020
919.383	13875
919.494	14088
919.604	14278
919.715	14088
919.826	14024
919.936	13959
920.047	14244
920.157	14119
920.267	14229
920.378	14043
920.488	13967
920.598	14267
920.708	14461
920.818	14206
920.928	14123
921.038	14271
921.148	14237
921.258	13932
921.368	13986
921.477	13841
921.587	13784
921.697	13651
921.806	13826
921.916	13723
922.025	13586
922.134	13441
922.244	13419
922.353	13483
922.462	13407
922.571	13339
922.68	13198
922.789	13107
922.898	13099
923.007	13042
923.116	13122
923.224	13164
923.333	13069
923.442	13057
923.55	12913
923.659	13023
923.767	13015
923.876	12833
923.984	12928
924.092	12848
924.201	12821
924.309	12783
924.417	12905
924.525	12753
924.633	12719
924.741	13715
924.849	12597
924.956	12757
925.064	12597
925.172	12483
925.279	12433
925.387	12521
925.494	12467
925.602	12646
925.709	12460
925.816	12403
925.924	12467
926.031	12551
926.138	12506
926.245	12506
926.352	12380
926.459	12570
926.566	12513
926.673	12426
926.779	12258
926.886	12311
926.993	12178
927.099	12152
927.206	12144
927.312	12129
927.419	12133
927.525	12041
927.631	12175
927.737	12076
927.843	11946
927.95	11863
928.056	11973
928.162	11950
928.267	11950
928.373	12604
928.479	12041
928.585	11737
928.69	11942
928.796	11885
928.901	11901
929.007	11600
929.112	11794
929.218	11821
929.323	11783
929.428	11722
929.533	11817
929.638	11581
929.743	11570
929.848	11745
929.953	11600
930.058	11535
930.163	11383
930.267	11376
930.372	11490
930.477	11322
930.581	11592
930.685	11436
930.79	11254
930.894	11292
930.998	11239
931.103	11448
931.207	11025
931.311	10919
931.415	10934
931.519	10774
931.623	10672
