Data from test_V78500241_3321.txt Node
Date: Fri Mar 25 15:32:59 CST 2022
User: usil
Spectrometer: V785-0024
Trigger mode: 0
Integration Time (sec): 4.000000E-1
Scans to average: 1
Nonlinearity correction enabled: false
Boxcar width: 0
Storing dark spectrum: false
XAxis mode: Wavelengths
Number of Pixels in Spectrum: 1024
>>>>>Begin Spectral Data<<<<<
801.071	27294
801.214	27321
801.356	26994
801.499	27036
801.641	26921
801.783	26834
801.926	26921
802.068	26899
802.211	26853
802.353	26792
802.496	26621
802.638	26492
802.78	26434
802.923	26328
803.065	26427
803.208	26355
803.35	26537
803.492	26701
803.635	26594
803.777	26514
803.919	26511
804.061	26880
804.204	26765
804.346	26518
804.488	26537
804.63	26518
804.773	26575
804.915	26499
805.057	26689
805.199	26724
805.341	26670
805.483	26830
805.626	26845
805.768	26594
805.91	26834
806.052	26750
806.194	26746
806.336	26849
806.478	26735
806.62	26781
806.762	26804
806.904	26857
807.046	27131
807.188	27321
807.33	27104
807.472	27199
807.614	27131
807.756	27074
807.898	26994
808.04	26944
808.182	27108
808.324	27081
808.465	27032
808.607	27203
808.749	27485
808.891	27447
809.033	27435
809.174	27386
809.316	27340
809.458	27393
809.6	27233
809.741	27374
809.883	27469
810.025	27671
810.166	27679
810.308	27743
810.45	27637
810.591	27641
810.733	27420
810.875	27272
811.016	27203
811.158	27397
811.299	27523
811.441	27477
811.582	27553
811.724	27393
811.865	27389
812.007	27329
812.148	27420
812.29	27310
812.431	27374
812.573	27644
812.714	27766
812.855	27903
812.997	27926
813.138	27960
813.279	28029
813.421	27819
813.562	27736
813.703	27671
813.845	27454
813.986	27260
814.127	27161
814.268	27009
814.41	27066
814.551	26902
814.692	27135
814.833	26823
814.974	26880
815.115	27161
815.256	26899
815.397	26929
815.539	26842
815.68	26735
815.821	26792
815.962	26811
816.103	26823
816.244	26609
816.385	26518
816.526	26537
816.666	26446
816.807	26355
816.948	26324
817.089	26332
817.23	26263
817.371	26225
817.512	26240
817.653	26244
817.793	26164
817.934	26180
818.075	26286
818.216	26290
818.356	26301
818.497	26145
818.638	26005
818.778	25890
818.919	26054
819.06	26046
819.2	26183
819.341	26244
819.481	26252
819.622	26431
819.762	26724
819.903	26560
820.043	26427
820.184	26370
820.324	26347
820.465	26434
820.605	26412
820.746	26317
820.886	26191
821.026	26309
821.167	26275
821.307	26377
821.447	26206
821.588	26168
821.728	26050
821.868	25978
822.008	25830
822.149	25818
822.289	25624
822.429	25460
822.569	25529
822.709	25525
822.849	25278
822.99	25324
823.13	25194
823.27	25266
823.41	25206
823.55	24821
823.69	25080
823.83	25145
823.97	25107
824.11	24928
824.25	24677
824.389	24776
824.529	24939
824.669	24863
824.809	25084
824.949	25004
825.089	25038
825.228	24989
825.368	24639
825.508	24749
825.648	24806
825.787	24753
825.927	24867
826.067	24802
826.206	24719
826.346	24802
826.485	24844
826.625	24665
826.765	24920
826.904	24684
827.044	24509
827.183	24574
827.323	24388
827.462	24536
827.601	24532
827.741	24384
827.88	24563
828.02	24361
828.159	24460
828.298	24513
828.437	24593
828.577	24304
828.716	24483
828.855	24353
828.994	24159
829.134	24213
829.273	24296
829.412	24110
829.551	24072
829.69	24213
829.829	24209
829.968	24228
830.107	24235
830.246	24239
830.385	24117
830.524	24098
830.663	24018
830.802	23901
830.941	23771
831.08	23775
831.219	23897
831.357	23916
831.496	24095
831.635	23836
831.774	23695
831.913	23699
832.051	23680
832.19	23615
832.329	23592
832.467	23421
832.606	23353
832.744	23417
832.883	23395
833.022	23414
833.16	23493
833.299	23630
833.437	23455
833.576	23680
833.714	23592
833.852	23562
833.991	23646
834.129	23630
834.267	23592
834.406	23710
834.544	23551
834.682	23566
834.821	23444
834.959	23714
835.097	23543
835.235	23577
835.373	23596
835.511	23531
835.65	23436
835.788	23440
835.926	23368
836.064	23216
836.202	23284
836.34	23280
836.478	23463
836.615	23360
836.753	23368
836.891	23505
837.029	23341
837.167	23337
837.305	23303
837.443	23277
837.58	23364
837.718	23349
837.856	23273
837.993	23235
838.131	23258
838.269	23197
838.406	23250
838.544	23102
838.681	22858
838.819	22942
838.956	22767
839.094	22759
839.231	22862
839.369	22908
839.506	23147
839.643	23014
839.781	22698
839.918	22660
840.055	22668
840.193	22634
840.33	22763
840.467	22660
840.604	22710
840.742	23006
840.879	22504
841.016	22508
841.153	22626
841.29	22710
841.427	22557
841.564	22546
841.701	22561
841.838	22630
841.975	22618
842.112	22565
842.249	22474
842.385	22451
842.522	22717
842.659	22447
842.796	22329
842.933	22478
843.069	22500
843.206	22314
843.343	22592
843.479	22421
843.616	22379
843.752	22177
843.889	22219
844.025	22204
844.162	22211
844.298	22367
844.435	22246
844.571	22207
844.708	22276
844.844	22306
844.98	22322
845.117	22314
845.253	22135
845.389	22017
845.525	22185
845.661	22002
845.798	22006
845.934	22002
846.07	21960
846.206	21972
846.342	22086
846.478	21857
846.614	21709
846.75	21576
846.886	21591
847.022	21694
847.158	21663
847.294	21701
847.429	21819
847.565	21641
847.701	21812
847.837	21401
847.972	21340
848.108	21606
848.244	21511
848.379	21317
848.515	21245
848.65	21306
848.786	21245
848.921	21150
849.057	21378
849.192	21294
849.328	21199
849.463	21142
849.598	21252
849.734	21199
849.869	21131
850.004	21085
850.14	21036
850.275	21036
850.41	20975
850.545	20937
850.68	20998
850.815	20975
850.95	20982
851.085	21256
851.22	21135
851.355	21096
851.49	21104
851.625	21036
851.76	21032
851.895	20921
852.03	20937
852.165	20979
852.299	21085
852.434	21089
852.569	21108
852.703	21032
852.838	20994
852.973	21135
853.107	21077
853.242	20918
853.376	20777
853.511	20602
853.645	20773
853.78	20952
853.914	20857
854.048	20777
854.183	20750
854.317	20864
854.451	21028
854.585	20876
854.72	20815
854.854	20979
854.988	20792
855.122	20876
855.256	20743
855.39	20845
855.524	20918
855.658	20872
855.792	20971
855.926	20830
856.06	20986
856.194	21005
856.327	20834
856.461	20785
856.595	20773
856.729	20769
856.862	20937
856.996	20826
857.13	20906
857.263	21005
857.397	21013
857.53	20929
857.664	21001
857.797	20982
857.931	20918
858.064	20788
858.197	20910
858.331	20948
858.464	20800
858.597	20796
858.731	20853
858.864	20921
858.997	20826
859.13	20918
859.263	20857
859.396	20895
859.529	20845
859.662	20823
859.795	20883
859.928	20872
860.061	20941
860.194	21001
860.327	20925
860.46	20902
860.592	21058
860.725	20990
860.858	20960
860.99	20914
861.123	20731
861.256	20724
861.388	20834
861.521	21469
861.653	20648
861.786	20648
861.918	20735
862.05	20689
862.183	20735
862.315	20834
862.447	20921
862.58	20899
862.712	20492
862.844	20587
862.976	20640
863.108	20739
863.24	21138
863.372	20476
863.504	20583
863.636	20514
863.768	20708
863.9	20560
864.032	20537
864.164	20522
864.296	20590
864.428	20663
864.559	20632
864.691	20701
864.823	20648
864.954	20594
865.086	20579
865.217	20404
865.349	20408
865.48	20507
865.612	20343
865.743	20651
865.875	20632
866.006	20457
866.137	20400
866.269	20575
866.4	20412
866.531	20404
866.662	20377
866.793	20408
866.924	20484
867.055	20549
867.186	20358
867.317	20461
867.448	20374
867.579	20438
867.71	20343
867.841	20336
867.972	20522
868.103	20377
868.233	20484
868.364	20530
868.495	20670
868.625	20663
868.756	20823
868.886	20705
869.017	20659
869.147	20868
869.278	20743
869.408	20701
869.539	20712
869.669	20857
869.799	20689
869.929	20838
870.06	20857
870.19	21058
870.32	21032
870.45	20994
870.58	21195
870.71	21260
870.84	21157
870.97	21093
871.1	21043
871.23	21211
871.36	21340
871.489	21192
871.619	21348
871.749	21310
871.879	21351
872.008	21382
872.138	21401
872.267	21207
872.397	21100
872.526	21058
872.656	21157
872.785	21142
872.915	21431
873.044	21351
873.173	21249
873.303	21431
873.432	21359
873.561	21382
873.69	21443
873.819	21283
873.948	21340
874.077	21332
874.206	21351
874.335	21291
874.464	21374
874.593	21507
874.722	21443
874.851	21663
874.979	21606
875.108	21534
875.237	21545
875.365	21424
875.494	21587
875.623	21610
875.751	21587
875.88	21545
876.008	21633
876.136	21709
876.265	21968
876.393	22188
876.521	21911
876.65	21941
876.778	22086
876.906	22006
877.034	21865
877.162	21873
877.29	21857
877.418	21880
877.546	21930
877.674	21823
877.802	21850
877.93	21972
878.058	21922
878.185	21785
878.313	21922
878.441	21888
878.568	21766
878.696	21835
878.824	21934
878.951	22029
879.079	22021
879.206	22112
879.333	22032
879.461	21899
879.588	22090
879.715	22105
879.842	22162
879.97	22048
880.097	21656
880.224	21679
880.351	21743
880.478	21835
880.605	21633
880.732	21739
880.859	21865
880.986	21724
881.112	21755
881.239	21633
881.366	21599
881.493	21393
881.619	21344
881.746	21348
881.872	21332
881.999	21382
882.125	21123
882.252	21313
882.378	21351
882.505	21450
882.631	21184
882.757	21108
882.883	20868
883.01	21081
883.136	20956
883.262	20975
883.388	20906
883.514	21051
883.64	20963
883.766	21028
883.892	20845
884.018	20845
884.143	20941
884.269	21024
884.395	20712
884.52	20655
884.646	20583
884.772	20648
884.897	20522
885.023	20571
885.148	20674
885.274	20781
885.399	20785
885.524	20716
885.65	20762
885.775	20750
885.9	20571
886.025	20689
886.15	20693
886.275	20583
886.4	20457
886.525	20499
886.65	20678
886.775	20648
886.9	20872
887.025	20815
887.149	20571
887.274	20522
887.399	20473
887.523	20507
887.648	20328
887.773	20309
887.897	20552
888.021	20324
888.146	20389
888.27	20514
888.395	20469
888.519	20530
888.643	20427
888.767	20499
888.891	20415
889.015	20305
889.139	20377
889.263	20172
889.387	20298
889.511	20408
889.635	20248
889.759	20313
889.883	20130
890.006	20252
890.13	20328
890.254	20138
890.377	20221
890.501	20046
890.624	20024
890.748	20012
890.871	19951
890.995	19890
891.118	19871
891.241	19894
891.364	19887
891.488	19986
891.611	19841
891.734	19670
891.857	19818
891.98	19849
892.103	19845
892.226	19826
892.349	19757
892.471	19594
892.594	19731
892.717	19677
892.839	19715
892.962	19849
893.085	19845
893.207	19723
893.33	19548
893.452	19628
893.575	19830
893.697	19738
893.819	19837
893.941	19902
894.064	19772
894.186	19704
894.308	19655
894.43	19784
894.552	19928
894.674	19849
894.796	19727
894.918	19647
895.04	19761
895.161	19719
895.283	19811
895.405	19624
895.526	19685
895.648	19605
895.769	19761
895.891	19772
896.012	19795
896.134	19811
896.255	19719
896.376	19613
896.498	19719
896.619	19738
896.74	19712
896.861	19753
896.982	19940
897.103	20225
897.224	20031
897.345	19932
897.466	19788
897.587	20024
897.708	20069
897.828	20012
897.949	19852
898.07	19913
898.19	19864
898.311	19963
898.431	19921
898.552	19871
898.672	19944
898.792	20016
898.913	20050
899.033	19826
899.153	19837
899.273	19624
899.393	19708
899.513	19753
899.633	19803
899.753	19769
899.873	19715
899.993	19750
900.113	19548
900.232	19628
900.352	19537
900.472	19563
900.591	19411
900.711	19476
900.83	19403
900.95	19582
901.069	19582
901.189	19400
901.308	19114
901.427	19118
901.546	19133
901.665	19099
901.784	19053
901.904	19012
902.023	18814
902.141	18711
902.26	18563
902.379	18623
902.498	18661
902.617	18616
902.735	18620
902.854	18559
902.973	18467
903.091	18285
903.21	18342
903.328	18289
903.446	18304
903.565	18209
903.683	18190
903.801	18125
903.919	18015
904.038	18041
904.156	17847
904.274	17950
904.392	17786
904.51	17786
904.627	17923
904.745	17805
904.863	17863
904.981	17630
905.098	17482
905.216	17501
905.334	17619
905.451	17615
905.569	17482
905.686	17493
905.803	17436
905.921	17376
906.038	17440
906.155	17360
906.272	17258
906.389	17322
906.506	17041
906.623	17086
906.74	17041
906.857	16938
906.974	16957
907.091	17041
907.208	17208
907.324	17185
907.441	16934
907.557	16782
907.674	16744
907.79	16653
907.907	16767
908.023	16790
908.139	16786
908.256	16744
908.372	16702
908.488	16653
908.604	16607
908.72	16436
908.836	16565
908.952	16455
909.068	16451
909.184	16550
909.3	16459
909.415	16630
909.531	16451
909.647	16257
909.762	16246
909.878	16173
909.993	16284
910.108	16253
910.224	16211
910.339	16192
910.454	16124
910.57	16036
910.685	15876
910.8	16276
910.915	16093
911.03	15956
911.145	15854
911.259	15778
911.374	15789
911.489	15698
911.604	15694
911.718	15587
911.833	15637
911.947	15622
912.062	15450
912.176	15580
912.291	15667
912.405	15637
912.519	15781
912.633	15709
912.748	15637
912.862	15492
912.976	15447
913.09	15230
913.204	15458
913.318	15336
913.431	15564
913.545	15428
913.659	15488
913.772	15370
913.886	15226
914	15241
914.113	15237
914.226	15252
914.34	15214
914.453	15112
914.566	15252
914.68	15051
914.793	15028
914.906	14986
915.019	14849
915.132	14750
915.245	14746
915.358	14796
915.47	14838
915.583	14830
915.696	14849
915.809	14902
915.921	14937
916.034	14819
916.146	14659
916.259	14674
916.371	14811
916.483	14659
916.595	14674
916.708	14720
916.82	14579
916.932	14568
917.044	14644
917.156	14533
917.268	14438
917.38	14526
917.491	14476
917.603	14514
917.715	14484
917.826	14499
917.938	14442
918.049	14305
918.161	14446
918.272	14461
918.384	14518
918.495	14431
918.606	14309
918.717	14229
918.828	14267
918.939	14206
919.05	14111
919.161	14252
919.272	14046
919.383	14088
919.494	14229
919.604	14423
919.715	14218
919.826	14172
919.936	14161
920.047	14278
920.157	14240
920.267	14400
920.378	14168
920.488	14130
920.598	14328
920.708	14499
920.818	14366
920.928	14389
921.038	14469
921.148	14400
921.258	14107
921.368	14065
921.477	13989
921.587	13917
921.697	13803
921.806	13909
921.916	13811
922.025	13712
922.134	13525
922.244	13613
922.353	13651
922.462	13457
922.571	13491
922.68	13209
922.789	13301
922.898	13263
923.007	13168
923.116	13289
923.224	13164
923.333	13232
923.442	13099
923.55	13000
923.659	13114
923.767	13183
923.876	13069
923.984	13004
924.092	12989
924.201	13084
924.309	13019
924.417	13080
924.525	12966
924.633	12848
924.741	13826
924.849	12734
924.956	12821
925.064	12741
925.172	12544
925.279	12726
925.387	12650
925.494	12688
925.602	12753
925.709	12738
925.816	12528
925.924	12627
926.031	12627
926.138	12673
926.245	12639
926.352	12471
926.459	12597
926.566	12711
926.673	12570
926.779	12372
926.886	12399
926.993	12262
927.099	12273
927.206	12213
927.312	12117
927.419	12216
927.525	12182
927.631	12277
927.737	12102
927.843	12140
927.95	11969
928.056	12129
928.162	12098
928.267	12079
928.373	12570
928.479	12133
928.585	11901
928.69	12053
928.796	12057
928.901	11988
929.007	11828
929.112	11931
929.218	11916
929.323	11805
929.428	11733
929.533	11901
929.638	11741
929.743	11813
929.848	11745
929.953	11737
930.058	11581
930.163	11463
930.267	11611
930.372	11703
930.477	11410
930.581	11642
930.685	11577
930.79	11368
930.894	11372
930.998	11368
931.103	11524
931.207	11185
931.311	11083
931.415	11037
931.519	10820
931.623	10767
