Data from test_V78500241_890.txt Node
Date: Fri Mar 25 15:16:03 CST 2022
User: usil
Spectrometer: V785-0024
Trigger mode: 0
Integration Time (sec): 4.000000E-1
Scans to average: 1
Nonlinearity correction enabled: false
Boxcar width: 0
Storing dark spectrum: false
XAxis mode: Wavelengths
Number of Pixels in Spectrum: 1024
>>>>>Begin Spectral Data<<<<<
801.071	28242
801.214	28135
801.356	27918
801.499	27861
801.641	27865
801.783	27682
801.926	27747
802.068	27804
802.211	27717
802.353	27648
802.496	27427
802.638	27386
802.78	27507
802.923	27386
803.065	27389
803.208	27477
803.35	27523
803.492	27496
803.635	27591
803.777	27408
803.919	27679
804.061	27914
804.204	27644
804.346	27610
804.488	27557
804.63	27648
804.773	27576
804.915	27743
805.057	27876
805.199	27743
805.341	27736
805.483	27895
805.626	27827
805.768	27663
805.91	27751
806.052	27785
806.194	27682
806.336	27907
806.478	27762
806.62	27876
806.762	28044
806.904	28006
807.046	28188
807.188	28261
807.33	28181
807.472	28204
807.614	28253
807.756	28230
807.898	27987
808.04	27991
808.182	28109
808.324	28166
808.465	27994
808.607	28291
808.749	28261
808.891	28474
809.033	28691
809.174	28481
809.316	28405
809.458	28489
809.6	28561
809.741	28596
809.883	28485
810.025	28736
810.166	28793
810.308	28862
810.45	28687
810.591	28599
810.733	28519
810.875	28459
811.016	28516
811.158	28470
811.299	28531
811.441	28577
811.582	28675
811.724	28401
811.865	28371
812.007	28481
812.148	28405
812.29	28436
812.431	28637
812.573	28923
812.714	28854
812.855	28980
812.997	29170
813.138	29231
813.279	29064
813.421	29113
813.562	29029
813.703	28888
813.845	28702
813.986	28523
814.127	28287
814.268	28169
814.41	28226
814.551	28246
814.692	28211
814.833	28188
814.974	28135
815.115	28078
815.256	28048
815.397	28017
815.539	27949
815.68	27907
815.821	27831
815.962	28025
816.103	27857
816.244	27869
816.385	27842
816.526	27743
816.666	27564
816.807	27511
816.948	27614
817.089	27542
817.23	27473
817.371	27610
817.512	27530
817.653	27564
817.793	27351
817.934	27526
818.075	27412
818.216	27568
818.356	27481
818.497	27359
818.638	27119
818.778	27188
818.919	27199
819.06	27218
819.2	27359
819.341	27583
819.481	27485
819.622	27656
819.762	27869
819.903	27774
820.043	27641
820.184	27561
820.324	27545
820.465	27656
820.605	27648
820.746	27485
820.886	27378
821.026	27724
821.167	27534
821.307	27530
821.447	27549
821.588	27329
821.728	27313
821.868	27112
822.008	27036
822.149	26929
822.289	27009
822.429	26689
822.569	26609
822.709	26511
822.849	26537
822.99	26465
823.13	26560
823.27	26370
823.41	26263
823.55	26271
823.69	26248
823.83	26370
823.97	26119
824.11	26054
824.25	26024
824.389	26069
824.529	26256
824.669	26130
824.809	26362
824.949	26263
825.089	26301
825.228	26282
825.368	25902
825.508	26001
825.648	26111
825.787	26134
825.927	26103
826.067	25955
826.206	25993
826.346	26020
826.485	26050
826.625	25944
826.765	26024
826.904	26039
827.044	25795
827.183	25712
827.323	25780
827.462	25791
827.601	25689
827.741	25662
827.88	25685
828.02	25563
828.159	25776
828.298	25601
828.437	25837
828.577	25609
828.716	25681
828.855	25780
828.994	25506
829.134	25407
829.273	25567
829.412	25400
829.551	25449
829.69	25491
829.829	25320
829.968	25514
830.107	25590
830.246	25434
830.385	25339
830.524	25274
830.663	25304
830.802	25202
830.941	24954
831.08	25076
831.219	25137
831.357	25080
831.496	25206
831.635	25053
831.774	24989
831.913	24878
832.051	24837
832.19	24935
832.329	24821
832.467	24783
832.606	24650
832.744	24741
832.883	24711
833.022	24817
833.16	24741
833.299	24939
833.437	24795
833.576	24703
833.714	24825
833.852	24829
833.991	24795
834.129	24894
834.267	24867
834.406	24776
834.544	24719
834.682	24764
834.821	24829
834.959	24844
835.097	24749
835.235	24859
835.373	24738
835.511	24711
835.65	24696
835.788	24673
835.926	24452
836.064	24357
836.202	24452
836.34	24551
836.478	24639
836.615	24452
836.753	24646
836.891	24627
837.029	24452
837.167	24612
837.305	24475
837.443	24498
837.58	24391
837.718	24502
837.856	24399
837.993	24350
838.131	24441
838.269	24300
838.406	24391
838.544	24247
838.681	24121
838.819	24133
838.956	23863
839.094	23882
839.231	23889
839.369	24144
839.506	24304
839.643	24186
839.781	23999
839.918	23908
840.055	23790
840.193	23756
840.33	23805
840.467	23859
840.604	23927
840.742	24102
840.879	23699
841.016	23653
841.153	23798
841.29	23855
841.427	23912
841.564	23817
841.701	23756
841.838	23756
841.975	23710
842.112	23764
842.249	23729
842.385	23444
842.522	23737
842.659	23573
842.796	23471
842.933	23653
843.069	23493
843.206	23463
843.343	23661
843.479	23615
843.616	23493
843.752	23326
843.889	23330
844.025	23554
844.162	23376
844.298	23395
844.435	23345
844.571	23288
844.708	23417
844.844	23406
844.98	23425
845.117	23414
845.253	23280
845.389	23162
845.525	23303
845.661	23193
845.798	23079
845.934	22976
846.07	23048
846.206	23197
846.342	23174
846.478	23041
846.614	22847
846.75	22774
846.886	22831
847.022	22755
847.158	22771
847.294	22946
847.429	22744
847.565	22847
847.701	22999
847.837	22519
847.972	22451
848.108	22527
848.244	22634
848.379	22527
848.515	22367
848.65	22268
848.786	22276
848.921	22447
849.057	22516
849.192	22493
849.328	22447
849.463	22485
849.598	22265
849.734	22272
849.869	22185
850.004	22246
850.14	22131
850.275	22101
850.41	22109
850.545	22078
850.68	22013
850.815	22101
850.95	22158
851.085	22314
851.22	22185
851.355	22234
851.49	22211
851.625	22154
851.76	22169
851.895	22002
852.03	22074
852.165	22143
852.299	22120
852.434	22265
852.569	22211
852.703	22177
852.838	22272
852.973	22322
853.107	22268
853.242	22185
853.376	22112
853.511	21865
853.645	21960
853.78	22029
853.914	22105
854.048	21930
854.183	22032
854.317	22002
854.451	22131
854.585	21991
854.72	21911
854.854	22196
854.988	21930
855.122	21972
855.256	21762
855.39	21945
855.524	22032
855.658	22029
855.792	22002
855.926	21915
856.06	21964
856.194	22124
856.327	21930
856.461	21842
856.595	21903
856.729	22006
856.862	22101
856.996	22006
857.13	22036
857.263	22082
857.397	22086
857.53	22006
857.664	22013
857.797	22063
857.931	22070
858.064	22078
858.197	22101
858.331	21991
858.464	22010
858.597	21873
858.731	21994
858.864	22002
858.997	21975
859.13	21987
859.263	21968
859.396	21994
859.529	21991
859.662	21930
859.795	21949
859.928	21964
860.061	22207
860.194	22200
860.327	21998
860.46	21968
860.592	22135
860.725	22162
860.858	22067
860.99	21968
861.123	21873
861.256	22013
861.388	22078
861.521	22713
861.653	21739
861.786	21804
861.918	22002
862.05	21884
862.183	22002
862.315	21953
862.447	21937
862.58	21937
862.712	21781
862.844	21694
862.976	21907
863.108	21732
863.24	22070
863.372	21717
863.504	21743
863.636	21709
863.768	21637
863.9	21762
864.032	21595
864.164	21622
864.296	21816
864.428	21785
864.559	21679
864.691	21644
864.823	21679
864.954	21610
865.086	21583
865.217	21637
865.349	21439
865.48	21450
865.612	21519
865.743	21625
865.875	21724
866.006	21557
866.137	21507
866.269	21568
866.4	21534
866.531	21504
866.662	21428
866.793	21526
866.924	21454
867.055	21526
867.186	21344
867.317	21523
867.448	21473
867.579	21382
867.71	21549
867.841	21370
867.972	21412
868.103	21408
868.233	21439
868.364	21545
868.495	21526
868.625	21766
868.756	21679
868.886	21553
869.017	21633
869.147	21892
869.278	21899
869.408	21838
869.539	21713
869.669	21854
869.799	21880
869.929	21876
870.06	21766
870.19	22093
870.32	21915
870.45	22090
870.58	22158
870.71	22223
870.84	22268
870.97	22219
871.1	22139
871.23	22185
871.36	22356
871.489	22204
871.619	22310
871.749	22325
871.879	22432
872.008	22432
872.138	22337
872.267	22402
872.397	22196
872.526	22082
872.656	22188
872.785	22093
872.915	22223
873.044	22599
873.173	22337
873.303	22409
873.432	22382
873.561	22417
873.69	22341
873.819	22287
873.948	22443
874.077	22360
874.206	22337
874.335	22455
874.464	22375
874.593	22603
874.722	22417
874.851	22531
874.979	22561
875.108	22706
875.237	22516
875.365	22398
875.494	22592
875.623	22630
875.751	22470
875.88	22599
876.008	22729
876.136	22805
876.265	22889
876.393	23147
876.521	23143
876.65	23006
876.778	22904
876.906	22980
877.034	22854
877.162	22839
877.29	22843
877.418	22885
877.546	22934
877.674	22820
877.802	22786
877.93	22763
878.058	22892
878.185	22683
878.313	22987
878.441	22873
878.568	22679
878.696	22820
878.824	22953
878.951	22923
879.079	22999
879.206	23220
879.333	23121
879.461	22965
879.588	23071
879.715	22968
879.842	23117
879.97	22900
880.097	22812
880.224	22691
880.351	22755
880.478	22816
880.605	22725
880.732	22736
880.859	22866
880.986	22744
881.112	22740
881.239	22660
881.366	22440
881.493	22394
881.619	22333
881.746	22291
881.872	22257
881.999	22325
882.125	22333
882.252	22230
882.378	22280
882.505	22348
882.631	22093
882.757	22006
882.883	22112
883.01	21972
883.136	21884
883.262	21831
883.388	21865
883.514	22067
883.64	22017
883.766	21975
883.892	21720
884.018	21747
884.143	21869
884.269	22013
884.395	21679
884.52	21526
884.646	21660
884.772	21519
884.897	21526
885.023	21595
885.148	21717
885.274	21850
885.399	21720
885.524	21545
885.65	21515
885.775	21435
885.9	21599
886.025	21694
886.15	21747
886.275	21606
886.4	21496
886.525	21671
886.65	21485
886.775	21572
886.9	21736
887.025	21869
887.149	21583
887.274	21420
887.399	21363
887.523	21424
887.648	21310
887.773	21203
887.897	21443
888.021	21374
888.146	21298
888.27	21428
888.395	21401
888.519	21462
888.643	21291
888.767	21416
888.891	21272
889.015	21131
889.139	21256
889.263	21237
889.387	21252
889.511	21408
889.635	21359
889.759	21142
889.883	21146
890.006	21138
890.13	21081
890.254	21127
890.377	21108
890.501	20899
890.624	20910
890.748	21009
890.871	20796
890.995	20644
891.118	20602
891.241	20788
891.364	20686
891.488	20868
891.611	20735
891.734	20724
891.857	20804
891.98	20754
892.103	20750
892.226	20765
892.349	20655
892.471	20514
892.594	20632
892.717	20678
892.839	20636
892.962	20602
893.085	20746
893.207	20541
893.33	20492
893.452	20568
893.575	20743
893.697	20583
893.819	20800
893.941	20826
894.064	20815
894.186	20617
894.308	20568
894.43	20648
894.552	20724
894.674	20716
894.796	20488
894.918	20594
895.04	20708
895.161	20758
895.283	20739
895.405	20587
895.526	20594
895.648	20594
895.769	20571
895.891	20746
896.012	20701
896.134	20575
896.255	20571
896.376	20545
896.498	20545
896.619	20541
896.74	20651
896.861	20648
896.982	20853
897.103	20994
897.224	20838
897.345	20979
897.466	20727
897.587	20902
897.708	20975
897.828	20876
897.949	20674
898.07	20613
898.19	20670
898.311	20883
898.431	20735
898.552	20792
898.672	20804
898.792	20758
898.913	20811
899.033	20674
899.153	20629
899.273	20526
899.393	20408
899.513	20503
899.633	20549
899.753	20560
899.873	20480
899.993	20549
900.113	20374
900.232	20431
900.352	20522
900.472	20332
900.591	20271
900.711	20415
900.83	20233
900.95	20396
901.069	20381
901.189	20183
901.308	20081
901.427	19902
901.546	19879
901.665	19955
901.784	19845
901.904	19666
902.023	19685
902.141	19441
902.26	19415
902.379	19556
902.498	19407
902.617	19460
902.735	19480
902.854	19411
902.973	19358
903.091	19129
903.21	19198
903.328	19046
903.446	18985
903.565	18787
903.683	19015
903.801	18764
903.919	18935
904.038	18844
904.156	18719
904.274	18673
904.392	18627
904.51	18544
904.627	18681
904.745	18639
904.863	18681
904.981	18452
905.098	18399
905.216	18296
905.334	18353
905.451	18247
905.569	18182
905.686	18304
905.803	18330
905.921	18049
906.038	18148
906.155	18068
906.272	17923
906.389	18038
906.506	17920
906.623	17851
906.74	17783
906.857	17741
906.974	17874
907.091	17984
907.208	17920
907.324	17813
907.441	17794
907.557	17600
907.674	17570
907.79	17433
907.907	17425
908.023	17524
908.139	17493
908.256	17467
908.372	17444
908.488	17421
908.604	17318
908.72	17197
908.836	17254
908.952	17330
909.068	17356
909.184	17315
909.3	17223
909.415	17246
909.531	17181
909.647	16869
909.762	16972
909.878	16881
909.993	16930
910.108	16991
910.224	17010
910.339	16831
910.454	16774
910.57	16759
910.685	16683
910.8	16968
910.915	16900
911.03	16809
911.145	16641
911.259	16561
911.374	16622
911.489	16527
911.604	16360
911.718	16341
911.833	16299
911.947	16166
912.062	16097
912.176	16322
912.291	16242
912.405	16272
912.519	16519
912.633	16447
912.748	16333
912.862	16329
912.976	16101
913.09	15918
913.204	15998
913.318	16185
913.431	16181
913.545	16143
913.659	16257
913.772	16013
913.886	15956
914	15911
914.113	15964
914.226	16048
914.34	15979
914.453	15793
914.566	15979
914.68	15854
914.793	15698
914.906	15545
915.019	15515
915.132	15458
915.245	15443
915.358	15576
915.47	15515
915.583	15447
915.696	15595
915.809	15572
915.921	15606
916.034	15443
916.146	15466
916.259	15382
916.371	15340
916.483	15405
916.595	15370
916.708	15317
916.82	15317
916.932	15306
917.044	15317
917.156	15283
917.268	15135
917.38	15165
917.491	15161
917.603	15157
917.715	15279
917.826	15161
917.938	15131
918.049	15013
918.161	15070
918.272	15218
918.384	15157
918.495	15142
918.606	14842
918.717	14807
918.828	14906
918.939	14868
919.05	14815
919.161	14785
919.272	14598
919.383	14762
919.494	14895
919.604	15020
919.715	14811
919.826	14857
919.936	14807
920.047	14895
920.157	14872
920.267	15108
920.378	14887
920.488	14823
920.598	15039
920.708	15112
920.818	14963
920.928	14975
921.038	15123
921.148	15131
921.258	14781
921.368	14625
921.477	14560
921.587	14575
921.697	14560
921.806	14655
921.916	14461
922.025	14210
922.134	14183
922.244	14157
922.353	14199
922.462	14020
922.571	14039
922.68	13826
922.789	13791
922.898	13879
923.007	13772
923.116	13833
923.224	13864
923.333	13845
923.442	13704
923.55	13651
923.659	13727
923.767	13734
923.876	13647
923.984	13708
924.092	13491
924.201	13613
924.309	13556
924.417	13575
924.525	13491
924.633	13544
924.741	14290
924.849	13266
924.956	13384
925.064	13320
925.172	13202
925.279	13228
925.387	13259
925.494	13285
925.602	13354
925.709	13259
925.816	13122
925.924	13331
926.031	13118
926.138	13160
926.245	13133
926.352	13061
926.459	13183
926.566	13255
926.673	13046
926.779	12970
926.886	12985
926.993	12890
927.099	12753
927.206	12772
927.312	12768
927.419	12856
927.525	12772
927.631	12817
927.737	12665
927.843	12688
927.95	12551
928.056	12639
928.162	12658
928.267	12707
928.373	13308
928.479	12707
928.585	12380
928.69	12597
928.796	12559
928.901	12547
929.007	12311
929.112	12483
929.218	12452
929.323	12391
929.428	12254
929.533	12464
929.638	12304
929.743	12319
929.848	12388
929.953	12334
930.058	12182
930.163	11927
930.267	11988
930.372	12140
930.477	11999
930.581	12178
930.685	12034
930.79	11912
930.894	11885
930.998	11885
931.103	12072
931.207	11760
931.311	11558
931.415	11448
931.519	11318
931.623	11235
