Data from test_V78500241_3345.txt Node
Date: Fri Mar 25 15:33:09 CST 2022
User: usil
Spectrometer: V785-0024
Trigger mode: 0
Integration Time (sec): 4.000000E-1
Scans to average: 1
Nonlinearity correction enabled: false
Boxcar width: 0
Storing dark spectrum: false
XAxis mode: Wavelengths
Number of Pixels in Spectrum: 1024
>>>>>Begin Spectral Data<<<<<
801.071	27348
801.214	27085
801.356	26967
801.499	26967
801.641	26712
801.783	26731
801.926	26811
802.068	26769
802.211	26708
802.353	26579
802.496	26355
802.638	26514
802.78	26400
802.923	26305
803.065	26134
803.208	26362
803.35	26355
803.492	26469
803.635	26674
803.777	26469
803.919	26431
804.061	26800
804.204	26587
804.346	26374
804.488	26351
804.63	26514
804.773	26423
804.915	26507
805.057	26644
805.199	26484
805.341	26495
805.483	26689
805.626	26499
805.768	26617
805.91	26564
806.052	26602
806.194	26564
806.336	26769
806.478	26533
806.62	26511
806.762	26739
806.904	26815
807.046	27214
807.188	26963
807.33	27043
807.472	27116
807.614	26963
807.756	26998
807.898	26735
808.04	26800
808.182	26765
808.324	26796
808.465	26937
808.607	27184
808.749	27142
808.891	27233
809.033	27386
809.174	27298
809.316	27199
809.458	27138
809.6	27161
809.741	27317
809.883	27389
810.025	27374
810.166	27618
810.308	27629
810.45	27397
810.591	27332
810.733	27325
810.875	27173
811.016	27173
811.158	27142
811.299	27302
811.441	27329
811.582	27389
811.724	27245
811.865	27230
812.007	27100
812.148	27211
812.29	27184
812.431	27439
812.573	27606
812.714	27477
812.855	27705
812.997	27675
813.138	27869
813.279	27755
813.421	27854
813.562	27759
813.703	27568
813.845	27389
813.986	27051
814.127	27070
814.268	26876
814.41	26864
814.551	26823
814.692	26914
814.833	26720
814.974	26796
815.115	26914
815.256	26617
815.397	26838
815.539	26800
815.68	26693
815.821	26571
815.962	26682
816.103	26503
816.244	26450
816.385	26396
816.526	26320
816.666	26252
816.807	26149
816.948	26164
817.089	26210
817.23	26142
817.371	26252
817.512	26001
817.653	26012
817.793	26096
817.934	26069
818.075	26187
818.216	26100
818.356	26138
818.497	26031
818.638	25719
818.778	25849
818.919	25772
819.06	25974
819.2	25955
819.341	26001
819.481	26164
819.622	26206
819.762	26404
819.903	26240
820.043	26328
820.184	26214
820.324	26233
820.465	26305
820.605	26214
820.746	26176
820.886	26031
821.026	26221
821.167	26119
821.307	26195
821.447	25925
821.588	26065
821.728	25917
821.868	25635
822.008	25464
822.149	25597
822.289	25578
822.429	25304
822.569	25422
822.709	25320
822.849	25129
822.99	25103
823.13	24966
823.27	25057
823.41	24859
823.55	24783
823.69	25072
823.83	24981
823.97	24787
824.11	24768
824.25	24639
824.389	24753
824.529	24905
824.669	24798
824.809	24783
824.949	24768
825.089	24574
825.228	24760
825.368	24513
825.508	24502
825.648	24509
825.787	24566
825.927	24658
826.067	24654
826.206	24608
826.346	24661
826.485	24566
826.625	24635
826.765	24753
826.904	24673
827.044	24315
827.183	24311
827.323	24323
827.462	24388
827.601	24273
827.741	24330
827.88	24273
828.02	24186
828.159	24251
828.298	24437
828.437	24315
828.577	24171
828.716	24456
828.855	24407
828.994	24018
829.134	24178
829.273	24133
829.412	24015
829.551	23946
829.69	23984
829.829	24057
829.968	24117
830.107	24140
830.246	23870
830.385	24083
830.524	24007
830.663	23847
830.802	23779
830.941	23615
831.08	23562
831.219	23691
831.357	23794
831.496	23916
831.635	23608
831.774	23585
831.913	23573
832.051	23604
832.19	23410
832.329	23474
832.467	23318
832.606	23322
832.744	23220
832.883	23330
833.022	23334
833.16	23296
833.299	23341
833.437	23311
833.576	23425
833.714	23417
833.852	23391
833.991	23486
834.129	23455
834.267	23505
834.406	23516
834.544	23528
834.682	23524
834.821	23284
834.959	23581
835.097	23395
835.235	23452
835.373	23467
835.511	23368
835.65	23250
835.788	23227
835.926	23147
836.064	23098
836.202	23102
836.34	23322
836.478	23322
836.615	23322
836.753	23364
836.891	23360
837.029	23364
837.167	23239
837.305	23212
837.443	23109
837.58	23071
837.718	23212
837.856	23189
837.993	22942
838.131	23067
838.269	22938
838.406	22965
838.544	22923
838.681	22717
838.819	22748
838.956	22622
839.094	22531
839.231	22622
839.369	22812
839.506	22896
839.643	22812
839.781	22634
839.918	22440
840.055	22694
840.193	22504
840.33	22478
840.467	22508
840.604	22478
840.742	22820
840.879	22443
841.016	22523
841.153	22432
841.29	22565
841.427	22428
841.564	22489
841.701	22580
841.838	22580
841.975	22341
842.112	22455
842.249	22481
842.385	22291
842.522	22573
842.659	22337
842.796	22375
842.933	22428
843.069	22204
843.206	22295
843.343	22284
843.479	22261
843.616	22295
843.752	22105
843.889	22101
844.025	22207
844.162	22074
844.298	22196
844.435	22124
844.571	21949
844.708	22150
844.844	22249
844.98	22162
845.117	22188
845.253	21994
845.389	21865
845.525	22013
845.661	21812
845.798	21770
845.934	21861
846.07	21755
846.206	21808
846.342	21899
846.478	21759
846.614	21682
846.75	21534
846.886	21614
847.022	21728
847.158	21580
847.294	21488
847.429	21572
847.565	21595
847.701	21770
847.837	21199
847.972	21207
848.108	21370
848.244	21237
848.379	21127
848.515	21146
848.65	21032
848.786	21070
848.921	21161
849.057	21180
849.192	21218
849.328	21017
849.463	21058
849.598	21066
849.734	21112
849.869	21070
850.004	20933
850.14	20956
850.275	20887
850.41	20891
850.545	20838
850.68	20933
850.815	20956
850.95	20914
851.085	21036
851.22	21047
851.355	20842
851.49	20963
851.625	20895
851.76	20769
851.895	20887
852.03	20731
852.165	20929
852.299	21043
852.434	20910
852.569	20849
852.703	20788
852.838	20990
852.973	20925
853.107	21096
853.242	20834
853.376	20792
853.511	20564
853.645	20746
853.78	20819
853.914	20735
854.048	20644
854.183	20659
854.317	20689
854.451	20842
854.585	20754
854.72	20674
854.854	20868
854.988	20594
855.122	20758
855.256	20678
855.39	20644
855.524	20743
855.658	20785
855.792	20746
855.926	20773
856.06	20792
856.194	20697
856.327	20815
856.461	20678
856.595	20762
856.729	20697
856.862	20708
856.996	20720
857.13	20689
857.263	20819
857.397	20765
857.53	20743
857.664	20800
857.797	20746
857.931	20857
858.064	20750
858.197	20880
858.331	20667
858.464	20587
858.597	20617
858.731	20655
858.864	20632
858.997	20655
859.13	20746
859.263	20765
859.396	20796
859.529	20640
859.662	20678
859.795	20636
859.928	20689
860.061	20914
860.194	20998
860.327	20712
860.46	20712
860.592	20781
860.725	20804
860.858	20849
860.99	20705
861.123	20648
861.256	20686
861.388	20712
861.521	21439
861.653	20636
861.786	20549
861.918	20571
862.05	20598
862.183	20712
862.315	20579
862.447	20769
862.58	20701
862.712	20423
862.844	20446
862.976	20560
863.108	20514
863.24	20902
863.372	20427
863.504	20537
863.636	20492
863.768	20454
863.9	20484
864.032	20271
864.164	20450
864.296	20415
864.428	20621
864.559	20507
864.691	20442
864.823	20423
864.954	20412
865.086	20355
865.217	20358
865.349	20233
865.48	20313
865.612	20271
865.743	20457
865.875	20328
866.006	20282
866.137	20385
866.269	20278
866.4	20275
866.531	20305
866.662	20313
866.793	20358
866.924	20313
867.055	20347
867.186	20229
867.317	20358
867.448	20214
867.579	20218
867.71	20084
867.841	20240
867.972	20282
868.103	20362
868.233	20256
868.364	20248
868.495	20389
868.625	20465
868.756	20530
868.886	20488
869.017	20518
869.147	20712
869.278	20537
869.408	20606
869.539	20518
869.669	20442
869.799	20530
869.929	20769
870.06	20655
870.19	20807
870.32	20640
870.45	20876
870.58	20929
870.71	20944
870.84	21089
870.97	20967
871.1	20853
871.23	21100
871.36	21093
871.489	21081
871.619	21150
871.749	21100
871.879	21230
872.008	21222
872.138	21017
872.267	21062
872.397	20956
872.526	20914
872.656	21043
872.785	20941
872.915	21150
873.044	21142
873.173	21150
873.303	21226
873.432	21233
873.561	21199
873.69	21123
873.819	21237
873.948	21173
874.077	21131
874.206	21108
874.335	21214
874.464	21173
874.593	21325
874.722	21317
874.851	21408
874.979	21348
875.108	21321
875.237	21260
875.365	21332
875.494	21291
875.623	21393
875.751	21302
875.88	21458
876.008	21705
876.136	21686
876.265	21816
876.393	21865
876.521	21762
876.65	21808
876.778	21800
876.906	21686
877.034	21633
877.162	21739
877.29	21732
877.418	21816
877.546	21766
877.674	21774
877.802	21812
877.93	21694
878.058	21663
878.185	21553
878.313	21580
878.441	21576
878.568	21603
878.696	21720
878.824	21732
878.951	21793
879.079	21876
879.206	21998
879.333	21979
879.461	21789
879.588	21835
879.715	21884
879.842	21945
879.97	21785
880.097	21572
880.224	21622
880.351	21572
880.478	21515
880.605	21576
880.732	21553
880.859	21804
880.986	21523
881.112	21557
881.239	21458
881.366	21355
881.493	21264
881.619	21165
881.746	21085
881.872	21085
881.999	21218
882.125	21089
882.252	21188
882.378	21100
882.505	21154
882.631	20994
882.757	20960
882.883	20960
883.01	20823
883.136	20815
883.262	20655
883.388	20834
883.514	20712
883.64	20811
883.766	20823
883.892	20689
884.018	20613
884.143	20830
884.269	20918
884.395	20537
884.52	20419
884.646	20587
884.772	20450
884.897	20381
885.023	20480
885.148	20556
885.274	20712
885.399	20503
885.524	20579
885.65	20530
885.775	20503
885.9	20503
886.025	20571
886.15	20503
886.275	20621
886.4	20313
886.525	20438
886.65	20355
886.775	20377
886.9	20701
887.025	20613
887.149	20461
887.274	20423
887.399	20237
887.523	20301
887.648	20180
887.773	20286
887.897	20358
888.021	20328
888.146	20115
888.27	20355
888.395	20377
888.519	20320
888.643	20172
888.767	20278
888.891	20168
889.015	20073
889.139	20100
889.263	20065
889.387	20263
889.511	20332
889.635	20298
889.759	20012
889.883	19955
890.006	20168
890.13	20187
890.254	19959
890.377	19993
890.501	19852
890.624	19868
890.748	19959
890.871	19799
890.995	19700
891.118	19586
891.241	19635
891.364	19616
891.488	19674
891.611	19571
891.734	19639
891.857	19750
891.98	19632
892.103	19632
892.226	19674
892.349	19635
892.471	19426
892.594	19571
892.717	19575
892.839	19559
892.962	19567
893.085	19616
893.207	19514
893.33	19460
893.452	19514
893.575	19693
893.697	19624
893.819	19700
893.941	19814
894.064	19731
894.186	19590
894.308	19563
894.43	19635
894.552	19700
894.674	19677
894.796	19616
894.918	19552
895.04	19525
895.161	19518
895.283	19597
895.405	19426
895.526	19537
895.648	19506
895.769	19609
895.891	19597
896.012	19658
896.134	19616
896.255	19563
896.376	19594
896.498	19453
896.619	19567
896.74	19441
896.861	19670
896.982	19932
897.103	20024
897.224	19887
897.345	19784
897.466	19784
897.587	19772
897.708	19989
897.828	19788
897.949	19681
898.07	19559
898.19	19830
898.311	19852
898.431	19734
898.552	19826
898.672	19898
898.792	19784
898.913	19852
899.033	19674
899.153	19521
899.273	19510
899.393	19556
899.513	19548
899.633	19540
899.753	19529
899.873	19525
899.993	19586
900.113	19582
900.232	19544
900.352	19327
900.472	19419
900.591	19430
900.711	19419
900.83	19225
900.95	19316
901.069	19419
901.189	19282
901.308	19027
901.427	18951
901.546	18840
901.665	18932
901.784	18840
901.904	18810
902.023	18696
902.141	18490
902.26	18486
902.379	18525
902.498	18525
902.617	18448
902.735	18445
902.854	18422
902.973	18365
903.091	18091
903.21	18057
903.328	18133
903.446	18133
903.565	17996
903.683	17878
903.801	17821
903.919	17885
904.038	17863
904.156	17684
904.274	17973
904.392	17638
904.51	17707
904.627	17729
904.745	17722
904.863	17714
904.981	17482
905.098	17406
905.216	17433
905.334	17425
905.451	17379
905.569	17292
905.686	17516
905.803	17296
905.921	17246
906.038	17239
906.155	17113
906.272	17045
906.389	17083
906.506	16953
906.623	16881
906.74	16900
906.857	16767
906.974	16946
907.091	17018
907.208	17037
907.324	16953
907.441	16812
907.557	16733
907.674	16634
907.79	16519
907.907	16603
908.023	16763
908.139	16641
908.256	16523
908.372	16459
908.488	16421
908.604	16421
908.72	16337
908.836	16356
908.952	16295
909.068	16424
909.184	16428
909.3	16295
909.415	16371
909.531	16371
909.647	16124
909.762	16188
909.878	16017
909.993	16021
910.108	16078
910.224	16082
910.339	16063
910.454	15960
910.57	15903
910.685	15751
910.8	16025
910.915	15975
911.03	15819
911.145	15694
911.259	15652
911.374	15622
911.489	15625
911.604	15545
911.718	15515
911.833	15481
911.947	15363
912.062	15294
912.176	15447
912.291	15431
912.405	15412
912.519	15564
912.633	15644
912.748	15420
912.862	15401
912.976	15275
913.09	15112
913.204	15203
913.318	15165
913.431	15291
913.545	15317
913.659	15325
913.772	15188
913.886	15097
914	15070
914.113	15138
914.226	15150
914.34	15127
914.453	14948
914.566	15066
914.68	14963
914.793	14982
914.906	14777
915.019	14678
915.132	14686
915.245	14636
915.358	14655
915.47	14678
915.583	14712
915.696	14708
915.809	14705
915.921	14773
916.034	14689
916.146	14594
916.259	14579
916.371	14674
916.483	14625
916.595	14545
916.708	14552
916.82	14579
916.932	14602
917.044	14549
917.156	14400
917.268	14339
917.38	14370
917.491	14370
917.603	14389
917.715	14355
917.826	14457
917.938	14214
918.049	14298
918.161	14317
918.272	14461
918.384	14332
918.495	14320
918.606	14145
918.717	14043
918.828	14172
918.939	14164
919.05	14031
919.161	14058
919.272	13868
919.383	13944
919.494	14088
919.604	14305
919.715	14054
919.826	14077
919.936	13997
920.047	14077
920.157	14081
920.267	14237
920.378	14157
920.488	13997
920.598	14275
920.708	14320
920.818	14256
920.928	14252
921.038	14438
921.148	14332
921.258	14123
921.368	13940
921.477	13890
921.587	13753
921.697	13712
921.806	13814
921.916	13742
922.025	13502
922.134	13441
922.244	13483
922.353	13544
922.462	13415
922.571	13312
922.68	13320
922.789	13179
922.898	13152
923.007	13069
923.116	13213
923.224	13057
923.333	13209
923.442	12985
923.55	12966
923.659	13050
923.767	13046
923.876	12913
923.984	12932
924.092	12840
924.201	12920
924.309	12821
924.417	12916
924.525	12909
924.633	12753
924.741	13776
924.849	12635
924.956	12726
925.064	12540
925.172	12570
925.279	12540
925.387	12525
925.494	12536
925.602	12722
925.709	12604
925.816	12471
925.924	12544
926.031	12646
926.138	12486
926.245	12536
926.352	12479
926.459	12658
926.566	12669
926.673	12452
926.779	12380
926.886	12292
926.993	12220
927.099	12159
927.206	12144
927.312	12102
927.419	12167
927.525	12140
927.631	12228
927.737	12079
927.843	12026
927.95	11923
928.056	11950
928.162	12038
928.267	12045
928.373	12502
928.479	12045
928.585	11832
928.69	11935
928.796	11954
928.901	11870
929.007	11680
929.112	11756
929.218	11767
929.323	11737
929.428	11699
929.533	11836
929.638	11661
929.743	11634
929.848	11688
929.953	11668
930.058	11581
930.163	11368
930.267	11436
930.372	11634
930.477	11379
930.581	11615
930.685	11436
930.79	11231
930.894	11360
930.998	11299
931.103	11402
931.207	11037
931.311	11022
931.415	10904
931.519	10706
931.623	10641
