Data from test_V78500241_648.txt Node
Date: Fri Mar 25 15:14:22 CST 2022
User: usil
Spectrometer: V785-0024
Trigger mode: 0
Integration Time (sec): 4.000000E-1
Scans to average: 1
Nonlinearity correction enabled: false
Boxcar width: 0
Storing dark spectrum: false
XAxis mode: Wavelengths
Number of Pixels in Spectrum: 1024
>>>>>Begin Spectral Data<<<<<
801.071	27515
801.214	27458
801.356	27374
801.499	27173
801.641	27123
801.783	27100
801.926	27188
802.068	27096
802.211	27024
802.353	26914
802.496	26720
802.638	26758
802.78	26765
802.923	26765
803.065	26640
803.208	26815
803.35	26842
803.492	26765
803.635	26914
803.777	26937
803.919	26853
804.061	27241
804.204	26986
804.346	26777
804.488	26754
804.63	26880
804.773	26891
804.915	26849
805.057	27017
805.199	26815
805.341	26944
805.483	27024
805.626	27009
805.768	27028
805.91	26823
806.052	27024
806.194	26804
806.336	27017
806.478	27104
806.62	27085
806.762	27089
806.904	27336
807.046	27515
807.188	27416
807.33	27374
807.472	27485
807.614	27382
807.756	27321
807.898	27374
808.04	27241
808.182	27268
808.324	27298
808.465	27344
808.607	27458
808.749	27618
808.891	27751
809.033	27831
809.174	27690
809.316	27599
809.458	27694
809.6	27625
809.741	27675
809.883	27781
810.025	27956
810.166	27953
810.308	28013
810.45	27892
810.591	27949
810.733	27781
810.875	27644
811.016	27572
811.158	27477
811.299	27705
811.441	27675
811.582	27717
811.724	27599
811.865	27603
812.007	27629
812.148	27603
812.29	27800
812.431	27857
812.573	27934
812.714	28166
812.855	28150
812.997	28272
813.138	28360
813.279	28405
813.421	28207
813.562	28105
813.703	27918
813.845	27812
813.986	27599
814.127	27313
814.268	27291
814.41	27458
814.551	27389
814.692	27469
814.833	27359
814.974	27256
815.115	27389
815.256	27222
815.397	27150
815.539	27226
815.68	27256
815.821	27005
815.962	27188
816.103	27173
816.244	26971
816.385	26933
816.526	26887
816.666	26697
816.807	26708
816.948	26693
817.089	26777
817.23	26705
817.371	26594
817.512	26716
817.653	26602
817.793	26522
817.934	26682
818.075	26667
818.216	26602
818.356	26575
818.497	26541
818.638	26320
818.778	26339
818.919	26404
819.06	26461
819.2	26587
819.341	26762
819.481	26568
819.622	26857
819.762	26792
819.903	26914
820.043	26739
820.184	26682
820.324	26689
820.465	26842
820.605	26804
820.746	26735
820.886	26514
821.026	26739
821.167	26598
821.307	26678
821.447	26594
821.588	26446
821.728	26400
821.868	26415
822.008	26084
822.149	26088
822.289	26096
822.429	25791
822.569	25909
822.709	25658
822.849	25556
822.99	25662
823.13	25647
823.27	25552
823.41	25422
823.55	25362
823.69	25533
823.83	25350
823.97	25285
824.11	25228
824.25	25255
824.389	25129
824.529	25289
824.669	25152
824.809	25293
824.949	25270
825.089	25339
825.228	25247
825.368	25110
825.508	25065
825.648	25247
825.787	25129
825.927	25213
826.067	25053
826.206	25008
826.346	24977
826.485	25164
826.625	25148
826.765	25084
826.904	25198
827.044	24905
827.183	24871
827.323	24882
827.462	24970
827.601	24878
827.741	24844
827.88	24779
828.02	24776
828.159	24604
828.298	24821
828.437	24867
828.577	24787
828.716	24745
828.855	24677
828.994	24452
829.134	24483
829.273	24578
829.412	24418
829.551	24422
829.69	24471
829.829	24551
829.968	24502
830.107	24616
830.246	24391
830.385	24369
830.524	24483
830.663	24277
830.802	24311
830.941	24110
831.08	24007
831.219	24266
831.357	24136
831.496	24372
831.635	24136
831.774	24072
831.913	24053
832.051	23882
832.19	23916
832.329	23836
832.467	23870
832.606	23703
832.744	23722
832.883	23912
833.022	23901
833.16	23752
833.299	23790
833.437	23817
833.576	23824
833.714	23954
833.852	23939
833.991	23942
834.129	23904
834.267	24049
834.406	23954
834.544	23931
834.682	23901
834.821	23821
834.959	23897
835.097	23775
835.235	23779
835.373	23843
835.511	23882
835.65	23649
835.788	23824
835.926	23665
836.064	23425
836.202	23592
836.34	23729
836.478	23893
836.615	23638
836.753	23707
836.891	23878
837.029	23672
837.167	23638
837.305	23695
837.443	23589
837.58	23505
837.718	23630
837.856	23577
837.993	23592
838.131	23383
838.269	23398
838.406	23482
838.544	23383
838.681	23029
838.819	23048
838.956	23083
839.094	23090
839.231	23155
839.369	23109
839.506	23455
839.643	23265
839.781	23033
839.918	22965
840.055	23113
840.193	22930
840.33	22972
840.467	22812
840.604	23090
840.742	23174
840.879	22828
841.016	22908
841.153	22771
841.29	23178
841.427	22904
841.564	22809
841.701	22942
841.838	22877
841.975	22831
842.112	22824
842.249	22725
842.385	22702
842.522	22869
842.659	22759
842.796	22729
842.933	22698
843.069	22713
843.206	22668
843.343	22706
843.479	22630
843.616	22740
843.752	22592
843.889	22519
844.025	22615
844.162	22417
844.298	22656
844.435	22485
844.571	22508
844.708	22489
844.844	22634
844.98	22550
845.117	22519
845.253	22371
845.389	22299
845.525	22322
845.661	22421
845.798	22234
845.934	22261
846.07	22147
846.206	22154
846.342	22375
846.478	22147
846.614	22097
846.75	21949
846.886	21797
847.022	21983
847.158	21899
847.294	21945
847.429	22010
847.565	21949
847.701	22154
847.837	21614
847.972	21675
848.108	21800
848.244	21823
848.379	21641
848.515	21450
848.65	21530
848.786	21492
848.921	21561
849.057	21568
849.192	21648
849.328	21553
849.463	21412
849.598	21408
849.734	21439
849.869	21310
850.004	21382
850.14	21332
850.275	21310
850.41	21211
850.545	21321
850.68	21287
850.815	21287
850.95	21203
851.085	21359
851.22	21317
851.355	21325
851.49	21275
851.625	21161
851.76	21310
851.895	21180
852.03	21135
852.165	21226
852.299	21359
852.434	21428
852.569	21252
852.703	21382
852.838	21420
852.973	21477
853.107	21317
853.242	21386
853.376	21180
853.511	21055
853.645	21184
853.78	21188
853.914	21245
854.048	21161
854.183	21077
854.317	21116
854.451	21348
854.585	21093
854.72	21112
854.854	21313
854.988	21043
855.122	21074
855.256	21020
855.39	21161
855.524	21116
855.658	21169
855.792	21051
855.926	21112
856.06	21100
856.194	21195
856.327	21089
856.461	21028
856.595	21017
856.729	21013
856.862	21165
856.996	21237
857.13	21169
857.263	21199
857.397	21233
857.53	20967
857.664	21199
857.797	21192
857.931	21310
858.064	21131
858.197	21237
858.331	21089
858.464	21138
858.597	21108
858.731	21043
858.864	21036
858.997	21070
859.13	21036
859.263	21173
859.396	21127
859.529	21142
859.662	21036
859.795	20998
859.928	21230
860.061	21272
860.194	21287
860.327	21146
860.46	21047
860.592	21272
860.725	21211
860.858	21310
860.99	21127
861.123	20963
861.256	21142
861.388	21138
861.521	21846
861.653	20918
861.786	20914
861.918	20975
862.05	21062
862.183	21020
862.315	21066
862.447	21051
862.58	21001
862.712	20693
862.844	20815
862.976	20967
863.108	20918
863.24	21329
863.372	20712
863.504	20773
863.636	20773
863.768	20906
863.9	20750
864.032	20807
864.164	20693
864.296	20895
864.428	20899
864.559	20872
864.691	20918
864.823	20872
864.954	20883
865.086	20731
865.217	20746
865.349	20712
865.48	20716
865.612	20659
865.743	20762
865.875	20731
866.006	20648
866.137	20682
866.269	20674
866.4	20769
866.531	20602
866.662	20689
866.793	20651
866.924	20689
867.055	20625
867.186	20655
867.317	20636
867.448	20526
867.579	20663
867.71	20571
867.841	20560
867.972	20617
868.103	20632
868.233	20754
868.364	20640
868.495	20849
868.625	20842
868.756	21096
868.886	20743
869.017	20815
869.147	21013
869.278	20994
869.408	21013
869.539	20921
869.669	20941
869.799	20872
869.929	21062
870.06	21047
870.19	21176
870.32	21207
870.45	21176
870.58	21332
870.71	21412
870.84	21302
870.97	21332
871.1	21287
871.23	21473
871.36	21496
871.489	21424
871.619	21439
871.749	21450
871.879	21538
872.008	21542
872.138	21500
872.267	21458
872.397	21260
872.526	21397
872.656	21374
872.785	21169
872.915	21462
873.044	21564
873.173	21485
873.303	21447
873.432	21576
873.561	21648
873.69	21595
873.819	21382
873.948	21606
874.077	21580
874.206	21515
874.335	21622
874.464	21682
874.593	21679
874.722	21720
874.851	21823
874.979	21800
875.108	21789
875.237	21743
875.365	21671
875.494	21739
875.623	21869
875.751	21743
875.88	21747
876.008	21907
876.136	21911
876.265	22188
876.393	22162
876.521	22215
876.65	22242
876.778	22150
876.906	22078
877.034	22070
877.162	22120
877.29	22017
877.418	22105
877.546	22063
877.674	22162
877.802	22086
877.93	22082
878.058	21991
878.185	21987
878.313	22097
878.441	21956
878.568	21838
878.696	22017
878.824	22147
878.951	22147
879.079	22314
879.206	22402
879.333	22223
879.461	22158
879.588	22185
879.715	22223
879.842	22196
879.97	22154
880.097	22048
880.224	21793
880.351	21998
880.478	22032
880.605	21842
880.732	21888
880.859	22147
880.986	21964
881.112	21888
881.239	21865
881.366	21633
881.493	21526
881.619	21545
881.746	21431
881.872	21519
881.999	21378
882.125	21462
882.252	21572
882.378	21382
882.505	21564
882.631	21412
882.757	21313
882.883	21214
883.01	21157
883.136	21081
883.262	21104
883.388	21036
883.514	21222
883.64	21317
883.766	21119
883.892	20990
884.018	20994
884.143	21104
884.269	21188
884.395	20956
884.52	20842
884.646	20864
884.772	20849
884.897	20636
885.023	20838
885.148	20876
885.274	20899
885.399	20895
885.524	20720
885.65	20830
885.775	20861
885.9	20746
886.025	20952
886.15	20857
886.275	20781
886.4	20750
886.525	20758
886.65	20712
886.775	20754
886.9	20910
887.025	21001
887.149	20750
887.274	20640
887.399	20556
887.523	20693
887.648	20450
887.773	20526
887.897	20792
888.021	20682
888.146	20522
888.27	20765
888.395	20697
888.519	20735
888.643	20655
888.767	20587
888.891	20552
889.015	20438
889.139	20587
889.263	20457
889.387	20602
889.511	20617
889.635	20667
889.759	20419
889.883	20461
890.006	20507
890.13	20564
890.254	20423
890.377	20374
890.501	20218
890.624	20191
890.748	20187
890.871	20058
890.995	19978
891.118	19932
891.241	19959
891.364	19978
891.488	20138
891.611	20050
891.734	19947
891.857	20054
891.98	20069
892.103	20058
892.226	20096
892.349	19959
892.471	19818
892.594	19830
892.717	20001
892.839	19818
892.962	19890
893.085	19955
893.207	19879
893.33	19799
893.452	19841
893.575	19970
893.697	19833
893.819	20008
893.941	20088
894.064	20084
894.186	19932
894.308	19906
894.43	19993
894.552	20103
894.674	20001
894.796	19849
894.918	19967
895.04	19833
895.161	20062
895.283	20088
895.405	19814
895.526	19841
895.648	19894
895.769	19986
895.891	20001
896.012	20054
896.134	19944
896.255	19963
896.376	19978
896.498	19925
896.619	20046
896.74	20027
896.861	19940
896.982	20202
897.103	20404
897.224	20259
897.345	20153
897.466	20012
897.587	20172
897.708	20210
897.828	20191
897.949	19967
898.07	20008
898.19	20046
898.311	20278
898.431	20092
898.552	20145
898.672	20142
898.792	20286
898.913	20138
899.033	20020
899.153	19982
899.273	19837
899.393	19875
899.513	20024
899.633	19818
899.753	19902
899.873	19830
899.993	19913
900.113	19849
900.232	19944
900.352	19864
900.472	19681
900.591	19776
900.711	19685
900.83	19609
900.95	19738
901.069	19696
901.189	19571
901.308	19464
901.427	19320
901.546	19285
901.665	19221
901.784	19263
901.904	19209
902.023	19057
902.141	18958
902.26	18844
902.379	18954
902.498	18726
902.617	18764
902.735	18776
902.854	18776
902.973	18700
903.091	18517
903.21	18456
903.328	18506
903.446	18380
903.565	18327
903.683	18232
903.801	18152
903.919	18186
904.038	18106
904.156	18110
904.274	18019
904.392	17958
904.51	17961
904.627	18049
904.745	18205
904.863	18076
904.981	17794
905.098	17665
905.216	17741
905.334	17604
905.451	17805
905.569	17733
905.686	17672
905.803	17638
905.921	17497
906.038	17623
906.155	17524
906.272	17440
906.389	17455
906.506	17299
906.623	17326
906.74	17151
906.857	17136
906.974	17147
907.091	17311
907.208	17452
907.324	17284
907.441	17140
907.557	16987
907.674	16957
907.79	16957
907.907	16927
908.023	16968
908.139	16934
908.256	16927
908.372	16801
908.488	16831
908.604	16668
908.72	16478
908.836	16634
908.952	16710
909.068	16683
909.184	16858
909.3	16710
909.415	16649
909.531	16664
909.647	16512
909.762	16303
909.878	16314
909.993	16409
910.108	16352
910.224	16363
910.339	16306
910.454	16284
910.57	16242
910.685	16196
910.8	16424
910.915	16257
911.03	16139
911.145	15975
911.259	16048
911.374	16017
911.489	15903
911.604	15869
911.718	15644
911.833	15816
911.947	15652
912.062	15599
912.176	15728
912.291	15682
912.405	15739
912.519	15827
912.633	15838
912.748	15743
912.862	15728
912.976	15545
913.09	15450
913.204	15488
913.318	15542
913.431	15660
913.545	15690
913.659	15603
913.772	15523
913.886	15336
914	15393
914.113	15431
914.226	15458
914.34	15329
914.453	15275
914.566	15386
914.68	15287
914.793	15336
914.906	14986
915.019	14982
915.132	14918
915.245	14994
915.358	14994
915.47	14990
915.583	14994
915.696	14998
915.809	15077
915.921	15165
916.034	14910
916.146	14853
916.259	14777
916.371	14998
916.483	14830
916.595	14937
916.708	14762
916.82	14876
916.932	14739
917.044	14739
917.156	14663
917.268	14625
917.38	14552
917.491	14610
917.603	14632
917.715	14678
917.826	14731
917.938	14583
918.049	14522
918.161	14640
918.272	14746
918.384	14670
918.495	14610
918.606	14404
918.717	14351
918.828	14419
918.939	14450
919.05	14294
919.161	14423
919.272	14267
919.383	14218
919.494	14385
919.604	14583
919.715	14343
919.826	14240
919.936	14389
920.047	14461
920.157	14320
920.267	14465
920.378	14339
920.488	14374
920.598	14522
920.708	14610
920.818	14526
920.928	14480
921.038	14564
921.148	14556
921.258	14351
921.368	14206
921.477	14005
921.587	14100
921.697	13959
921.806	14050
921.916	13959
922.025	13814
922.134	13708
922.244	13639
922.353	13761
922.462	13647
922.571	13521
922.68	13327
922.789	13369
922.898	13362
923.007	13362
923.116	13464
923.224	13354
923.333	13358
923.442	13183
923.55	13206
923.659	13274
923.767	13221
923.876	13213
923.984	13175
924.092	13046
924.201	13194
924.309	13160
924.417	13187
924.525	13103
924.633	13080
924.741	13791
924.849	12882
924.956	13008
925.064	12806
925.172	12798
925.279	12833
925.387	12863
925.494	12817
925.602	12951
925.709	12817
925.816	12703
925.924	12749
926.031	12825
926.138	12673
926.245	12875
926.352	12688
926.459	12848
926.566	12783
926.673	12654
926.779	12502
926.886	12578
926.993	12418
927.099	12422
927.206	12376
927.312	12315
927.419	12414
927.525	12407
927.631	12464
927.737	12353
927.843	12304
927.95	12243
928.056	12171
928.162	12194
928.267	12285
928.373	12924
928.479	12292
928.585	12060
928.69	12159
928.796	12247
928.901	12038
929.007	11954
929.112	12117
929.218	11992
929.323	12007
929.428	11965
929.533	12167
929.638	11779
929.743	11874
929.848	11935
929.953	11916
930.058	11828
930.163	11627
930.267	11623
930.372	11824
930.477	11600
930.581	11847
930.685	11680
930.79	11547
930.894	11611
930.998	11585
931.103	11707
931.207	11318
931.311	11254
931.415	11174
931.519	10923
931.623	10934
