Data from test_V78500241_1494.txt Node
Date: Fri Mar 25 15:20:15 CST 2022
User: usil
Spectrometer: V785-0024
Trigger mode: 0
Integration Time (sec): 4.000000E-1
Scans to average: 1
Nonlinearity correction enabled: false
Boxcar width: 0
Storing dark spectrum: false
XAxis mode: Wavelengths
Number of Pixels in Spectrum: 1024
>>>>>Begin Spectral Data<<<<<
801.071	28310
801.214	28059
801.356	27808
801.499	27808
801.641	27686
801.783	27778
801.926	27766
802.068	27652
802.211	27709
802.353	27526
802.496	27420
802.638	27416
802.78	27367
802.923	27302
803.065	27264
803.208	27207
803.35	27393
803.492	27496
803.635	27553
803.777	27450
803.919	27511
804.061	27751
804.204	27656
804.346	27500
804.488	27523
804.63	27481
804.773	27519
804.915	27542
805.057	27770
805.199	27553
805.341	27690
805.483	27690
805.626	27766
805.768	27572
805.91	27701
806.052	27762
806.194	27641
806.336	27945
806.478	27743
806.62	27789
806.762	27766
806.904	27998
807.046	28169
807.188	28230
807.33	28112
807.472	28196
807.614	28207
807.756	28086
807.898	28044
808.04	28036
808.182	27994
808.324	28010
808.465	28021
808.607	28284
808.749	28333
808.891	28443
809.033	28459
809.174	28367
809.316	28504
809.458	28337
809.6	28459
809.741	28474
809.883	28569
810.025	28710
810.166	28565
810.308	28672
810.45	28618
810.591	28550
810.733	28478
810.875	28379
811.016	28238
811.158	28344
811.299	28424
811.441	28531
811.582	28546
811.724	28455
811.865	28272
812.007	28405
812.148	28398
812.29	28462
812.431	28531
812.573	28679
812.714	28702
812.855	28908
812.997	28885
813.138	29151
813.279	29094
813.421	28957
813.562	28961
813.703	28824
813.845	28645
813.986	28310
814.127	28173
814.268	28128
814.41	28074
814.551	28029
814.692	28192
814.833	27850
814.974	28116
815.115	28078
815.256	27892
815.397	28048
815.539	28040
815.68	27861
815.821	27842
815.962	27835
816.103	27945
816.244	27747
816.385	27644
816.526	27583
816.666	27519
816.807	27583
816.948	27294
817.089	27477
817.23	27374
817.371	27302
817.512	27348
817.653	27336
817.793	27275
817.934	27340
818.075	27378
818.216	27355
818.356	27363
818.497	27302
818.638	27062
818.778	27127
818.919	27119
819.06	27112
819.2	27241
819.341	27359
819.481	27367
819.622	27504
819.762	27705
819.903	27595
820.043	27690
820.184	27481
820.324	27534
820.465	27481
820.605	27344
820.746	27637
820.886	27405
821.026	27473
821.167	27393
821.307	27629
821.447	27439
821.588	27272
821.728	27116
821.868	27028
822.008	27028
822.149	26796
822.289	26693
822.429	26583
822.569	26499
822.709	26495
822.849	26408
822.99	26415
823.13	26358
823.27	26290
823.41	26031
823.55	26206
823.69	26092
823.83	26259
823.97	26050
824.11	25932
824.25	25966
824.389	25917
824.529	26016
824.669	25925
824.809	26050
824.949	26107
825.089	26107
825.228	26054
825.368	25913
825.508	25879
825.648	26024
825.787	25940
825.927	26016
826.067	25704
826.206	25772
826.346	25883
826.485	25921
826.625	25830
826.765	25989
826.904	25799
827.044	25719
827.183	25639
827.323	25521
827.462	25647
827.601	25582
827.741	25495
827.88	25670
828.02	25552
828.159	25525
828.298	25540
828.437	25693
828.577	25567
828.716	25597
828.855	25388
828.994	25388
829.134	25183
829.273	25278
829.412	25217
829.551	25084
829.69	25289
829.829	25396
829.968	25324
830.107	25308
830.246	25228
830.385	25225
830.524	25148
830.663	25065
830.802	24989
830.941	24795
831.08	24939
831.219	25015
831.357	24954
831.496	25183
831.635	24795
831.774	24760
831.913	24696
832.051	24719
832.19	24608
832.329	24711
832.467	24627
832.606	24525
832.744	24479
832.883	24399
833.022	24486
833.16	24528
833.299	24620
833.437	24745
833.576	24578
833.714	24566
833.852	24681
833.991	24677
834.129	24684
834.267	24665
834.406	24654
834.544	24616
834.682	24483
834.821	24692
834.959	24642
835.097	24604
835.235	24547
835.373	24650
835.511	24502
835.65	24540
835.788	24433
835.926	24376
836.064	24369
836.202	24296
836.34	24483
836.478	24532
836.615	24323
836.753	24399
836.891	24574
837.029	24418
837.167	24426
837.305	24281
837.443	24247
837.58	24121
837.718	24266
837.856	24266
837.993	24182
838.131	24266
838.269	24239
838.406	24068
838.544	24114
838.681	23847
838.819	23889
838.956	23748
839.094	23710
839.231	23802
839.369	23939
839.506	24057
839.643	23965
839.781	23710
839.918	23551
840.055	23638
840.193	23665
840.33	23695
840.467	23649
840.604	23581
840.742	23870
840.879	23440
841.016	23604
841.153	23455
841.29	23809
841.427	23653
841.564	23604
841.701	23627
841.838	23585
841.975	23433
842.112	23395
842.249	23531
842.385	23410
842.522	23657
842.659	23520
842.796	23383
842.933	23455
843.069	23303
843.206	23322
843.343	23387
843.479	23482
843.616	23459
843.752	23216
843.889	23250
844.025	23364
844.162	23246
844.298	23292
844.435	23109
844.571	23025
844.708	23064
844.844	23197
844.98	23414
845.117	23269
845.253	23113
845.389	22991
845.525	23113
845.661	23064
845.798	22793
845.934	22915
846.07	22805
846.206	22946
846.342	23025
846.478	22850
846.614	22748
846.75	22561
846.886	22615
847.022	22706
847.158	22675
847.294	22542
847.429	22584
847.565	22508
847.701	22972
847.837	22344
847.972	22223
848.108	22493
848.244	22440
848.379	22246
848.515	22124
848.65	22185
848.786	22261
848.921	22215
849.057	22341
849.192	22375
849.328	22200
849.463	22287
849.598	22109
849.734	22048
849.869	22120
850.004	21934
850.14	21888
850.275	21991
850.41	21903
850.545	21953
850.68	21861
850.815	21934
850.95	21975
851.085	22219
851.22	22181
851.355	21998
851.49	21888
851.625	21937
851.76	21827
851.895	21854
852.03	21884
852.165	21895
852.299	22021
852.434	22070
852.569	22086
852.703	21945
852.838	22013
852.973	22093
853.107	22173
853.242	21823
853.376	21804
853.511	21618
853.645	21766
853.78	21789
853.914	21705
854.048	21686
854.183	21774
854.317	21804
854.451	21956
854.585	21793
854.72	21850
854.854	21888
854.988	21656
855.122	21797
855.256	21717
855.39	21743
855.524	21827
855.658	21819
855.792	21895
855.926	21759
856.06	21762
856.194	21804
856.327	21797
856.461	21675
856.595	21618
856.729	21861
856.862	21808
856.996	21838
857.13	21911
857.263	21926
857.397	21918
857.53	21732
857.664	21728
857.797	21907
857.931	21907
858.064	21732
858.197	21854
858.331	21667
858.464	21720
858.597	21625
858.731	21785
858.864	21739
858.997	21770
859.13	21797
859.263	21785
859.396	21892
859.529	21698
859.662	21759
859.795	21667
859.928	21736
860.061	22029
860.194	21949
860.327	21762
860.46	21823
860.592	21873
860.725	21937
860.858	21873
860.99	21751
861.123	21698
861.256	21690
861.388	21709
861.521	22230
861.653	21572
861.786	21610
861.918	21709
862.05	21648
862.183	21739
862.315	21705
862.447	21831
862.58	21709
862.712	21606
862.844	21542
862.976	21526
863.108	21625
863.24	21911
863.372	21439
863.504	21450
863.636	21496
863.768	21637
863.9	21469
864.032	21386
864.164	21454
864.296	21492
864.428	21629
864.559	21507
864.691	21530
864.823	21526
864.954	21538
865.086	21523
865.217	21412
865.349	21363
865.48	21450
865.612	21405
865.743	21496
865.875	21351
866.006	21344
866.137	21428
866.269	21408
866.4	21435
866.531	21279
866.662	21252
866.793	21252
866.924	21287
867.055	21268
867.186	21173
867.317	21313
867.448	21214
867.579	21359
867.71	21252
867.841	21241
867.972	21298
868.103	21195
868.233	21294
868.364	21355
868.495	21500
868.625	21526
868.756	21644
868.886	21431
869.017	21549
869.147	21675
869.278	21755
869.408	21568
869.539	21576
869.669	21682
869.799	21466
869.929	21591
870.06	21728
870.19	21743
870.32	21812
870.45	21819
870.58	21937
870.71	22025
870.84	22070
870.97	22002
871.1	21884
871.23	22051
871.36	22128
871.489	22090
871.619	21941
871.749	22070
871.879	22109
872.008	22322
872.138	22147
872.267	22139
872.397	22131
872.526	22078
872.656	22086
872.785	21960
872.915	22097
873.044	22310
873.173	22162
873.303	22253
873.432	22303
873.561	22048
873.69	22166
873.819	22181
873.948	22143
874.077	22242
874.206	22131
874.335	22246
874.464	22044
874.593	22318
874.722	22249
874.851	22382
874.979	22428
875.108	22516
875.237	22310
875.365	22268
875.494	22287
875.623	22352
875.751	22268
875.88	22432
876.008	22550
876.136	22634
876.265	22710
876.393	22782
876.521	22858
876.65	22866
876.778	22771
876.906	22812
877.034	22630
877.162	22736
877.29	22641
877.418	22687
877.546	22713
877.674	22706
877.802	22675
877.93	22710
878.058	22679
878.185	22577
878.313	22672
878.441	22691
878.568	22459
878.696	22504
878.824	22759
878.951	22771
879.079	22839
879.206	22957
879.333	22835
879.461	22721
879.588	22816
879.715	22828
879.842	22953
879.97	22797
880.097	22637
880.224	22443
880.351	22588
880.478	22424
880.605	22394
880.732	22489
880.859	22710
880.986	22478
881.112	22580
881.239	22432
881.366	22249
881.493	22169
881.619	22006
881.746	22173
881.872	22059
881.999	22109
882.125	21987
882.252	22120
882.378	22017
882.505	22166
882.631	21888
882.757	21770
882.883	21812
883.01	21766
883.136	21793
883.262	21660
883.388	21701
883.514	21747
883.64	21762
883.766	21781
883.892	21583
884.018	21599
884.143	21732
884.269	21797
884.395	21515
884.52	21435
884.646	21279
884.772	21370
884.897	21287
885.023	21447
885.148	21523
885.274	21492
885.399	21564
885.524	21374
885.65	21386
885.775	21435
885.9	21462
886.025	21530
886.15	21405
886.275	21336
886.4	21313
886.525	21378
886.65	21294
886.775	21294
886.9	21515
887.025	21583
887.149	21397
887.274	21298
887.399	21188
887.523	21081
887.648	21093
887.773	21081
887.897	21119
888.021	21184
888.146	21165
888.27	21363
888.395	21199
888.519	21176
888.643	21188
888.767	21150
888.891	21055
889.015	21009
889.139	21020
889.263	21005
889.387	21058
889.511	21169
889.635	21104
889.759	20994
889.883	20952
890.006	21017
890.13	21077
890.254	20914
890.377	20902
890.501	20667
890.624	20800
890.748	20720
890.871	20689
890.995	20503
891.118	20415
891.241	20473
891.364	20545
891.488	20682
891.611	20522
891.734	20659
891.857	20697
891.98	20659
892.103	20609
892.226	20454
892.349	20423
892.471	20324
892.594	20412
892.717	20389
892.839	20533
892.962	20434
893.085	20362
893.207	20381
893.33	20396
893.452	20427
893.575	20507
893.697	20499
893.819	20598
893.941	20651
894.064	20526
894.186	20343
894.308	20271
894.43	20564
894.552	20560
894.674	20454
894.796	20374
894.918	20431
895.04	20370
895.161	20450
895.283	20526
895.405	20400
895.526	20309
895.648	20495
895.769	20415
895.891	20533
896.012	20522
896.134	20549
896.255	20423
896.376	20511
896.498	20434
896.619	20450
896.74	20408
896.861	20446
896.982	20716
897.103	20861
897.224	20678
897.345	20606
897.466	20629
897.587	20689
897.708	20724
897.828	20735
897.949	20632
898.07	20545
898.19	20530
898.311	20697
898.431	20564
898.552	20598
898.672	20689
898.792	20636
898.913	20621
899.033	20598
899.153	20461
899.273	20301
899.393	20362
899.513	20404
899.633	20499
899.753	20290
899.873	20347
899.993	20309
900.113	20271
900.232	20446
900.352	20282
900.472	20278
900.591	20161
900.711	20218
900.83	20149
900.95	20244
901.069	20237
901.189	20008
901.308	19753
901.427	19807
901.546	19772
901.665	19700
901.784	19708
901.904	19499
902.023	19441
902.141	19304
902.26	19228
902.379	19354
902.498	19217
902.617	19152
902.735	19320
902.854	19202
902.973	19213
903.091	18878
903.21	18825
903.328	18871
903.446	18863
903.565	18719
903.683	18829
903.801	18681
903.919	18722
904.038	18654
904.156	18471
904.274	18544
904.392	18395
904.51	18563
904.627	18471
904.745	18547
904.863	18582
904.981	18220
905.098	18121
905.216	18251
905.334	18228
905.451	18213
905.569	18102
905.686	18087
905.803	18083
905.921	17885
906.038	17973
906.155	17984
906.272	17741
906.389	17832
906.506	17653
906.623	17695
906.74	17585
906.857	17532
906.974	17532
907.091	17638
907.208	17805
907.324	17771
907.441	17611
907.557	17398
907.674	17455
907.79	17318
907.907	17398
908.023	17429
908.139	17322
908.256	17433
908.372	17292
908.488	17296
908.604	17094
908.72	17185
908.836	17193
908.952	17064
909.068	17159
909.184	17258
909.3	17102
909.415	17128
909.531	17109
909.647	16873
909.762	16706
909.878	16767
909.993	16831
910.108	16805
910.224	16771
910.339	16866
910.454	16706
910.57	16641
910.685	16558
910.8	16774
910.915	16828
911.03	16668
911.145	16481
911.259	16462
911.374	16493
911.489	16337
911.604	16219
911.718	16147
911.833	16150
911.947	15991
912.062	15949
912.176	16166
912.291	16097
912.405	16093
912.519	16261
912.633	16276
912.748	16097
912.862	16173
912.976	15953
913.09	15857
913.204	16013
913.318	15876
913.431	16006
913.545	15972
913.659	15991
913.772	15918
913.886	15819
914	15713
914.113	15861
914.226	15869
914.34	15838
914.453	15633
914.566	15793
914.68	15587
914.793	15667
914.906	15443
915.019	15485
915.132	15367
915.245	15321
915.358	15302
915.47	15329
915.583	15348
915.696	15428
915.809	15511
915.921	15504
916.034	15325
916.146	15272
916.259	15184
916.371	15355
916.483	15393
916.595	15161
916.708	15180
916.82	15100
916.932	15226
917.044	15085
917.156	15020
917.268	15108
917.38	15020
917.491	14883
917.603	15036
917.715	15062
917.826	15112
917.938	14910
918.049	14857
918.161	14975
918.272	15032
918.384	15089
918.495	14944
918.606	14724
918.717	14708
918.828	14845
918.939	14762
919.05	14720
919.161	14678
919.272	14617
919.383	14594
919.494	14720
919.604	14861
919.715	14792
919.826	14590
919.936	14750
920.047	14750
920.157	14727
920.267	14998
920.378	14750
920.488	14678
920.598	14880
920.708	15024
920.818	14823
920.928	14899
921.038	15024
921.148	14925
921.258	14636
921.368	14648
921.477	14568
921.587	14377
921.697	14267
921.806	14442
921.916	14229
922.025	14202
922.134	14077
922.244	13989
922.353	14149
922.462	13986
922.571	13890
922.68	13738
922.789	13811
922.898	13761
923.007	13582
923.116	13738
923.224	13681
923.333	13734
923.442	13464
923.55	13438
923.659	13578
923.767	13594
923.876	13548
923.984	13647
924.092	13487
924.201	13533
924.309	13415
924.417	13441
924.525	13384
924.633	13457
924.741	14119
924.849	13251
924.956	13407
925.064	13202
925.172	13179
925.279	13031
925.387	13171
925.494	13141
925.602	13327
925.709	13183
925.816	13076
925.924	13012
926.031	13255
926.138	13042
926.245	13137
926.352	12977
926.459	13057
926.566	13080
926.673	12977
926.779	12913
926.886	12863
926.993	12787
927.099	12707
927.206	12654
927.312	12688
927.419	12787
927.525	12760
927.631	12677
927.737	12673
927.843	12517
927.95	12448
928.056	12604
928.162	12490
928.267	12589
928.373	13190
928.479	12528
928.585	12311
928.69	12506
928.796	12506
928.901	12437
929.007	12148
929.112	12407
929.218	12296
929.323	12235
929.428	12254
929.533	12388
929.638	12125
929.743	12102
929.848	12159
929.953	12167
930.058	11999
930.163	11859
930.267	11927
930.372	12072
930.477	11794
930.581	12087
930.685	11980
930.79	11855
930.894	11847
930.998	11722
931.103	12003
931.207	11551
931.311	11490
931.415	11372
931.519	11170
931.623	11174
