Data from test_V78500241_1236.txt Node
Date: Fri Mar 25 15:18:27 CST 2022
User: usil
Spectrometer: V785-0024
Trigger mode: 0
Integration Time (sec): 4.000000E-1
Scans to average: 1
Nonlinearity correction enabled: false
Boxcar width: 0
Storing dark spectrum: false
XAxis mode: Wavelengths
Number of Pixels in Spectrum: 1024
>>>>>Begin Spectral Data<<<<<
801.071	28299
801.214	28074
801.356	27922
801.499	27797
801.641	27914
801.783	27747
801.926	27778
802.068	27808
802.211	27675
802.353	27553
802.496	27397
802.638	27340
802.78	27382
802.923	27348
803.065	27363
803.208	27374
803.35	27526
803.492	27587
803.635	27637
803.777	27374
803.919	27625
804.061	27953
804.204	27766
804.346	27690
804.488	27580
804.63	27671
804.773	27595
804.915	27800
805.057	27766
805.199	27671
805.341	27644
805.483	27793
805.626	27804
805.768	27614
805.91	27709
806.052	27865
806.194	27762
806.336	27911
806.478	27755
806.62	27865
806.762	27816
806.904	28055
807.046	28284
807.188	28246
807.33	28234
807.472	28265
807.614	28120
807.756	28143
807.898	28131
808.04	27968
808.182	28158
808.324	28162
808.465	28120
808.607	28276
808.749	28462
808.891	28500
809.033	28596
809.174	28451
809.316	28390
809.458	28500
809.6	28223
809.741	28660
809.883	28615
810.025	28793
810.166	28607
810.308	28862
810.45	28641
810.591	28725
810.733	28557
810.875	28405
811.016	28314
811.158	28291
811.299	28569
811.441	28512
811.582	28569
811.724	28512
811.865	28314
812.007	28356
812.148	28470
812.29	28466
812.431	28535
812.573	28835
812.714	28850
812.855	28881
812.997	29094
813.138	29273
813.279	29136
813.421	29048
813.562	28942
813.703	28706
813.845	28550
813.986	28337
814.127	28280
814.268	28196
814.41	28147
814.551	27895
814.692	28223
814.833	28051
814.974	28188
815.115	28154
815.256	28063
815.397	28059
815.539	27953
815.68	27899
815.821	27778
815.962	28002
816.103	27968
816.244	27751
816.385	27606
816.526	27804
816.666	27405
816.807	27435
816.948	27481
817.089	27644
817.23	27393
817.371	27310
817.512	27488
817.653	27378
817.793	27298
817.934	27500
818.075	27485
818.216	27496
818.356	27363
818.497	27325
818.638	27222
818.778	27245
818.919	27275
819.06	27188
819.2	27507
819.341	27549
819.481	27485
819.622	27618
819.762	27800
819.903	27778
820.043	27717
820.184	27656
820.324	27553
820.465	27583
820.605	27633
820.746	27549
820.886	27519
821.026	27466
821.167	27370
821.307	27481
821.447	27447
821.588	27374
821.728	27165
821.868	27131
822.008	26899
822.149	26883
822.289	26929
822.429	26773
822.569	26594
822.709	26621
822.849	26549
822.99	26347
823.13	26583
823.27	26393
823.41	26431
823.55	26103
823.69	26351
823.83	26176
823.97	26199
824.11	26050
824.25	26077
824.389	26134
824.529	26130
824.669	26005
824.809	26271
824.949	26210
825.089	26096
825.228	26134
825.368	25997
825.508	25906
825.648	25944
825.787	25970
825.927	26119
826.067	25928
826.206	25955
826.346	25982
826.485	25997
826.625	25841
826.765	26119
826.904	26008
827.044	25601
827.183	25814
827.323	25563
827.462	25696
827.601	25647
827.741	25708
827.88	25685
828.02	25613
828.159	25639
828.298	25696
828.437	25693
828.577	25635
828.716	25674
828.855	25609
828.994	25430
829.134	25441
829.273	25422
829.412	25335
829.551	25304
829.69	25464
829.829	25426
829.968	25396
830.107	25518
830.246	25422
830.385	25259
830.524	25183
830.663	25221
830.802	25050
830.941	25042
831.08	25008
831.219	25065
831.357	25027
831.496	25213
831.635	24985
831.774	25023
831.913	24947
832.051	24848
832.19	24886
832.329	24863
832.467	24703
832.606	24582
832.744	24696
832.883	24711
833.022	24547
833.16	24673
833.299	24760
833.437	24802
833.576	24715
833.714	24848
833.852	24791
833.991	24875
834.129	24909
834.267	24776
834.406	24722
834.544	24829
834.682	24635
834.821	24738
834.959	24909
835.097	24669
835.235	24776
835.373	24821
835.511	24760
835.65	24665
835.788	24593
835.926	24521
836.064	24369
836.202	24395
836.34	24604
836.478	24696
836.615	24555
836.753	24650
836.891	24688
837.029	24517
837.167	24498
837.305	24525
837.443	24388
837.58	24414
837.718	24483
837.856	24582
837.993	24171
838.131	24441
838.269	24182
838.406	24285
838.544	24338
838.681	23988
838.819	24015
838.956	23805
839.094	23866
839.231	23961
839.369	24072
839.506	24178
839.643	24049
839.781	23741
839.918	23893
840.055	23843
840.193	23950
840.33	23809
840.467	23726
840.604	23741
840.742	24114
840.879	23653
841.016	23760
841.153	23714
841.29	23920
841.427	23828
841.564	23672
841.701	23745
841.838	23520
841.975	23668
842.112	23752
842.249	23638
842.385	23501
842.522	23748
842.659	23608
842.796	23570
842.933	23551
843.069	23570
843.206	23512
843.343	23509
843.479	23566
843.616	23452
843.752	23318
843.889	23261
844.025	23341
844.162	23379
844.298	23474
844.435	23280
844.571	23322
844.708	23250
844.844	23471
844.98	23516
845.117	23535
845.253	23239
845.389	23197
845.525	23280
845.661	23056
845.798	23067
845.934	23003
846.07	23022
846.206	22987
846.342	23307
846.478	23079
846.614	22763
846.75	22698
846.886	22790
847.022	22866
847.158	22733
847.294	22744
847.429	22847
847.565	22847
847.701	23048
847.837	22474
847.972	22592
848.108	22679
848.244	22596
848.379	22462
848.515	22318
848.65	22379
848.786	22417
848.921	22375
849.057	22508
849.192	22417
849.328	22348
849.463	22375
849.598	22337
849.734	22303
849.869	22116
850.004	22105
850.14	22124
850.275	22204
850.41	22070
850.545	22044
850.68	22006
850.815	22109
850.95	22067
851.085	22303
851.22	22196
851.355	22135
851.49	22162
851.625	22029
851.76	22063
851.895	22017
852.03	22010
852.165	22017
852.299	22067
852.434	22234
852.569	22162
852.703	22101
852.838	22162
852.973	22367
853.107	22223
853.242	22078
853.376	21953
853.511	21945
853.645	21968
853.78	22010
853.914	21937
854.048	21972
854.183	21892
854.317	21941
854.451	22116
854.585	21930
854.72	21869
854.854	22105
854.988	21838
855.122	21892
855.256	21724
855.39	21903
855.524	22048
855.658	21915
855.792	21979
855.926	22044
856.06	22109
856.194	22078
856.327	21994
856.461	21827
856.595	21835
856.729	21903
856.862	22112
856.996	22025
857.13	22109
857.263	22006
857.397	22131
857.53	21865
857.664	22006
857.797	22074
857.931	22055
858.064	22040
858.197	21987
858.331	21960
858.464	21827
858.597	21831
858.731	21918
858.864	21926
858.997	21842
859.13	21915
859.263	21998
859.396	21987
859.529	21861
859.662	21960
859.795	21922
859.928	21880
860.061	22112
860.194	22105
860.327	21987
860.46	21922
860.592	22017
860.725	22192
860.858	22051
860.99	21960
861.123	21831
861.256	21876
861.388	21975
861.521	22618
861.653	21766
861.786	21762
861.918	21819
862.05	21774
862.183	21838
862.315	21918
862.447	22032
862.58	21884
862.712	21705
862.844	21747
862.976	21762
863.108	21698
863.24	22162
863.372	21739
863.504	21709
863.636	21633
863.768	21743
863.9	21610
864.032	21561
864.164	21572
864.296	21717
864.428	21774
864.559	21747
864.691	21739
864.823	21622
864.954	21614
865.086	21576
865.217	21618
865.349	21435
865.48	21576
865.612	21553
865.743	21618
865.875	21618
866.006	21572
866.137	21477
866.269	21553
866.4	21595
866.531	21443
866.662	21306
866.793	21389
866.924	21477
867.055	21443
867.186	21603
867.317	21496
867.448	21367
867.579	21443
867.71	21336
867.841	21363
867.972	21473
868.103	21439
868.233	21428
868.364	21538
868.495	21709
868.625	21595
868.756	21922
868.886	21667
869.017	21625
869.147	21660
869.278	21884
869.408	21652
869.539	21846
869.669	21667
869.799	21831
869.929	21739
870.06	21759
870.19	21945
870.32	21915
870.45	22025
870.58	22048
870.71	22207
870.84	22097
870.97	22097
871.1	22025
871.23	22272
871.36	22421
871.489	22181
871.619	22207
871.749	22272
871.879	22379
872.008	22428
872.138	22261
872.267	22253
872.397	22131
872.526	22074
872.656	22013
872.785	22067
872.915	22238
873.044	22428
873.173	22367
873.303	22375
873.432	22325
873.561	22352
873.69	22223
873.819	22382
873.948	22394
874.077	22246
874.206	22200
874.335	22261
874.464	22500
874.593	22596
874.722	22500
874.851	22554
874.979	22508
875.108	22497
875.237	22413
875.365	22382
875.494	22470
875.623	22618
875.751	22462
875.88	22554
876.008	22660
876.136	22653
876.265	22961
876.393	22946
876.521	22938
876.65	22930
876.778	23029
876.906	22763
877.034	22850
877.162	22892
877.29	22782
877.418	22797
877.546	22850
877.674	22904
877.802	22877
877.93	22877
878.058	22835
878.185	22733
878.313	22858
878.441	22816
878.568	22588
878.696	22752
878.824	22824
878.951	22820
879.079	23105
879.206	23109
879.333	22942
879.461	22923
879.588	23060
879.715	23018
879.842	23044
879.97	23003
880.097	22637
880.224	22542
880.351	22763
880.478	22706
880.605	22557
880.732	22748
880.859	22911
880.986	22630
881.112	22660
881.239	22508
881.366	22516
881.493	22287
881.619	22284
881.746	22181
881.872	22295
881.999	22131
882.125	22158
882.252	22318
882.378	22207
882.505	22337
882.631	22040
882.757	21930
882.883	22048
883.01	21983
883.136	21842
883.262	21823
883.388	21789
883.514	21975
883.64	22070
883.766	21926
883.892	21778
884.018	21785
884.143	21979
884.269	21873
884.395	21671
884.52	21694
884.646	21557
884.772	21469
884.897	21408
885.023	21572
885.148	21637
885.274	21770
885.399	21747
885.524	21629
885.65	21610
885.775	21568
885.9	21629
886.025	21667
886.15	21572
886.275	21515
886.4	21469
886.525	21553
886.65	21606
886.775	21538
886.9	21652
887.025	21690
887.149	21603
887.274	21424
887.399	21336
887.523	21367
887.648	21382
887.773	21214
887.897	21458
888.021	21336
888.146	21218
888.27	21549
888.395	21412
888.519	21492
888.643	21408
888.767	21401
888.891	21294
889.015	21135
889.139	21112
889.263	21028
889.387	21184
889.511	21401
889.635	21241
889.759	21085
889.883	21001
890.006	21112
890.13	21165
890.254	21043
890.377	20979
890.501	20937
890.624	20800
890.748	20967
890.871	20746
890.995	20609
891.118	20549
891.241	20659
891.364	20823
891.488	20902
891.611	20644
891.734	20682
891.857	20651
891.98	20724
892.103	20849
892.226	20720
892.349	20552
892.471	20518
892.594	20583
892.717	20663
892.839	20609
892.962	20602
893.085	20602
893.207	20663
893.33	20389
893.452	20545
893.575	20682
893.697	20587
893.819	20739
893.941	20796
894.064	20640
894.186	20556
894.308	20484
894.43	20617
894.552	20712
894.674	20731
894.796	20488
894.918	20587
895.04	20476
895.161	20606
895.283	20629
895.405	20492
895.526	20552
895.648	20442
895.769	20644
895.891	20533
896.012	20644
896.134	20602
896.255	20590
896.376	20533
896.498	20473
896.619	20613
896.74	20488
896.861	20720
896.982	20895
897.103	20979
897.224	20921
897.345	20838
897.466	20731
897.587	20701
897.708	20857
897.828	20815
897.949	20724
898.07	20686
898.19	20720
898.311	20792
898.431	20602
898.552	20762
898.672	20754
898.792	20781
898.913	20735
899.033	20613
899.153	20640
899.273	20461
899.393	20480
899.513	20571
899.633	20556
899.753	20495
899.873	20404
899.993	20537
900.113	20473
900.232	20385
900.352	20370
900.472	20336
900.591	20362
900.711	20400
900.83	20187
900.95	20263
901.069	20324
901.189	20073
901.308	19986
901.427	19784
901.546	19864
901.665	19921
901.784	19909
901.904	19731
902.023	19643
902.141	19438
902.26	19388
902.379	19426
902.498	19335
902.617	19377
902.735	19346
902.854	19301
902.973	19259
903.091	19004
903.21	19076
903.328	19084
903.446	18951
903.565	18741
903.683	18856
903.801	18612
903.919	18787
904.038	18802
904.156	18658
904.274	18688
904.392	18566
904.51	18623
904.627	18544
904.745	18665
904.863	18669
904.981	18509
905.098	18327
905.216	18281
905.334	18384
905.451	18243
905.569	18152
905.686	18273
905.803	18346
905.921	18038
906.038	18155
906.155	18079
906.272	17866
906.389	18015
906.506	17901
906.623	17726
906.74	17851
906.857	17672
906.974	17684
907.091	17855
907.208	17980
907.324	17878
907.441	17752
907.557	17524
907.674	17436
907.79	17436
907.907	17387
908.023	17627
908.139	17524
908.256	17543
908.372	17474
908.488	17341
908.604	17200
908.72	17261
908.836	17299
908.952	17223
909.068	17280
909.184	17322
909.3	17258
909.415	17212
909.531	17250
909.647	16968
909.762	16911
909.878	16961
909.993	16911
910.108	16892
910.224	16809
910.339	16972
910.454	16786
910.57	16771
910.685	16771
910.8	16949
910.915	16820
911.03	16634
911.145	16615
911.259	16523
911.374	16592
911.489	16394
911.604	16447
911.718	16299
911.833	16234
911.947	16185
912.062	16071
912.176	16207
912.291	16402
912.405	16204
912.519	16432
912.633	16322
912.748	16276
912.862	16207
912.976	16116
913.09	15915
913.204	16055
913.318	16093
913.431	16124
913.545	16120
913.659	16147
913.772	16071
913.886	15816
914	15922
914.113	15949
914.226	15941
914.34	15949
914.453	15835
914.566	15941
914.68	15755
914.793	15625
914.906	15542
915.019	15591
915.132	15443
915.245	15428
915.358	15485
915.47	15545
915.583	15450
915.696	15408
915.809	15561
915.921	15686
916.034	15405
916.146	15363
916.259	15287
916.371	15633
916.483	15458
916.595	15363
916.708	15279
916.82	15260
916.932	15214
917.044	15173
917.156	15245
917.268	15116
917.38	15093
917.491	15074
917.603	15104
917.715	15157
917.826	15192
917.938	15009
918.049	14933
918.161	15017
918.272	15116
918.384	15199
918.495	14994
918.606	14910
918.717	14838
918.828	14899
918.939	14826
919.05	14800
919.161	14914
919.272	14606
919.383	14777
919.494	14975
919.604	15051
919.715	14857
919.826	14674
919.936	14804
920.047	14845
920.157	14891
920.267	15024
920.378	14849
920.488	14743
920.598	14998
920.708	15097
920.818	14979
920.928	14872
921.038	15112
921.148	15020
921.258	14750
921.368	14689
921.477	14678
921.587	14568
921.697	14385
921.806	14522
921.916	14358
922.025	14244
922.134	14103
922.244	13989
922.353	14168
922.462	14065
922.571	14050
922.68	13822
922.789	13902
922.898	13837
923.007	13811
923.116	13780
923.224	13734
923.333	13719
923.442	13708
923.55	13586
923.659	13529
923.767	13727
923.876	13582
923.984	13647
924.092	13449
924.201	13597
924.309	13540
924.417	13651
924.525	13487
924.633	13384
924.741	14256
924.849	13278
924.956	13460
925.064	13255
925.172	13202
925.279	13206
925.387	13285
925.494	13202
925.602	13293
925.709	13308
925.816	13225
925.924	13179
926.031	13228
926.138	13118
926.245	13209
926.352	13072
926.459	13225
926.566	13141
926.673	13187
926.779	12943
926.886	12958
926.993	12821
927.099	12776
927.206	12730
927.312	12635
927.419	12817
927.525	12726
927.631	12802
927.737	12662
927.843	12692
927.95	12555
928.056	12597
928.162	12703
928.267	12608
928.373	13183
928.479	12627
928.585	12471
928.69	12631
928.796	12479
928.901	12437
929.007	12323
929.112	12441
929.218	12471
929.323	12319
929.428	12277
929.533	12452
929.638	12296
929.743	12190
929.848	12350
929.953	12258
930.058	12083
930.163	11958
930.267	11996
930.372	12091
930.477	11908
930.581	12148
930.685	12045
930.79	11863
930.894	11828
930.998	11813
931.103	11897
931.207	11642
931.311	11501
931.415	11444
931.519	11231
931.623	11265
