Data from test_V78500241_2599.txt Node
Date: Fri Mar 25 15:27:57 CST 2022
User: usil
Spectrometer: V785-0024
Trigger mode: 0
Integration Time (sec): 4.000000E-1
Scans to average: 1
Nonlinearity correction enabled: false
Boxcar width: 0
Storing dark spectrum: false
XAxis mode: Wavelengths
Number of Pixels in Spectrum: 1024
>>>>>Begin Spectral Data<<<<<
801.071	27127
801.214	27066
801.356	26952
801.499	26887
801.641	26762
801.783	26659
801.926	26769
802.068	26636
802.211	26594
802.353	26514
802.496	26389
802.638	26336
802.78	26370
802.923	26317
803.065	26336
803.208	26161
803.35	26320
803.492	26450
803.635	26583
803.777	26457
803.919	26518
804.061	26739
804.204	26613
804.346	26415
804.488	26427
804.63	26438
804.773	26389
804.915	26530
805.057	26689
805.199	26438
805.341	26571
805.483	26663
805.626	26617
805.768	26461
805.91	26484
806.052	26731
806.194	26617
806.336	26773
806.478	26590
806.62	26659
806.762	26678
806.904	26929
807.046	27104
807.188	27119
807.33	27096
807.472	27009
807.614	26910
807.756	27058
807.898	26792
808.04	26944
808.182	26735
808.324	26838
808.465	27020
808.607	27024
808.749	27036
808.891	27226
809.033	27374
809.174	27283
809.316	27222
809.458	27154
809.6	27074
809.741	27332
809.883	27363
810.025	27416
810.166	27507
810.308	27485
810.45	27488
810.591	27401
810.733	27340
810.875	27195
811.016	27074
811.158	27093
811.299	27317
811.441	27363
811.582	27370
811.724	27203
811.865	27135
812.007	27154
812.148	27108
812.29	27077
812.431	27161
812.573	27447
812.714	27564
812.855	27641
812.997	27633
813.138	27831
813.279	27846
813.421	27717
813.562	27583
813.703	27386
813.845	27435
813.986	27146
814.127	26899
814.268	26819
814.41	26986
814.551	26823
814.692	26845
814.833	26746
814.974	26746
815.115	26902
815.256	26754
815.397	26640
815.539	26629
815.68	26579
815.821	26511
815.962	26670
816.103	26663
816.244	26564
816.385	26317
816.526	26419
816.666	26214
816.807	26126
816.948	26081
817.089	26237
817.23	26214
817.371	26149
817.512	26130
817.653	26012
817.793	26058
817.934	26115
818.075	26084
818.216	26043
818.356	26069
818.497	26065
818.638	25917
818.778	25765
818.919	25788
819.06	25925
819.2	25917
819.341	26065
819.481	26050
819.622	26328
819.762	26396
819.903	26370
820.043	26282
820.184	26183
820.324	26107
820.465	26290
820.605	26221
820.746	26183
820.886	25955
821.026	26096
821.167	26172
821.307	26336
821.447	26077
821.588	25936
821.728	25753
821.868	25609
822.008	25483
822.149	25487
822.289	25518
822.429	25259
822.569	25285
822.709	25179
822.849	25107
822.99	25031
823.13	24992
823.27	25038
823.41	24962
823.55	24741
823.69	24882
823.83	24886
823.97	24928
824.11	24566
824.25	24665
824.389	24684
824.529	24730
824.669	24795
824.809	24719
824.949	24806
825.089	24859
825.228	24631
825.368	24589
825.508	24563
825.648	24559
825.787	24639
825.927	24669
826.067	24555
826.206	24589
826.346	24635
826.485	24620
826.625	24555
826.765	24661
826.904	24536
827.044	24292
827.183	24361
827.323	24209
827.462	24418
827.601	24456
827.741	24232
827.88	24289
828.02	24182
828.159	24353
828.298	24277
828.437	24380
828.577	24262
828.716	24239
828.855	24152
828.994	24003
829.134	24114
829.273	24064
829.412	23977
829.551	23897
829.69	23965
829.829	24102
829.968	24003
830.107	23996
830.246	23984
830.385	23954
830.524	23969
830.663	23836
830.802	23741
830.941	23608
831.08	23611
831.219	23695
831.357	23756
831.496	23866
831.635	23668
831.774	23501
831.913	23406
832.051	23436
832.19	23311
832.329	23372
832.467	23368
832.606	23208
832.744	23181
832.883	23296
833.022	23212
833.16	23349
833.299	23208
833.437	23353
833.576	23292
833.714	23349
833.852	23486
833.991	23440
834.129	23444
834.267	23493
834.406	23349
834.544	23501
834.682	23444
834.821	23250
834.959	23570
835.097	23364
835.235	23478
835.373	23307
835.511	23265
835.65	23181
835.788	23216
835.926	23193
836.064	23060
836.202	23029
836.34	23151
836.478	23258
836.615	23269
836.753	23322
836.891	23296
837.029	23280
837.167	23174
837.305	23071
837.443	23052
837.58	23090
837.718	23151
837.856	23212
837.993	22839
838.131	22961
838.269	22980
838.406	22938
838.544	22889
838.681	22740
838.819	22725
838.956	22569
839.094	22596
839.231	22485
839.369	22771
839.506	22843
839.643	22771
839.781	22527
839.918	22497
840.055	22542
840.193	22569
840.33	22500
840.467	22516
840.604	22577
840.742	22725
840.879	22382
841.016	22535
841.153	22303
841.29	22599
841.427	22497
841.564	22500
841.701	22394
841.838	22379
841.975	22443
842.112	22474
842.249	22398
842.385	22249
842.522	22459
842.659	22470
842.796	22356
842.933	22188
843.069	22147
843.206	22154
843.343	22295
843.479	22154
843.616	22253
843.752	21987
843.889	21987
844.025	22169
844.162	21915
844.298	22063
844.435	21968
844.571	21884
844.708	22044
844.844	22116
844.98	22261
845.117	22105
845.253	21968
845.389	21922
845.525	21979
845.661	21930
845.798	21728
845.934	21842
846.07	21766
846.206	21800
846.342	21865
846.478	21720
846.614	21595
846.75	21507
846.886	21576
847.022	21549
847.158	21473
847.294	21492
847.429	21458
847.565	21504
847.701	21656
847.837	21237
847.972	21249
848.108	21302
848.244	21310
848.379	21032
848.515	21036
848.65	21066
848.786	21104
848.921	21131
849.057	21093
849.192	21252
849.328	21081
849.463	21085
849.598	21108
849.734	20899
849.869	20990
850.004	20811
850.14	20895
850.275	20804
850.41	20937
850.545	20693
850.68	20746
850.815	20914
850.95	20918
851.085	20982
851.22	20906
851.355	20876
851.49	20792
851.625	20788
851.76	20796
851.895	20701
852.03	20785
852.165	20796
852.299	20819
852.434	20979
852.569	20948
852.703	20765
852.838	20845
852.973	21051
853.107	20979
853.242	20830
853.376	20765
853.511	20575
853.645	20568
853.78	20750
853.914	20750
854.048	20663
854.183	20617
854.317	20720
854.451	20762
854.585	20686
854.72	20655
854.854	20807
854.988	20602
855.122	20632
855.256	20492
855.39	20674
855.524	20689
855.658	20750
855.792	20689
855.926	20701
856.06	20746
856.194	20838
856.327	20606
856.461	20590
856.595	20579
856.729	20651
856.862	20830
856.996	20621
857.13	20750
857.263	20785
857.397	20667
857.53	20663
857.664	20762
857.797	20632
857.931	20743
858.064	20773
858.197	20735
858.331	20644
858.464	20530
858.597	20442
858.731	20663
858.864	20556
858.997	20754
859.13	20648
859.263	20648
859.396	20762
859.529	20651
859.662	20587
859.795	20636
859.928	20609
860.061	20731
860.194	20910
860.327	20731
860.46	20701
860.592	20826
860.725	20701
860.858	20792
860.99	20705
861.123	20579
861.256	20670
861.388	20629
861.521	21485
861.653	20564
861.786	20537
861.918	20457
862.05	20560
862.183	20575
862.315	20549
862.447	20705
862.58	20587
862.712	20366
862.844	20492
862.976	20549
863.108	20457
863.24	20781
863.372	20294
863.504	20339
863.636	20275
863.768	20400
863.9	20377
864.032	20381
864.164	20298
864.296	20476
864.428	20583
864.559	20419
864.691	20511
864.823	20358
864.954	20377
865.086	20317
865.217	20267
865.349	20183
865.48	20298
865.612	20248
865.743	20423
865.875	20336
866.006	20313
866.137	20313
866.269	20286
866.4	20263
866.531	20278
866.662	20244
866.793	20256
866.924	20210
867.055	20187
867.186	20389
867.317	20161
867.448	20183
867.579	20126
867.71	20145
867.841	20107
867.972	20218
868.103	20187
868.233	20290
868.364	20259
868.495	20339
868.625	20442
868.756	20564
868.886	20366
869.017	20476
869.147	20651
869.278	20625
869.408	20446
869.539	20518
869.669	20488
869.799	20518
869.929	20522
870.06	20518
870.19	20899
870.32	20686
870.45	20655
870.58	20853
870.71	20826
870.84	21001
870.97	20853
871.1	20796
871.23	21100
871.36	21180
871.489	20994
871.619	21077
871.749	21036
871.879	21127
872.008	21142
872.138	21127
872.267	21104
872.397	20811
872.526	20944
872.656	20914
872.785	20826
872.915	20948
873.044	21138
873.173	21020
873.303	21131
873.432	21173
873.561	21245
873.69	21135
873.819	21051
873.948	21260
874.077	21184
874.206	21138
874.335	21020
874.464	21233
874.593	21340
874.722	21355
874.851	21359
874.979	21367
875.108	21397
875.237	21283
875.365	21264
875.494	21317
875.623	21363
875.751	21382
875.88	21332
876.008	21397
876.136	21561
876.265	21671
876.393	21751
876.521	21831
876.65	21869
876.778	21759
876.906	21686
877.034	21652
877.162	21587
877.29	21751
877.418	21618
877.546	21595
877.674	21663
877.802	21652
877.93	21644
878.058	21618
878.185	21606
878.313	21580
878.441	21812
878.568	21488
878.696	21656
878.824	21675
878.951	21778
879.079	21865
879.206	21994
879.333	21816
879.461	21709
879.588	21724
879.715	21816
879.842	21922
879.97	21641
880.097	21507
880.224	21572
880.351	21496
880.478	21507
880.605	21534
880.732	21477
880.859	21717
880.986	21481
881.112	21580
881.239	21359
881.366	21310
881.493	21310
881.619	21119
881.746	21150
881.872	21169
881.999	21074
882.125	20994
882.252	21180
882.378	21085
882.505	21192
882.631	20998
882.757	20845
882.883	20876
883.01	20754
883.136	20754
883.262	20678
883.388	20735
883.514	20826
883.64	20819
883.766	20743
883.892	20625
884.018	20549
884.143	20811
884.269	20720
884.395	20621
884.52	20427
884.646	20347
884.772	20343
884.897	20412
885.023	20461
885.148	20602
885.274	20663
885.399	20640
885.524	20404
885.65	20457
885.775	20549
885.9	20415
886.025	20530
886.15	20564
886.275	20484
886.4	20351
886.525	20389
886.65	20465
886.775	20362
886.9	20587
887.025	20724
887.149	20415
887.274	20233
887.399	20225
887.523	20195
887.648	20103
887.773	20252
887.897	20389
888.021	20294
888.146	20062
888.27	20431
888.395	20377
888.519	20259
888.643	20221
888.767	20259
888.891	20122
889.015	20073
889.139	19986
889.263	20081
889.387	20145
889.511	20233
889.635	20176
889.759	20126
889.883	20062
890.006	20111
890.13	20100
890.254	19993
890.377	20115
890.501	19738
890.624	19788
890.748	19807
890.871	19715
890.995	19624
891.118	19624
891.241	19753
891.364	19628
891.488	19662
891.611	19700
891.734	19662
891.857	19708
891.98	19609
892.103	19635
892.226	19616
892.349	19552
892.471	19476
892.594	19594
892.717	19601
892.839	19487
892.962	19495
893.085	19624
893.207	19476
893.33	19483
893.452	19422
893.575	19563
893.697	19476
893.819	19727
893.941	19655
894.064	19651
894.186	19567
894.308	19411
894.43	19689
894.552	19563
894.674	19567
894.796	19392
894.918	19594
895.04	19548
895.161	19552
895.283	19681
895.405	19487
895.526	19441
895.648	19613
895.769	19487
895.891	19738
896.012	19514
896.134	19597
896.255	19590
896.376	19392
896.498	19449
896.619	19480
896.74	19628
896.861	19616
896.982	19799
897.103	20020
897.224	19791
897.345	19689
897.466	19658
897.587	19727
897.708	19864
897.828	19909
897.949	19700
898.07	19655
898.19	19750
898.311	19826
898.431	19723
898.552	19742
898.672	19837
898.792	19841
898.913	19894
899.033	19734
899.153	19582
899.273	19491
899.393	19457
899.513	19620
899.633	19476
899.753	19666
899.873	19411
899.993	19635
900.113	19403
900.232	19506
900.352	19392
900.472	19362
900.591	19285
900.711	19354
900.83	19362
900.95	19369
901.069	19327
901.189	19095
901.308	18916
901.427	18863
901.546	18920
901.665	18916
901.784	18977
901.904	18707
902.023	18688
902.141	18441
902.26	18448
902.379	18601
902.498	18391
902.617	18388
902.735	18486
902.854	18216
902.973	18334
903.091	18125
903.21	17980
903.328	18133
903.446	17996
903.565	17836
903.683	17961
903.801	17657
903.919	17863
904.038	17764
904.156	17695
904.274	17809
904.392	17672
904.51	17615
904.627	17630
904.745	17722
904.863	17676
904.981	17417
905.098	17402
905.216	17414
905.334	17307
905.451	17292
905.569	17318
905.686	17425
905.803	17303
905.921	17064
906.038	17170
906.155	17128
906.272	17083
906.389	16999
906.506	16881
906.623	16847
906.74	16934
906.857	16839
906.974	16790
907.091	16972
907.208	17022
907.324	16911
907.441	16919
907.557	16679
907.674	16630
907.79	16618
907.907	16538
908.023	16546
908.139	16622
908.256	16668
908.372	16516
908.488	16508
908.604	16459
908.72	16318
908.836	16348
908.952	16287
909.068	16249
909.184	16451
909.3	16287
909.415	16356
909.531	16352
909.647	16105
909.762	16150
909.878	16029
909.993	16112
910.108	16097
910.224	15994
910.339	16109
910.454	16002
910.57	15895
910.685	15903
910.8	16124
910.915	15960
911.03	15835
911.145	15671
911.259	15705
911.374	15633
911.489	15572
911.604	15557
911.718	15477
911.833	15488
911.947	15340
912.062	15389
912.176	15496
912.291	15538
912.405	15416
912.519	15614
912.633	15637
912.748	15485
912.862	15386
912.976	15283
913.09	15062
913.204	15218
913.318	15214
913.431	15233
913.545	15329
913.659	15370
913.772	15226
913.886	14963
914	15005
914.113	15176
914.226	15195
914.34	15104
914.453	14933
914.566	15070
914.68	14902
914.793	14853
914.906	14712
915.019	14670
915.132	14674
915.245	14621
915.358	14724
915.47	14636
915.583	14644
915.696	14659
915.809	14724
915.921	14769
916.034	14674
916.146	14545
916.259	14507
916.371	14644
916.483	14575
916.595	14461
916.708	14495
916.82	14571
916.932	14507
917.044	14476
917.156	14438
917.268	14290
917.38	14366
917.491	14465
917.603	14313
917.715	14381
917.826	14351
917.938	14256
918.049	14168
918.161	14309
918.272	14396
918.384	14442
918.495	14275
918.606	14107
918.717	14088
918.828	14176
918.939	14134
919.05	14005
919.161	14092
919.272	13921
919.383	13989
919.494	14096
919.604	14199
919.715	14123
919.826	14088
919.936	14092
920.047	14126
920.157	14065
920.267	14237
920.378	13963
920.488	14024
920.598	14259
920.708	14313
920.818	14180
920.928	14225
921.038	14298
921.148	14301
921.258	14039
921.368	13883
921.477	13852
921.587	13826
921.697	13731
921.806	13780
921.916	13700
922.025	13586
922.134	13616
922.244	13571
922.353	13430
922.462	13384
922.571	13384
922.68	13114
922.789	13141
922.898	13137
923.007	13050
923.116	13099
923.224	13099
923.333	13107
923.442	12909
923.55	12928
923.659	12928
923.767	13034
923.876	12863
923.984	13015
924.092	12772
924.201	12958
924.309	12951
924.417	12913
924.525	12856
924.633	12787
924.741	13708
924.849	12578
924.956	12730
925.064	12578
925.172	12486
925.279	12525
925.387	12521
925.494	12589
925.602	12589
925.709	12612
925.816	12441
925.924	12517
926.031	12574
926.138	12467
926.245	12517
926.352	12407
926.459	12479
926.566	12498
926.673	12498
926.779	12311
926.886	12342
926.993	12144
927.099	12144
927.206	11988
927.312	12087
927.419	12182
927.525	12121
927.631	12117
927.737	12049
927.843	11969
927.95	11878
928.056	11980
928.162	11942
928.267	12041
928.373	12509
928.479	12049
928.585	11851
928.69	11958
928.796	11931
928.901	11786
929.007	11691
929.112	11767
929.218	11847
929.323	11748
929.428	11638
929.533	11748
929.638	11611
929.743	11604
929.848	11680
929.953	11646
930.058	11516
930.163	11410
930.267	11387
930.372	11615
930.477	11417
930.581	11554
930.685	11379
930.79	11337
930.894	11239
930.998	11261
931.103	11360
931.207	10995
931.311	10953
931.415	10881
931.519	10759
931.623	10702
