Data from test_V78500241_2678.txt Node
Date: Fri Mar 25 15:28:30 CST 2022
User: usil
Spectrometer: V785-0024
Trigger mode: 0
Integration Time (sec): 4.000000E-1
Scans to average: 1
Nonlinearity correction enabled: false
Boxcar width: 0
Storing dark spectrum: false
XAxis mode: Wavelengths
Number of Pixels in Spectrum: 1024
>>>>>Begin Spectral Data<<<<<
801.071	26906
801.214	27017
801.356	26876
801.499	26579
801.641	26712
801.783	26545
801.926	26598
802.068	26670
802.211	26328
802.353	26404
802.496	26115
802.638	26252
802.78	26195
802.923	26111
803.065	25993
803.208	26218
803.35	26153
803.492	26267
803.635	26427
803.777	26199
803.919	26374
804.061	26724
804.204	26309
804.346	26317
804.488	26122
804.63	26374
804.773	26370
804.915	26267
805.057	26393
805.199	26206
805.341	26492
805.483	26541
805.626	26465
805.768	26469
805.91	26473
806.052	26419
806.194	26427
806.336	26568
806.478	26495
806.62	26408
806.762	26374
806.904	26663
807.046	26910
807.188	26842
807.33	26956
807.472	26864
807.614	26746
807.756	26712
807.898	26693
808.04	26727
808.182	26640
808.324	26735
808.465	26838
808.607	26880
808.749	27013
808.891	27051
809.033	27283
809.174	27119
809.316	26967
809.458	27070
809.6	27119
809.741	27298
809.883	27005
810.025	27184
810.166	27241
810.308	27302
810.45	27116
810.591	27188
810.733	26990
810.875	26933
811.016	26921
811.158	26990
811.299	27161
811.441	27188
811.582	27135
811.724	27039
811.865	26891
812.007	26914
812.148	26823
812.29	27043
812.431	27138
812.573	27203
812.714	27424
812.855	27526
812.997	27713
813.138	27827
813.279	27709
813.421	27488
813.562	27420
813.703	27180
813.845	27306
813.986	26853
814.127	26697
814.268	26655
814.41	26632
814.551	26541
814.692	26739
814.833	26644
814.974	26629
815.115	26769
815.256	26705
815.397	26476
815.539	26522
815.68	26294
815.821	26214
815.962	26343
816.103	26442
816.244	26393
816.385	26149
816.526	26183
816.666	26012
816.807	25860
816.948	25993
817.089	26031
817.23	25811
817.371	25822
817.512	25917
817.653	25864
817.793	25887
817.934	25925
818.075	25928
818.216	25902
818.356	25875
818.497	25658
818.638	25601
818.778	25662
818.919	25613
819.06	25689
819.2	25727
819.341	25917
819.481	25902
819.622	25989
819.762	26180
819.903	26191
820.043	25986
820.184	25966
820.324	26039
820.465	25986
820.605	26027
820.746	25959
820.886	25818
821.026	25894
821.167	25883
821.307	25966
821.447	25837
821.588	25849
821.728	25731
821.868	25525
822.008	25324
822.149	25324
822.289	25251
822.429	25107
822.569	24985
822.709	25008
822.849	24966
822.99	24817
823.13	24863
823.27	24840
823.41	24684
823.55	24764
823.69	24700
823.83	24604
823.97	24673
824.11	24521
824.25	24521
824.389	24422
824.529	24532
824.669	24650
824.809	24502
824.949	24589
825.089	24441
825.228	24563
825.368	24346
825.508	24414
825.648	24357
825.787	24414
825.927	24391
826.067	24281
826.206	24403
826.346	24452
826.485	24361
826.625	24494
826.765	24525
826.904	24426
827.044	24106
827.183	24125
827.323	24064
827.462	24209
827.601	24270
827.741	24155
827.88	24098
828.02	24053
828.159	24049
828.298	24068
828.437	24182
828.577	24038
828.716	24114
828.855	23980
828.994	23726
829.134	23828
829.273	23828
829.412	23954
829.551	23630
829.69	23821
829.829	23840
829.968	23920
830.107	23779
830.246	23722
830.385	23805
830.524	23703
830.663	23646
830.802	23520
830.941	23414
831.08	23379
831.219	23505
831.357	23520
831.496	23623
831.635	23353
831.774	23337
831.913	23349
832.051	23223
832.19	23136
832.329	23121
832.467	23193
832.606	23170
832.744	23170
832.883	23170
833.022	23162
833.16	23121
833.299	23174
833.437	23197
833.576	23220
833.714	23193
833.852	23136
833.991	23197
834.129	23227
834.267	23242
834.406	23132
834.544	23193
834.682	23124
834.821	23151
834.959	23349
835.097	23090
835.235	23212
835.373	23121
835.511	23060
835.65	23075
835.788	23025
835.926	22938
836.064	22831
836.202	22850
836.34	22854
836.478	23079
836.615	22873
836.753	23189
836.891	23102
837.029	23006
837.167	22991
837.305	22976
837.443	22881
837.58	22793
837.718	23014
837.856	22900
837.993	22866
838.131	22797
838.269	22717
838.406	22820
838.544	22698
838.681	22485
838.819	22504
838.956	22215
839.094	22322
839.231	22348
839.369	22466
839.506	22725
839.643	22683
839.781	22341
839.918	22329
840.055	22394
840.193	22249
840.33	22185
840.467	22265
840.604	22337
840.742	22584
840.879	22120
841.016	22131
841.153	22200
841.29	22318
841.427	22356
841.564	22341
841.701	22230
841.838	22295
841.975	22223
842.112	22348
842.249	22124
842.385	21987
842.522	22215
842.659	22135
842.796	22128
842.933	22032
843.069	21968
843.206	22059
843.343	22078
843.479	22048
843.616	21941
843.752	21808
843.889	21918
844.025	21964
844.162	21713
844.298	21930
844.435	21667
844.571	21800
844.708	21854
844.844	21956
844.98	21899
845.117	21842
845.253	21793
845.389	21625
845.525	21675
845.661	21743
845.798	21500
845.934	21549
846.07	21447
846.206	21564
846.342	21667
846.478	21431
846.614	21420
846.75	21268
846.886	21252
847.022	21340
847.158	21393
847.294	21405
847.429	21256
847.565	21207
847.701	21447
847.837	21089
847.972	21077
848.108	21036
848.244	21089
848.379	20982
848.515	20773
848.65	20883
848.786	20975
848.921	20891
849.057	20971
849.192	21009
849.328	20845
849.463	20914
849.598	20819
849.734	20811
849.869	20644
850.004	20792
850.14	20708
850.275	20678
850.41	20625
850.545	20571
850.68	20545
850.815	20686
850.95	20495
851.085	20792
851.22	20632
851.355	20743
851.49	20552
851.625	20629
851.76	20587
851.895	20556
852.03	20530
852.165	20598
852.299	20716
852.434	20731
852.569	20712
852.703	20667
852.838	20651
852.973	20785
853.107	20758
853.242	20522
853.376	20499
853.511	20415
853.645	20347
853.78	20609
853.914	20431
854.048	20355
854.183	20377
854.317	20484
854.451	20705
854.585	20385
854.72	20370
854.854	20552
854.988	20412
855.122	20400
855.256	20332
855.39	20389
855.524	20609
855.658	20530
855.792	20503
855.926	20598
856.06	20511
856.194	20488
856.327	20408
856.461	20469
856.595	20499
856.729	20488
856.862	20518
856.996	20518
857.13	20518
857.263	20556
857.397	20583
857.53	20530
857.664	20336
857.797	20423
857.931	20545
858.064	20503
858.197	20488
858.331	20332
858.464	20396
858.597	20275
858.731	20431
858.864	20370
858.997	20431
859.13	20503
859.263	20499
859.396	20579
859.529	20427
859.662	20438
859.795	20313
859.928	20503
860.061	20552
860.194	20609
860.327	20537
860.46	20431
860.592	20617
860.725	20667
860.858	20587
860.99	20495
861.123	20396
861.256	20431
861.388	20469
861.521	21268
861.653	20256
861.786	20263
861.918	20336
862.05	20385
862.183	20480
862.315	20396
862.447	20301
862.58	20309
862.712	20195
862.844	20218
862.976	20271
863.108	20290
863.24	20609
863.372	20210
863.504	20202
863.636	20126
863.768	20225
863.9	20088
864.032	20115
864.164	20122
864.296	20145
864.428	20324
864.559	20248
864.691	20309
864.823	20282
864.954	20157
865.086	20237
865.217	20100
865.349	19970
865.48	20161
865.612	20084
865.743	20225
865.875	20100
866.006	20054
866.137	20065
866.269	20130
866.4	20134
866.531	19989
866.662	20046
866.793	19944
866.924	20012
867.055	20069
867.186	20024
867.317	20031
867.448	19803
867.579	19967
867.71	19921
867.841	19951
867.972	20103
868.103	20046
868.233	19951
868.364	20130
868.495	20134
868.625	20294
868.756	20339
868.886	20153
869.017	20355
869.147	20343
869.278	20404
869.408	20221
869.539	20221
869.669	20336
869.799	20343
869.929	20343
870.06	20454
870.19	20571
870.32	20488
870.45	20632
870.58	20682
870.71	20811
870.84	20785
870.97	20838
871.1	20708
871.23	20807
871.36	20842
871.489	20697
871.619	20906
871.749	21024
871.879	20952
872.008	21009
872.138	20800
872.267	20845
872.397	20686
872.526	20724
872.656	20796
872.785	20708
872.915	20925
873.044	20891
873.173	20811
873.303	20963
873.432	21009
873.561	20960
873.69	20948
873.819	20800
873.948	20845
874.077	20899
874.206	20925
874.335	20838
874.464	20941
874.593	21203
874.722	21093
874.851	21116
874.979	21317
875.108	21138
875.237	21184
875.365	21100
875.494	21192
875.623	21093
875.751	21123
875.88	21116
876.008	21321
876.136	21340
876.265	21500
876.393	21698
876.521	21599
876.65	21785
876.778	21572
876.906	21511
877.034	21454
877.162	21435
877.29	21428
877.418	21507
877.546	21466
877.674	21580
877.802	21469
877.93	21488
878.058	21348
878.185	21466
878.313	21420
878.441	21469
878.568	21458
878.696	21359
878.824	21534
878.951	21507
879.079	21637
879.206	21918
879.333	21576
879.461	21580
879.588	21526
879.715	21595
879.842	21827
879.97	21568
880.097	21252
880.224	21306
880.351	21344
880.478	21408
880.605	21195
880.732	21313
880.859	21603
880.986	21283
881.112	21325
881.239	21233
881.366	21047
881.493	20990
881.619	20849
881.746	20960
881.872	20921
881.999	20883
882.125	20792
882.252	20899
882.378	20895
882.505	20960
882.631	20720
882.757	20701
882.883	20705
883.01	20625
883.136	20541
883.262	20480
883.388	20446
883.514	20602
883.64	20568
883.766	20522
883.892	20233
884.018	20446
884.143	20461
884.269	20739
884.395	20423
884.52	20240
884.646	20385
884.772	20077
884.897	20164
885.023	20278
885.148	20317
885.274	20465
885.399	20339
885.524	20237
885.65	20366
885.775	20278
885.9	20252
886.025	20412
886.15	20438
886.275	20252
886.4	20286
886.525	20092
886.65	20142
886.775	20278
886.9	20415
887.025	20415
887.149	20301
887.274	20088
887.399	20016
887.523	20130
887.648	19955
887.773	19955
887.897	20096
888.021	20180
888.146	20005
888.27	20142
888.395	20195
888.519	20164
888.643	20001
888.767	20149
888.891	20016
889.015	19811
889.139	19856
889.263	19769
889.387	19997
889.511	20043
889.635	19940
889.759	19750
889.883	19932
890.006	19849
890.13	19974
890.254	19662
890.377	19719
890.501	19540
890.624	19548
890.748	19624
890.871	19559
890.995	19434
891.118	19327
891.241	19518
891.364	19373
891.488	19464
891.611	19384
891.734	19400
891.857	19468
891.98	19388
892.103	19365
892.226	19377
892.349	19365
892.471	19175
892.594	19362
892.717	19419
892.839	19403
892.962	19346
893.085	19392
893.207	19453
893.33	19316
893.452	19392
893.575	19358
893.697	19373
893.819	19521
893.941	19601
894.064	19346
894.186	19324
894.308	19107
894.43	19430
894.552	19506
894.674	19514
894.796	19187
894.918	19350
895.04	19304
895.161	19316
895.283	19403
895.405	19308
895.526	19285
895.648	19415
895.769	19335
895.891	19445
896.012	19346
896.134	19426
896.255	19441
896.376	19320
896.498	19343
896.619	19476
896.74	19369
896.861	19483
896.982	19712
897.103	19826
897.224	19624
897.345	19635
897.466	19396
897.587	19556
897.708	19772
897.828	19655
897.949	19533
898.07	19518
898.19	19460
898.311	19696
898.431	19521
898.552	19571
898.672	19681
898.792	19677
898.913	19696
899.033	19506
899.153	19396
899.273	19354
899.393	19316
899.513	19396
899.633	19251
899.753	19316
899.873	19327
899.993	19339
900.113	19270
900.232	19335
900.352	19373
900.472	19179
900.591	19240
900.711	19217
900.83	19164
900.95	19236
901.069	19282
901.189	19057
901.308	18779
901.427	18658
901.546	18757
901.665	18772
901.784	18779
901.904	18525
902.023	18521
902.141	18365
902.26	18235
902.379	18311
902.498	18258
902.617	18289
902.735	18205
902.854	18262
902.973	18190
903.091	18041
903.21	17942
903.328	17950
903.446	17912
903.565	17764
903.683	17783
903.801	17687
903.919	17805
904.038	17703
904.156	17558
904.274	17524
904.392	17448
904.51	17551
904.627	17535
904.745	17657
904.863	17608
904.981	17368
905.098	17223
905.216	17102
905.334	17258
905.451	17223
905.569	17124
905.686	17132
905.803	17174
905.921	16987
906.038	17159
906.155	16991
906.272	16972
906.389	16847
906.506	16729
906.623	16592
906.74	16774
906.857	16713
906.974	16740
907.091	16786
907.208	16797
907.324	16774
907.441	16733
907.557	16542
907.674	16531
907.79	16356
907.907	16287
908.023	16428
908.139	16451
908.256	16375
908.372	16386
908.488	16344
908.604	16200
908.72	16090
908.836	16143
908.952	16207
909.068	16265
909.184	16272
909.3	16128
909.415	16215
909.531	16257
909.647	16032
909.762	15880
909.878	15854
909.993	15899
910.108	15918
910.224	15903
910.339	15857
910.454	15812
910.57	15762
910.685	15641
910.8	15888
910.915	15778
911.03	15713
911.145	15538
911.259	15568
911.374	15485
911.489	15454
911.604	15447
911.718	15287
911.833	15329
911.947	15142
912.062	15237
912.176	15222
912.291	15374
912.405	15302
912.519	15374
912.633	15420
912.748	15428
912.862	15195
912.976	15070
913.09	14937
913.204	15013
913.318	15104
913.431	15245
913.545	15104
913.659	15161
913.772	14994
913.886	15047
914	14868
914.113	14937
914.226	14963
914.34	14975
914.453	14727
914.566	14906
914.68	14899
914.793	14743
914.906	14473
915.019	14499
915.132	14473
915.245	14590
915.358	14526
915.47	14545
915.583	14594
915.696	14518
915.809	14651
915.921	14610
916.034	14412
916.146	14412
916.259	14358
916.371	14431
916.483	14457
916.595	14305
916.708	14374
916.82	14336
916.932	14381
917.044	14332
917.156	14229
917.268	14237
917.38	14142
917.491	14168
917.603	14256
917.715	14256
917.826	14256
917.938	14157
918.049	13925
918.161	14103
918.272	14290
918.384	14195
918.495	14210
918.606	14031
918.717	13894
918.828	13997
918.939	14024
919.05	13917
919.161	13894
919.272	13765
919.383	13871
919.494	13997
919.604	14119
919.715	14008
919.826	13841
919.936	13864
920.047	13982
920.157	13967
920.267	14062
920.378	13921
920.488	13909
920.598	14115
920.708	14225
920.818	14001
920.928	13955
921.038	14119
921.148	14176
921.258	13868
921.368	13795
921.477	13750
921.587	13677
921.697	13563
921.806	13643
921.916	13578
922.025	13430
922.134	13247
922.244	13304
922.353	13403
922.462	13320
922.571	13091
922.68	13015
922.789	12962
922.898	13027
923.007	12985
923.116	12989
923.224	12973
923.333	12977
923.442	12848
923.55	12844
923.659	12692
923.767	12814
923.876	12783
923.984	12814
924.092	12719
924.201	12783
924.309	12722
924.417	12722
924.525	12593
924.633	12669
924.741	13582
924.849	12448
924.956	12547
925.064	12437
925.172	12338
925.279	12452
925.387	12460
925.494	12433
925.602	12597
925.709	12494
925.816	12342
925.924	12452
926.031	12483
926.138	12464
926.245	12441
926.352	12266
926.459	12407
926.566	12403
926.673	12342
926.779	12190
926.886	12171
926.993	12038
927.099	12125
927.206	11954
927.312	11863
927.419	12015
927.525	11939
927.631	11961
927.737	11843
927.843	11904
927.95	11699
928.056	11813
928.162	11893
928.267	11939
928.373	12388
928.479	11931
928.585	11676
928.69	11794
928.796	11840
928.901	11733
929.007	11608
929.112	11680
929.218	11646
929.323	11638
929.428	11566
929.533	11710
929.638	11547
929.743	11539
929.848	11611
929.953	11524
930.058	11467
930.163	11242
930.267	11273
930.372	11429
930.477	11201
930.581	11459
930.685	11307
930.79	11166
930.894	11162
930.998	11102
931.103	11292
931.207	10942
931.311	10866
931.415	10782
931.519	10577
931.623	10577
