Data from test_V78500241_3484.txt Node
Date: Fri Mar 25 15:34:07 CST 2022
User: usil
Spectrometer: V785-0024
Trigger mode: 0
Integration Time (sec): 4.000000E-1
Scans to average: 1
Nonlinearity correction enabled: false
Boxcar width: 0
Storing dark spectrum: false
XAxis mode: Wavelengths
Number of Pixels in Spectrum: 1024
>>>>>Begin Spectral Data<<<<<
801.071	26864
801.214	26895
801.356	26735
801.499	26606
801.641	26457
801.783	26347
801.926	26453
802.068	26393
802.211	26313
802.353	26305
802.496	26199
802.638	26176
802.78	26115
802.923	26126
803.065	25997
803.208	26107
803.35	26172
803.492	26183
803.635	26343
803.777	26138
803.919	26180
804.061	26495
804.204	26195
804.346	26210
804.488	26092
804.63	26153
804.773	26054
804.915	26187
805.057	26370
805.199	26271
805.341	26199
805.483	26374
805.626	26351
805.768	26351
805.91	26309
806.052	26317
806.194	26404
806.336	26450
806.478	26286
806.62	26286
806.762	26290
806.904	26575
807.046	26826
807.188	26743
807.33	26648
807.472	26651
807.614	26670
807.756	26651
807.898	26453
808.04	26423
808.182	26499
808.324	26613
808.465	26678
808.607	26686
808.749	26967
808.891	26998
809.033	27116
809.174	26895
809.316	26990
809.458	26925
809.6	26849
809.741	26990
809.883	27100
810.025	27302
810.166	27066
810.308	27222
810.45	27199
810.591	27180
810.733	26910
810.875	26933
811.016	26792
811.158	26925
811.299	26956
811.441	27032
811.582	27077
811.724	26899
811.865	26906
812.007	26929
812.148	26849
812.29	26918
812.431	27150
812.573	27291
812.714	27317
812.855	27355
812.997	27549
813.138	27633
813.279	27576
813.421	27458
813.562	27329
813.703	27211
813.845	27028
813.986	26872
814.127	26682
814.268	26560
814.41	26640
814.551	26560
814.692	26583
814.833	26579
814.974	26393
815.115	26404
815.256	26366
815.397	26457
815.539	26328
815.68	26389
815.821	26377
815.962	26400
816.103	26336
816.244	26122
816.385	26138
816.526	25993
816.666	25890
816.807	25769
816.948	25925
817.089	25902
817.23	25734
817.371	25761
817.512	25715
817.653	25753
817.793	25677
817.934	25795
818.075	25731
818.216	25887
818.356	25856
818.497	25655
818.638	25434
818.778	25445
818.919	25582
819.06	25590
819.2	25693
819.341	25757
819.481	25742
819.622	25814
819.762	26020
819.903	25989
820.043	25993
820.184	25906
820.324	25799
820.465	25887
820.605	25837
820.746	25765
820.886	25765
821.026	25864
821.167	25830
821.307	25944
821.447	25712
821.588	25586
821.728	25643
821.868	25495
822.008	25244
822.149	25259
822.289	25129
822.429	25012
822.569	24886
822.709	24943
822.849	24738
822.99	24681
823.13	24646
823.27	24616
823.41	24448
823.55	24525
823.69	24707
823.83	24635
823.97	24521
824.11	24346
824.25	24490
824.389	24338
824.529	24494
824.669	24258
824.809	24456
824.949	24464
825.089	24418
825.228	24289
825.368	24155
825.508	24068
825.648	24270
825.787	24216
825.927	24388
826.067	24270
826.206	24319
826.346	24285
826.485	24247
826.625	24277
826.765	24429
826.904	24342
827.044	24117
827.183	24011
827.323	23977
827.462	23950
827.601	23992
827.741	24045
827.88	23977
828.02	23916
828.159	23923
828.298	23958
828.437	24038
828.577	23992
828.716	23977
828.855	23855
828.994	23638
829.134	23710
829.273	23710
829.412	23638
829.551	23589
829.69	23649
829.829	23752
829.968	23756
830.107	23779
830.246	23653
830.385	23558
830.524	23531
830.663	23531
830.802	23387
830.941	23318
831.08	23220
831.219	23436
831.357	23246
831.496	23543
831.635	23246
831.774	23170
831.913	23204
832.051	23117
832.19	23185
832.329	23147
832.467	22850
832.606	22908
832.744	22911
832.883	23037
833.022	22873
833.16	22976
833.299	23029
833.437	22946
833.576	22976
833.714	23136
833.852	23132
833.991	23056
834.129	23060
834.267	23056
834.406	23052
834.544	23056
834.682	23052
834.821	22976
834.959	23315
835.097	22930
835.235	23185
835.373	23067
835.511	23033
835.65	22946
835.788	22984
835.926	22736
836.064	22721
836.202	22839
836.34	22934
836.478	22896
836.615	22885
836.753	22953
836.891	23041
837.029	22915
837.167	22820
837.305	22774
837.443	22759
837.58	22672
837.718	22820
837.856	22763
837.993	22725
838.131	22759
838.269	22588
838.406	22713
838.544	22611
838.681	22440
838.819	22459
838.956	22265
839.094	22249
839.231	22200
839.369	22390
839.506	22668
839.643	22527
839.781	22268
839.918	22272
840.055	22386
840.193	22185
840.33	22204
840.467	22143
840.604	22215
840.742	22390
840.879	21972
841.016	22234
841.153	22002
841.29	22158
841.427	22036
841.564	22204
841.701	22128
841.838	22078
841.975	22105
842.112	22131
842.249	21930
842.385	22036
842.522	22162
842.659	21937
842.796	21960
842.933	21975
843.069	21949
843.206	21838
843.343	21941
843.479	21983
843.616	21892
843.752	21739
843.889	21800
844.025	21800
844.162	21587
844.298	21789
844.435	21641
844.571	21682
844.708	21629
844.844	21972
844.98	21846
845.117	21888
845.253	21660
845.389	21568
845.525	21682
845.661	21420
845.798	21530
845.934	21462
846.07	21424
846.206	21393
846.342	21466
846.478	21420
846.614	21199
846.75	21165
846.886	21112
847.022	21386
847.158	21275
847.294	21203
847.429	21317
847.565	21142
847.701	21401
847.837	20845
847.972	20883
848.108	21005
848.244	20880
848.379	20842
848.515	20712
848.65	20705
848.786	20815
848.921	20731
849.057	20849
849.192	20956
849.328	20880
849.463	20743
849.598	20583
849.734	20659
849.869	20632
850.004	20568
850.14	20693
850.275	20541
850.41	20560
850.545	20465
850.68	20568
850.815	20644
850.95	20735
851.085	20769
851.22	20568
851.355	20549
851.49	20526
851.625	20503
851.76	20522
851.895	20518
852.03	20442
852.165	20503
852.299	20579
852.434	20659
852.569	20499
852.703	20549
852.838	20575
852.973	20602
853.107	20629
853.242	20473
853.376	20503
853.511	20286
853.645	20275
853.78	20454
853.914	20400
854.048	20343
854.183	20377
854.317	20473
854.451	20651
854.585	20305
854.72	20442
854.854	20400
854.988	20347
855.122	20393
855.256	20195
855.39	20286
855.524	20480
855.658	20366
855.792	20377
855.926	20442
856.06	20381
856.194	20412
856.327	20377
856.461	20324
856.595	20286
856.729	20389
856.862	20454
856.996	20332
857.13	20492
857.263	20454
857.397	20465
857.53	20427
857.664	20332
857.797	20381
857.931	20518
858.064	20332
858.197	20514
858.331	20309
858.464	20313
858.597	20301
858.731	20305
858.864	20377
858.997	20320
859.13	20309
859.263	20362
859.396	20396
859.529	20377
859.662	20434
859.795	20404
859.928	20400
860.061	20385
860.194	20625
860.327	20568
860.46	20473
860.592	20514
860.725	20469
860.858	20431
860.99	20396
861.123	20336
861.256	20324
861.388	20393
861.521	21199
861.653	20290
861.786	20191
861.918	20290
862.05	20370
862.183	20351
862.315	20244
862.447	20454
862.58	20336
862.712	20096
862.844	20088
862.976	20168
863.108	20142
863.24	20556
863.372	20134
863.504	20115
863.636	19978
863.768	20088
863.9	20138
864.032	20012
864.164	20161
864.296	20092
864.428	20271
864.559	20195
864.691	20122
864.823	20138
864.954	20077
865.086	20103
865.217	20054
865.349	19902
865.48	20016
865.612	19925
865.743	20130
865.875	19974
866.006	19978
866.137	19925
866.269	19940
866.4	20031
866.531	20046
866.662	19841
866.793	19852
866.924	19902
867.055	19879
867.186	19868
867.317	19936
867.448	19772
867.579	19883
867.71	19883
867.841	19913
867.972	19887
868.103	20035
868.233	19913
868.364	19925
868.495	19993
868.625	20142
868.756	20275
868.886	20164
869.017	20214
869.147	20233
869.278	20343
869.408	20275
869.539	20172
869.669	20313
869.799	20286
869.929	20298
870.06	20244
870.19	20484
870.32	20469
870.45	20514
870.58	20590
870.71	20705
870.84	20697
870.97	20533
871.1	20556
871.23	20796
871.36	20868
871.489	20674
871.619	20910
871.749	20815
871.879	20899
872.008	20937
872.138	20838
872.267	20773
872.397	20727
872.526	20541
872.656	20568
872.785	20773
872.915	20838
873.044	20876
873.173	20845
873.303	20906
873.432	20891
873.561	20845
873.69	20861
873.819	20895
873.948	20842
874.077	20746
874.206	20796
874.335	20769
874.464	20944
874.593	21081
874.722	21081
874.851	21127
874.979	21089
875.108	20963
875.237	21077
875.365	21081
875.494	21032
875.623	21199
875.751	21184
875.88	21131
876.008	21241
876.136	21283
876.265	21462
876.393	21603
876.521	21485
876.65	21538
876.778	21466
876.906	21363
877.034	21302
877.162	21435
877.29	21359
877.418	21496
877.546	21469
877.674	21321
877.802	21435
877.93	21386
878.058	21386
878.185	21367
878.313	21382
878.441	21393
878.568	21233
878.696	21363
878.824	21492
878.951	21523
879.079	21606
879.206	21797
879.333	21568
879.461	21511
879.588	21481
879.715	21504
879.842	21633
879.97	21507
880.097	21188
880.224	21245
880.351	21325
880.478	21279
880.605	21214
880.732	21291
880.859	21454
880.986	21256
881.112	21237
881.239	21176
881.366	21070
881.493	20883
881.619	20712
881.746	20830
881.872	20872
881.999	20762
882.125	20857
882.252	20823
882.378	20849
882.505	20986
882.631	20632
882.757	20571
882.883	20686
883.01	20533
883.136	20518
883.262	20370
883.388	20275
883.514	20606
883.64	20636
883.766	20495
883.892	20404
884.018	20366
884.143	20469
884.269	20579
884.395	20256
884.52	20225
884.646	20202
884.772	20142
884.897	20134
885.023	20157
885.148	20328
885.274	20355
885.399	20252
885.524	20142
885.65	20286
885.775	20248
885.9	20183
886.025	20248
886.15	20324
886.275	20088
886.4	20126
886.525	20130
886.65	20027
886.775	20077
886.9	20240
887.025	20370
887.149	20126
887.274	20035
887.399	19997
887.523	19955
887.648	20062
887.773	19936
887.897	20027
888.021	20024
888.146	19982
888.27	20016
888.395	20096
888.519	20084
888.643	19909
888.767	20081
888.891	19791
889.015	19849
889.139	19807
889.263	19719
889.387	19928
889.511	20035
889.635	19894
889.759	19795
889.883	19769
890.006	19791
890.13	19879
890.254	19765
890.377	19689
890.501	19506
890.624	19434
890.748	19540
890.871	19411
890.995	19411
891.118	19335
891.241	19369
891.364	19400
891.488	19540
891.611	19335
891.734	19365
891.857	19331
891.98	19388
892.103	19419
892.226	19422
892.349	19247
892.471	19240
892.594	19285
892.717	19293
892.839	19274
892.962	19331
893.085	19316
893.207	19274
893.33	19183
893.452	19225
893.575	19263
893.697	19358
893.819	19335
893.941	19438
894.064	19407
894.186	19206
894.308	19107
894.43	19320
894.552	19362
894.674	19426
894.796	19285
894.918	19164
895.04	19339
895.161	19373
895.283	19335
895.405	19278
895.526	19285
895.648	19206
895.769	19392
895.891	19244
896.012	19244
896.134	19457
896.255	19346
896.376	19206
896.498	19396
896.619	19278
896.74	19240
896.861	19350
896.982	19563
897.103	19795
897.224	19533
897.345	19403
897.466	19529
897.587	19521
897.708	19571
897.828	19457
897.949	19491
898.07	19365
898.19	19400
898.311	19597
898.431	19464
898.552	19468
898.672	19575
898.792	19430
898.913	19495
899.033	19407
899.153	19354
899.273	19088
899.393	19362
899.513	19384
899.633	19297
899.753	19369
899.873	19187
899.993	19346
900.113	19266
900.232	19198
900.352	19251
900.472	19187
900.591	19000
900.711	19076
900.83	19050
900.95	19034
901.069	19168
901.189	18970
901.308	18776
901.427	18749
901.546	18673
901.665	18658
901.784	18642
901.904	18578
902.023	18441
902.141	18319
902.26	18224
902.379	18300
902.498	18178
902.617	18205
902.735	18281
902.854	18239
902.973	18117
903.091	17855
903.21	17790
903.328	17870
903.446	17714
903.565	17718
903.683	17687
903.801	17539
903.919	17783
904.038	17676
904.156	17478
904.274	17604
904.392	17292
904.51	17410
904.627	17452
904.745	17425
904.863	17547
904.981	17246
905.098	17162
905.216	17067
905.334	17193
905.451	17132
905.569	17018
905.686	17239
905.803	17086
905.921	16987
906.038	17098
906.155	17006
906.272	16835
906.389	16812
906.506	16641
906.623	16687
906.74	16599
906.857	16611
906.974	16649
907.091	16668
907.208	16797
907.324	16706
907.441	16603
907.557	16466
907.674	16363
907.79	16325
907.907	16428
908.023	16272
908.139	16428
908.256	16360
908.372	16371
908.488	16284
908.604	16128
908.72	16192
908.836	16101
908.952	16173
909.068	16101
909.184	16105
909.3	16010
909.415	16200
909.531	16169
909.647	15876
909.762	15956
909.878	15800
909.993	15930
910.108	15880
910.224	15842
910.339	15751
910.454	15709
910.57	15667
910.685	15549
910.8	15865
910.915	15842
911.03	15694
911.145	15496
911.259	15435
911.374	15374
911.489	15389
911.604	15249
911.718	15161
911.833	15264
911.947	15245
912.062	15104
912.176	15188
912.291	15184
912.405	15283
912.519	15393
912.633	15351
912.748	15279
912.862	15279
912.976	15017
913.09	14914
913.204	14944
913.318	15116
913.431	15089
913.545	15184
913.659	15203
913.772	14998
913.886	14975
914	14815
914.113	14849
914.226	14891
914.34	14914
914.453	14678
914.566	14796
914.68	14670
914.793	14697
914.906	14556
915.019	14431
915.132	14457
915.245	14434
915.358	14473
915.47	14427
915.583	14480
915.696	14545
915.809	14594
915.921	14682
916.034	14442
916.146	14351
916.259	14305
916.371	14469
916.483	14377
916.595	14339
916.708	14317
916.82	14328
916.932	14313
917.044	14298
917.156	14199
917.268	14248
917.38	14180
917.491	14240
917.603	14142
917.715	14282
917.826	14278
917.938	14081
918.049	14016
918.161	14145
918.272	14294
918.384	14153
918.495	14134
918.606	13978
918.717	13871
918.828	13932
918.939	13947
919.05	13761
919.161	13845
919.272	13636
919.383	13727
919.494	13936
919.604	14157
919.715	13967
919.826	13811
919.936	13845
920.047	13928
920.157	13883
920.267	14065
920.378	13795
920.488	13803
920.598	14050
920.708	14206
920.818	14115
920.928	14046
921.038	14164
921.148	14164
921.258	13818
921.368	13750
921.477	13693
921.587	13518
921.697	13506
921.806	13636
921.916	13518
922.025	13339
922.134	13255
922.244	13232
922.353	13346
922.462	13129
922.571	13050
922.68	12939
922.789	12954
922.898	13023
923.007	12905
923.116	12928
923.224	12973
923.333	12871
923.442	12798
923.55	12688
923.659	12833
923.767	12859
923.876	12802
923.984	12806
924.092	12635
924.201	12719
924.309	12654
924.417	12662
924.525	12684
924.633	12738
924.741	13331
924.849	12448
924.956	12597
925.064	12475
925.172	12407
925.279	12357
925.387	12391
925.494	12452
925.602	12483
925.709	12445
925.816	12330
925.924	12289
926.031	12513
926.138	12498
926.245	12479
926.352	12251
926.459	12410
926.566	12384
926.673	12277
926.779	12148
926.886	12152
926.993	12019
927.099	12015
927.206	11999
927.312	11939
927.419	11961
927.525	11946
927.631	12049
927.737	11912
927.843	11794
927.95	11707
928.056	11775
928.162	11843
928.267	11828
928.373	12391
928.479	11950
928.585	11649
928.69	11836
928.796	11794
928.901	11680
929.007	11524
929.112	11604
929.218	11611
929.323	11630
929.428	11547
929.533	11752
929.638	11493
929.743	11444
929.848	11471
929.953	11455
930.058	11402
930.163	11227
930.267	11296
930.372	11311
930.477	11197
930.581	11318
930.685	11273
930.79	11124
930.894	11094
930.998	11151
931.103	11349
931.207	10847
931.311	10816
931.415	10679
931.519	10508
931.623	10565
