Data from test_V78500241_2352.txt Node
Date: Fri Mar 25 15:26:14 CST 2022
User: usil
Spectrometer: V785-0024
Trigger mode: 0
Integration Time (sec): 4.000000E-1
Scans to average: 1
Nonlinearity correction enabled: false
Boxcar width: 0
Storing dark spectrum: false
XAxis mode: Wavelengths
Number of Pixels in Spectrum: 1024
>>>>>Begin Spectral Data<<<<<
801.071	27363
801.214	27291
801.356	27135
801.499	27116
801.641	27005
801.783	26937
801.926	26956
802.068	27047
802.211	26963
802.353	26777
802.496	26621
802.638	26495
802.78	26533
802.923	26339
803.065	26568
803.208	26537
803.35	26571
803.492	26754
803.635	26902
803.777	26598
803.919	26621
804.061	27108
804.204	26868
804.346	26682
804.488	26667
804.63	26762
804.773	26674
804.915	26670
805.057	26792
805.199	26727
805.341	26826
805.483	26838
805.626	26826
805.768	26785
805.91	26796
806.052	26925
806.194	26739
806.336	27047
806.478	26861
806.62	26971
806.762	26944
806.904	27176
807.046	27454
807.188	27344
807.33	27306
807.472	27283
807.614	27283
807.756	27302
807.898	27150
808.04	27100
808.182	27062
808.324	27047
808.465	27214
808.607	27355
808.749	27492
808.891	27637
809.033	27671
809.174	27599
809.316	27359
809.458	27291
809.6	27405
809.741	27572
809.883	27572
810.025	27705
810.166	27899
810.308	27778
810.45	27686
810.591	27641
810.733	27211
810.875	27450
811.016	27340
811.158	27310
811.299	27420
811.441	27648
811.582	27629
811.724	27412
811.865	27336
812.007	27351
812.148	27386
812.29	27405
812.431	27553
812.573	27739
812.714	27846
812.855	27857
812.997	28131
813.138	28116
813.279	28173
813.421	27972
813.562	27903
813.703	27762
813.845	27682
813.986	27427
814.127	27188
814.268	27135
814.41	27085
814.551	27096
814.692	27321
814.833	27024
814.974	26994
815.115	27161
815.256	27032
815.397	27074
815.539	26891
815.68	26838
815.821	26902
815.962	26864
816.103	26929
816.244	26746
816.385	26609
816.526	26629
816.666	26404
816.807	26332
816.948	26442
817.089	26412
817.23	26412
817.371	26362
817.512	26309
817.653	26324
817.793	26294
817.934	26461
818.075	26480
818.216	26400
818.356	26404
818.497	26233
818.638	26058
818.778	26058
818.919	26122
819.06	26199
819.2	26218
819.341	26438
819.481	26339
819.622	26431
819.762	26640
819.903	26720
820.043	26701
820.184	26469
820.324	26446
820.465	26366
820.605	26450
820.746	26469
820.886	26370
821.026	26351
821.167	26396
821.307	26415
821.447	26252
821.588	26408
821.728	26191
821.868	25963
822.008	25921
822.149	25902
822.289	25784
822.429	25479
822.569	25400
822.709	25590
822.849	25285
822.99	25228
823.13	25236
823.27	25228
823.41	25122
823.55	24977
823.69	25194
823.83	25103
823.97	25088
824.11	24970
824.25	24981
824.389	24913
824.529	25095
824.669	24878
824.809	25141
824.949	25053
825.089	25160
825.228	25118
825.368	24848
825.508	24863
825.648	24806
825.787	24966
825.927	24909
826.067	24806
826.206	24863
826.346	25000
826.485	24867
826.625	24760
826.765	24973
826.904	24894
827.044	24681
827.183	24574
827.323	24502
827.462	24711
827.601	24502
827.741	24509
827.88	24566
828.02	24475
828.159	24490
828.298	24525
828.437	24601
828.577	24437
828.716	24692
828.855	24448
828.994	24281
829.134	24273
829.273	24182
829.412	24330
829.551	24209
829.69	24182
829.829	24319
829.968	24391
830.107	24327
830.246	24254
830.385	24239
830.524	24220
830.663	24049
830.802	24068
830.941	23893
831.08	23668
831.219	23939
831.357	23973
831.496	24060
831.635	23942
831.774	23832
831.913	23668
832.051	23531
832.19	23707
832.329	23661
832.467	23436
832.606	23482
832.744	23455
832.883	23452
833.022	23615
833.16	23573
833.299	23516
833.437	23592
833.576	23737
833.714	23600
833.852	23611
833.991	23661
834.129	23592
834.267	23646
834.406	23611
834.544	23680
834.682	23592
834.821	23436
834.959	23665
835.097	23543
835.235	23691
835.373	23619
835.511	23581
835.65	23535
835.788	23646
835.926	23292
836.064	23356
836.202	23383
836.34	23486
836.478	23600
836.615	23349
836.753	23395
836.891	23562
837.029	23471
837.167	23322
837.305	23406
837.443	23254
837.58	23162
837.718	23277
837.856	23368
837.993	23235
838.131	23254
838.269	23174
838.406	23250
838.544	23090
838.681	22968
838.819	22911
838.956	22736
839.094	22759
839.231	22797
839.369	22949
839.506	23029
839.643	22961
839.781	22710
839.918	22668
840.055	22752
840.193	22763
840.33	22729
840.467	22622
840.604	22675
840.742	22980
840.879	22550
841.016	22626
841.153	22561
841.29	22683
841.427	22577
841.564	22675
841.701	22736
841.838	22618
841.975	22500
842.112	22592
842.249	22512
842.385	22409
842.522	22725
842.659	22398
842.796	22382
842.933	22287
843.069	22432
843.206	22333
843.343	22557
843.479	22405
843.616	22459
843.752	22131
843.889	22226
844.025	22356
844.162	22177
844.298	22272
844.435	22185
844.571	22158
844.708	22265
844.844	22360
844.98	22333
845.117	22207
845.253	22090
845.389	22082
845.525	22295
845.661	22139
845.798	21884
845.934	22055
846.07	21876
846.206	22070
846.342	21994
846.478	21994
846.614	21789
846.75	21690
846.886	21629
847.022	21895
847.158	21770
847.294	21739
847.429	21690
847.565	21629
847.701	21930
847.837	21481
847.972	21329
848.108	21500
848.244	21492
848.379	21241
848.515	21321
848.65	21142
848.786	21317
848.921	21313
849.057	21389
849.192	21275
849.328	21237
849.463	21329
849.598	21211
849.734	21184
849.869	21123
850.004	21222
850.14	21089
850.275	21039
850.41	20948
850.545	21070
850.68	21005
850.815	21116
850.95	21024
851.085	21104
851.22	21169
851.355	21233
851.49	21055
851.625	21051
851.76	21062
851.895	21051
852.03	20956
852.165	20994
852.299	20971
852.434	21184
852.569	20971
852.703	20899
852.838	21161
852.973	21119
853.107	21051
853.242	21051
853.376	20845
853.511	20754
853.645	20792
853.78	20960
853.914	20967
854.048	20819
854.183	20853
854.317	20876
854.451	21036
854.585	20830
854.72	20929
854.854	20842
854.988	20864
855.122	20933
855.256	20823
855.39	20853
855.524	20979
855.658	20910
855.792	20880
855.926	20826
856.06	20895
856.194	20975
856.327	20781
856.461	20807
856.595	20769
856.729	20826
856.862	20876
856.996	20830
857.13	20880
857.263	21032
857.397	20895
857.53	20929
857.664	20819
857.797	20876
857.931	20971
858.064	20891
858.197	20948
858.331	20895
858.464	20788
858.597	20735
858.731	20838
858.864	20819
858.997	20861
859.13	20796
859.263	20807
859.396	21001
859.529	20929
859.662	20792
859.795	20819
859.928	20929
860.061	20975
860.194	21142
860.327	20906
860.46	20830
860.592	20895
860.725	21013
860.858	21074
860.99	20853
861.123	20838
861.256	20845
861.388	20918
861.521	21332
861.653	20720
861.786	20708
861.918	20648
862.05	20807
862.183	20781
862.315	20762
862.447	20891
862.58	20693
862.712	20556
862.844	20587
862.976	20636
863.108	20686
863.24	21066
863.372	20552
863.504	20678
863.636	20659
863.768	20731
863.9	20587
864.032	20503
864.164	20488
864.296	20663
864.428	20670
864.559	20625
864.691	20693
864.823	20541
864.954	20583
865.086	20492
865.217	20575
865.349	20385
865.48	20484
865.612	20575
865.743	20594
865.875	20522
866.006	20503
866.137	20469
866.269	20484
866.4	20324
866.531	20396
866.662	20396
866.793	20347
866.924	20298
867.055	20457
867.186	20469
867.317	20503
867.448	20522
867.579	20385
867.71	20343
867.841	20495
867.972	20275
868.103	20396
868.233	20419
868.364	20488
868.495	20522
868.625	20670
868.756	20735
868.886	20571
869.017	20663
869.147	20800
869.278	20773
869.408	20689
869.539	20773
869.669	20731
869.799	20785
869.929	20773
870.06	20587
870.19	21051
870.32	20861
870.45	20971
870.58	21009
870.71	21154
870.84	21256
870.97	21024
871.1	21028
871.23	21214
871.36	21325
871.489	21108
871.619	21249
871.749	21207
871.879	21386
872.008	21294
872.138	21275
872.267	21313
872.397	21165
872.526	21081
872.656	21032
872.785	21024
872.915	21355
873.044	21439
873.173	21370
873.303	21310
873.432	21340
873.561	21370
873.69	21306
873.819	21188
873.948	21218
874.077	21302
874.206	21116
874.335	21268
874.464	21397
874.593	21504
874.722	21462
874.851	21538
874.979	21500
875.108	21561
875.237	21408
875.365	21416
875.494	21439
875.623	21557
875.751	21542
875.88	21500
876.008	21633
876.136	21766
876.265	21903
876.393	22074
876.521	22036
876.65	21964
876.778	21800
876.906	21865
877.034	21747
877.162	21907
877.29	21755
877.418	22029
877.546	21895
877.674	21911
877.802	21838
877.93	21941
878.058	21720
878.185	21743
878.313	21835
878.441	21850
878.568	21587
878.696	21701
878.824	21842
878.951	21888
879.079	22143
879.206	22082
879.333	22101
879.461	21953
879.588	22040
879.715	22135
879.842	22223
879.97	21953
880.097	21797
880.224	21770
880.351	21743
880.478	21583
880.605	21663
880.732	21728
880.859	21915
880.986	21739
881.112	21781
881.239	21526
881.366	21382
881.493	21351
881.619	21241
881.746	21256
881.872	21340
881.999	21321
882.125	21157
882.252	21351
882.378	21306
882.505	21428
882.631	21203
882.757	21127
882.883	21081
883.01	20994
883.136	20941
883.262	20914
883.388	20823
883.514	20914
883.64	21104
883.766	20956
883.892	20788
884.018	20899
884.143	21032
884.269	21051
884.395	20678
884.52	20644
884.646	20743
884.772	20609
884.897	20568
885.023	20716
885.148	20842
885.274	20868
885.399	20724
885.524	20617
885.65	20746
885.775	20533
885.9	20708
886.025	20731
886.15	20708
886.275	20564
886.4	20545
886.525	20530
886.65	20579
886.775	20579
886.9	20788
887.025	20861
887.149	20689
887.274	20476
887.399	20488
887.523	20431
887.648	20336
887.773	20313
887.897	20488
888.021	20377
888.146	20385
888.27	20412
888.395	20423
888.519	20488
888.643	20415
888.767	20434
888.891	20233
889.015	20290
889.139	20301
889.263	20221
889.387	20347
889.511	20526
889.635	20400
889.759	20244
889.883	20214
890.006	20290
890.13	20343
890.254	20115
890.377	20176
890.501	20005
890.624	20046
890.748	20065
890.871	19814
890.995	19807
891.118	19719
891.241	19742
891.364	19753
891.488	19902
891.611	19845
891.734	19883
891.857	19879
891.98	19791
892.103	19963
892.226	19856
892.349	19700
892.471	19594
892.594	19647
892.717	19757
892.839	19651
892.962	19776
893.085	19780
893.207	19670
893.33	19559
893.452	19639
893.575	19647
893.697	19738
893.819	19928
893.941	19879
894.064	19814
894.186	19666
894.308	19616
894.43	19803
894.552	19963
894.674	19742
894.796	19578
894.918	19696
895.04	19719
895.161	19742
895.283	19791
895.405	19616
895.526	19639
895.648	19597
895.769	19864
895.891	19784
896.012	19776
896.134	19803
896.255	19689
896.376	19731
896.498	19746
896.619	19822
896.74	19784
896.861	19852
896.982	20039
897.103	20096
897.224	20005
897.345	19951
897.466	19909
897.587	19959
897.708	20107
897.828	19967
897.949	19791
898.07	19894
898.19	19811
898.311	20084
898.431	19856
898.552	19932
898.672	19883
898.792	20012
898.913	19906
899.033	19887
899.153	19833
899.273	19590
899.393	19677
899.513	19780
899.633	19746
899.753	19658
899.873	19723
899.993	19738
900.113	19620
900.232	19731
900.352	19582
900.472	19597
900.591	19419
900.711	19529
900.83	19499
900.95	19514
901.069	19548
901.189	19419
901.308	19156
901.427	19148
901.546	19171
901.665	19107
901.784	19061
901.904	18954
902.023	18833
902.141	18738
902.26	18578
902.379	18722
902.498	18646
902.617	18509
902.735	18559
902.854	18582
902.973	18566
903.091	18220
903.21	18281
903.328	18163
903.446	18171
903.565	18121
903.683	18072
903.801	17977
903.919	18136
904.038	18057
904.156	17996
904.274	17874
904.392	17855
904.51	17859
904.627	17821
904.745	17901
904.863	17859
904.981	17592
905.098	17425
905.216	17535
905.334	17543
905.451	17570
905.569	17600
905.686	17611
905.803	17463
905.921	17280
906.038	17406
906.155	17356
906.272	17220
906.389	17197
906.506	17071
906.623	17113
906.74	17121
906.857	17010
906.974	17033
907.091	17090
907.208	17223
907.324	17140
907.441	16942
907.557	16850
907.674	16793
907.79	16672
907.907	16801
908.023	16816
908.139	16763
908.256	16702
908.372	16637
908.488	16710
908.604	16577
908.72	16485
908.836	16493
908.952	16436
909.068	16485
909.184	16558
909.3	16516
909.415	16508
909.531	16607
909.647	16303
909.762	16215
909.878	16211
909.993	16299
910.108	16185
910.224	16135
910.339	16063
910.454	16101
910.57	16086
910.685	15949
910.8	16173
910.915	16128
911.03	16032
911.145	15873
911.259	15762
911.374	15778
911.489	15671
911.604	15690
911.718	15466
911.833	15568
911.947	15454
912.062	15450
912.176	15538
912.291	15557
912.405	15412
912.519	15751
912.633	15686
912.748	15603
912.862	15603
912.976	15355
913.09	15245
913.204	15310
913.318	15260
913.431	15424
913.545	15367
913.659	15526
913.772	15329
913.886	15218
914	15192
914.113	15378
914.226	15306
914.34	15291
914.453	15020
914.566	15321
914.68	15036
914.793	14994
914.906	14853
915.019	14845
915.132	14727
915.245	14689
915.358	14819
915.47	14838
915.583	14720
915.696	14731
915.809	14960
915.921	14880
916.034	14765
916.146	14705
916.259	14564
916.371	14758
916.483	14762
916.595	14568
916.708	14610
916.82	14674
916.932	14613
917.044	14682
917.156	14499
917.268	14427
917.38	14431
917.491	14358
917.603	14438
917.715	14598
917.826	14575
917.938	14465
918.049	14298
918.161	14495
918.272	14560
918.384	14560
918.495	14427
918.606	14161
918.717	14221
918.828	14240
918.939	14309
919.05	14161
919.161	14153
919.272	14096
919.383	14058
919.494	14267
919.604	14465
919.715	14267
919.826	14164
919.936	14278
920.047	14385
920.157	14233
920.267	14480
920.378	14225
920.488	14202
920.598	14290
920.708	14457
920.818	14305
920.928	14221
921.038	14400
921.148	14484
921.258	14123
921.368	14024
921.477	13940
921.587	14058
921.697	13818
921.806	14001
921.916	13799
922.025	13677
922.134	13609
922.244	13540
922.353	13597
922.462	13510
922.571	13381
922.68	13320
922.789	13141
922.898	13297
923.007	13187
923.116	13228
923.224	13247
923.333	13247
923.442	13122
923.55	13088
923.659	13145
923.767	13164
923.876	13012
923.984	13061
924.092	13019
924.201	13027
924.309	12989
924.417	12932
924.525	12916
924.633	12947
924.741	13731
924.849	12688
924.956	12859
925.064	12730
925.172	12585
925.279	12665
925.387	12703
925.494	12692
925.602	12783
925.709	12654
925.816	12536
925.924	12734
926.031	12707
926.138	12616
926.245	12677
926.352	12517
926.459	12623
926.566	12654
926.673	12559
926.779	12410
926.886	12388
926.993	12308
927.099	12281
927.206	12247
927.312	12201
927.419	12300
927.525	12163
927.631	12194
927.737	12159
927.843	12121
927.95	11984
928.056	12041
928.162	12083
928.267	12167
928.373	12642
928.479	12155
928.585	11904
928.69	12106
928.796	12064
928.901	11977
929.007	11802
929.112	11942
929.218	11904
929.323	11855
929.428	11832
929.533	11942
929.638	11817
929.743	11695
929.848	11779
929.953	11779
930.058	11695
930.163	11490
930.267	11471
930.372	11573
930.477	11493
930.581	11733
930.685	11524
930.79	11345
930.894	11383
930.998	11372
931.103	11455
931.207	11102
931.311	11075
931.415	11010
931.519	10759
931.623	10782
