Data from test_V78500241_127.txt Node
Date: Fri Mar 25 15:10:44 CST 2022
User: usil
Spectrometer: V785-0024
Trigger mode: 0
Integration Time (sec): 4.000000E-1
Scans to average: 1
Nonlinearity correction enabled: false
Boxcar width: 0
Storing dark spectrum: false
XAxis mode: Wavelengths
Number of Pixels in Spectrum: 1024
>>>>>Begin Spectral Data<<<<<
801.071	28192
801.214	28409
801.356	28048
801.499	28048
801.641	27876
801.783	27766
801.926	27652
802.068	27892
802.211	27766
802.353	27686
802.496	27530
802.638	27519
802.78	27256
802.923	27363
803.065	27367
803.208	27382
803.35	27469
803.492	27504
803.635	27576
803.777	27439
803.919	27511
804.061	27713
804.204	27629
804.346	27405
804.488	27363
804.63	27435
804.773	27298
804.915	27424
805.057	27534
805.199	27435
805.341	27469
805.483	27454
805.626	27549
805.768	27523
805.91	27534
806.052	27568
806.194	27477
806.336	27800
806.478	27420
806.62	27469
806.762	27610
806.904	27789
807.046	28051
807.188	27903
807.33	27998
807.472	27903
807.614	27736
807.756	27846
807.898	27751
808.04	27720
808.182	27694
808.324	27705
808.465	27629
808.607	27888
808.749	27972
808.891	28147
809.033	28154
809.174	28070
809.316	28131
809.458	27914
809.6	28040
809.741	28299
809.883	28090
810.025	28181
810.166	28257
810.308	28204
810.45	28329
810.591	28188
810.733	28032
810.875	27880
811.016	27922
811.158	27808
811.299	28067
811.441	27918
811.582	27994
811.724	27918
811.865	27819
812.007	28013
812.148	27960
812.29	28086
812.431	28143
812.573	28276
812.714	28413
812.855	28481
812.997	28679
813.138	28763
813.279	28569
813.421	28447
813.562	28436
813.703	28242
813.845	28116
813.986	27975
814.127	27614
814.268	27709
814.41	27759
814.551	27644
814.692	27603
814.833	27538
814.974	27469
815.115	27610
815.256	27424
815.397	27420
815.539	27367
815.68	27302
815.821	27230
815.962	27488
816.103	27344
816.244	27104
816.385	27005
816.526	27017
816.666	26948
816.807	26689
816.948	26887
817.089	26792
817.23	26842
817.371	26777
817.512	26712
817.653	26716
817.793	26670
817.934	26754
818.075	26708
818.216	26670
818.356	26667
818.497	26522
818.638	26480
818.778	26533
818.919	26514
819.06	26560
819.2	26617
819.341	26788
819.481	26587
819.622	26849
819.762	26940
819.903	26845
820.043	26830
820.184	26754
820.324	26826
820.465	26830
820.605	26781
820.746	26731
820.886	26606
821.026	26659
821.167	26640
821.307	26872
821.447	26617
821.588	26431
821.728	26503
821.868	26400
822.008	26157
822.149	26107
822.289	26054
822.429	25868
822.569	25883
822.709	25818
822.849	25605
822.99	25567
823.13	25537
823.27	25449
823.41	25449
823.55	25320
823.69	25457
823.83	25396
823.97	25327
824.11	25187
824.25	25103
824.389	25110
824.529	25122
824.669	25148
824.809	25171
824.949	25320
825.089	25228
825.228	25171
825.368	24894
825.508	24977
825.648	25023
825.787	25076
825.927	25171
826.067	25015
826.206	24954
826.346	25050
826.485	24905
826.625	24924
826.765	25095
826.904	24932
827.044	24772
827.183	24707
827.323	24642
827.462	24661
827.601	24631
827.741	24646
827.88	24741
828.02	24635
828.159	24654
828.298	24601
828.437	24665
828.577	24612
828.716	24688
828.855	24540
828.994	24475
829.134	24353
829.273	24395
829.412	24395
829.551	24365
829.69	24353
829.829	24296
829.968	24452
830.107	24407
830.246	24342
830.385	24285
830.524	24163
830.663	24155
830.802	24053
830.941	23912
831.08	23977
831.219	23855
831.357	23992
831.496	24125
831.635	23882
831.774	23737
831.913	23684
832.051	23737
832.19	23752
832.329	23707
832.467	23558
832.606	23459
832.744	23467
832.883	23554
833.022	23410
833.16	23630
833.299	23551
833.437	23490
833.576	23474
833.714	23649
833.852	23672
833.991	23592
834.129	23703
834.267	23558
834.406	23505
834.544	23505
834.682	23531
834.821	23512
834.959	23691
835.097	23459
835.235	23554
835.373	23414
835.511	23619
835.65	23429
835.788	23326
835.926	23288
836.064	23022
836.202	23212
836.34	23337
836.478	23417
836.615	23391
836.753	23417
836.891	23497
837.029	23406
837.167	23166
837.305	23231
837.443	23364
837.58	23246
837.718	23337
837.856	23269
837.993	23136
838.131	23296
838.269	23075
838.406	23109
838.544	23117
838.681	22881
838.819	22873
838.956	22698
839.094	22744
839.231	22759
839.369	22862
839.506	23071
839.643	22862
839.781	22763
839.918	22611
840.055	22668
840.193	22516
840.33	22573
840.467	22561
840.604	22592
840.742	22805
840.879	22390
841.016	22470
841.153	22337
841.29	22653
841.427	22542
841.564	22577
841.701	22599
841.838	22542
841.975	22333
842.112	22402
842.249	22375
842.385	22192
842.522	22485
842.659	22299
842.796	22246
842.933	22310
843.069	22154
843.206	22215
843.343	22287
843.479	22158
843.616	22257
843.752	22010
843.889	21876
844.025	22158
844.162	21930
844.298	22101
844.435	21964
844.571	21975
844.708	21907
844.844	22109
844.98	22181
845.117	22090
845.253	21884
845.389	21956
845.525	22036
845.661	21778
845.798	21701
845.934	21876
846.07	21785
846.206	21800
846.342	21850
846.478	21648
846.614	21477
846.75	21397
846.886	21348
847.022	21492
847.158	21545
847.294	21469
847.429	21538
847.565	21412
847.701	21603
847.837	21211
847.972	21131
848.108	21294
848.244	21268
848.379	21032
848.515	21055
848.65	21043
848.786	20982
848.921	21100
849.057	21112
849.192	21222
849.328	20956
849.463	21062
849.598	20937
849.734	20990
849.869	20796
850.004	20758
850.14	20731
850.275	20716
850.41	20648
850.545	20701
850.68	20651
850.815	20845
850.95	20674
851.085	20918
851.22	20720
851.355	20796
851.49	20686
851.625	20693
851.76	20701
851.895	20549
852.03	20541
852.165	20621
852.299	20823
852.434	20899
852.569	20830
852.703	20861
852.838	20735
852.973	20899
853.107	20815
853.242	20720
853.376	20575
853.511	20469
853.645	20564
853.78	20754
853.914	20613
854.048	20560
854.183	20503
854.317	20571
854.451	20819
854.585	20530
854.72	20579
854.854	20651
854.988	20431
855.122	20568
855.256	20366
855.39	20374
855.524	20480
855.658	20648
855.792	20533
855.926	20518
856.06	20693
856.194	20541
856.327	20492
856.461	20457
856.595	20480
856.729	20358
856.862	20686
856.996	20549
857.13	20476
857.263	20606
857.397	20640
857.53	20457
857.664	20564
857.797	20488
857.931	20549
858.064	20609
858.197	20617
858.331	20522
858.464	20431
858.597	20404
858.731	20537
858.864	20530
858.997	20465
859.13	20461
859.263	20499
859.396	20564
859.529	20450
859.662	20351
859.795	20400
859.928	20377
860.061	20602
860.194	20629
860.327	20404
860.46	20454
860.592	20686
860.725	20583
860.858	20571
860.99	20488
861.123	20423
861.256	20313
861.388	20545
861.521	21188
861.653	20343
861.786	20370
861.918	20355
862.05	20454
862.183	20526
862.315	20545
862.447	20442
862.58	20507
862.712	20294
862.844	20183
862.976	20370
863.108	20347
863.24	20670
863.372	20115
863.504	20199
863.636	20138
863.768	20191
863.9	20191
864.032	20027
864.164	20168
864.296	20058
864.428	20320
864.559	20157
864.691	20218
864.823	20187
864.954	20168
865.086	20149
865.217	19921
865.349	19970
865.48	20229
865.612	20187
865.743	20233
865.875	20100
866.006	20016
866.137	20138
866.269	20210
866.4	20126
866.531	20081
866.662	20016
866.793	20005
866.924	20168
867.055	19997
867.186	20073
867.317	20031
867.448	19890
867.579	20039
867.71	19978
867.841	19913
867.972	20024
868.103	19955
868.233	19986
868.364	19936
868.495	20054
868.625	20259
868.756	20305
868.886	20210
869.017	20199
869.147	20347
869.278	20298
869.408	20202
869.539	20210
869.669	20267
869.799	20199
869.929	20396
870.06	20313
870.19	20556
870.32	20404
870.45	20552
870.58	20609
870.71	20720
870.84	20708
870.97	20454
871.1	20617
871.23	20937
871.36	20765
871.489	20769
871.619	20815
871.749	20804
871.879	20769
872.008	20914
872.138	20853
872.267	20781
872.397	20754
872.526	20640
872.656	20701
872.785	20625
872.915	20872
873.044	20872
873.173	20838
873.303	20910
873.432	20883
873.561	20998
873.69	20815
873.819	20826
873.948	20963
874.077	20948
874.206	20788
874.335	20796
874.464	21028
874.593	21123
874.722	21081
874.851	21176
874.979	21100
875.108	21249
875.237	21005
875.365	20921
875.494	21074
875.623	21192
875.751	21131
875.88	21051
876.008	21203
876.136	21374
876.265	21473
876.393	21682
876.521	21523
876.65	21728
876.778	21439
876.906	21439
877.034	21507
877.162	21545
877.29	21511
877.418	21488
877.546	21564
877.674	21485
877.802	21355
877.93	21367
878.058	21473
878.185	21420
878.313	21389
878.441	21534
878.568	21264
878.696	21428
878.824	21424
878.951	21355
879.079	21663
879.206	21800
879.333	21656
879.461	21587
879.588	21625
879.715	21755
879.842	21736
879.97	21603
880.097	21233
880.224	21195
880.351	21207
880.478	21249
880.605	21226
880.732	21279
880.859	21534
880.986	21363
881.112	21291
881.239	21116
881.366	21009
881.493	21009
881.619	20735
881.746	20785
881.872	20921
881.999	20834
882.125	20815
882.252	20910
882.378	20807
882.505	20925
882.631	20678
882.757	20746
882.883	20754
883.01	20541
883.136	20575
883.262	20549
883.388	20499
883.514	20560
883.64	20686
883.766	20552
883.892	20294
884.018	20640
884.143	20511
884.269	20625
884.395	20355
884.52	20317
884.646	20252
884.772	20199
884.897	20210
885.023	20339
885.148	20332
885.274	20221
885.399	20336
885.524	20119
885.65	20252
885.775	20351
885.9	20191
886.025	20461
886.15	20233
886.275	20225
886.4	20240
886.525	20248
886.65	20126
886.775	20168
886.9	20415
887.025	20454
887.149	20210
887.274	20092
887.399	19932
887.523	20012
887.648	19925
887.773	19860
887.897	20183
888.021	20069
888.146	20024
888.27	20008
888.395	20142
888.519	20077
888.643	20103
888.767	20027
888.891	19845
889.015	19807
889.139	19928
889.263	19864
889.387	19917
889.511	19928
889.635	19959
889.759	19807
889.883	19696
890.006	19772
890.13	19906
890.254	19674
890.377	19674
890.501	19499
890.624	19540
890.748	19620
890.871	19396
890.995	19346
891.118	19350
891.241	19358
891.364	19407
891.488	19559
891.611	19480
891.734	19312
891.857	19362
891.98	19244
892.103	19419
892.226	19426
892.349	19422
892.471	19221
892.594	19304
892.717	19297
892.839	19339
892.962	19362
893.085	19350
893.207	19312
893.33	19209
893.452	19118
893.575	19426
893.697	19141
893.819	19411
893.941	19590
894.064	19438
894.186	19206
894.308	19202
894.43	19434
894.552	19483
894.674	19381
894.796	19148
894.918	19278
895.04	19274
895.161	19316
895.283	19460
895.405	19289
895.526	19312
895.648	19362
895.769	19373
895.891	19358
896.012	19293
896.134	19331
896.255	19247
896.376	19266
896.498	19430
896.619	19384
896.74	19434
896.861	19438
896.982	19708
897.103	19708
897.224	19731
897.345	19537
897.466	19419
897.587	19559
897.708	19689
897.828	19590
897.949	19597
898.07	19381
898.19	19529
898.311	19643
898.431	19502
898.552	19499
898.672	19632
898.792	19552
898.913	19487
899.033	19445
899.153	19335
899.273	19213
899.393	19244
899.513	19339
899.633	19316
899.753	19259
899.873	19190
899.993	19148
900.113	19240
900.232	19293
900.352	19236
900.472	19141
900.591	19137
900.711	19050
900.83	19088
900.95	19228
901.069	19129
901.189	18996
901.308	18829
901.427	18768
901.546	18681
901.665	18711
901.784	18719
901.904	18612
902.023	18486
902.141	18235
902.26	18182
902.379	18182
902.498	18201
902.617	18159
902.735	18205
902.854	18098
902.973	18083
903.091	17878
903.21	17832
903.328	17870
903.446	17684
903.565	17657
903.683	17592
903.801	17619
903.919	17570
904.038	17630
904.156	17452
904.274	17459
904.392	17372
904.51	17444
904.627	17433
904.745	17509
904.863	17459
904.981	17330
905.098	17018
905.216	17117
905.334	17166
905.451	17090
905.569	17060
905.686	17117
905.803	17136
905.921	16797
906.038	16968
906.155	16961
906.272	16828
906.389	16858
906.506	16702
906.623	16641
906.74	16687
906.857	16459
906.974	16538
907.091	16778
907.208	16664
907.324	16672
907.441	16538
907.557	16398
907.674	16481
907.79	16276
907.907	16299
908.023	16379
908.139	16341
908.256	16284
908.372	16200
908.488	16188
908.604	16032
908.72	16036
908.836	16055
908.952	15960
909.068	16044
909.184	16074
909.3	15983
909.415	16067
909.531	15953
909.647	15667
909.762	15819
909.878	15679
909.993	15728
910.108	15759
910.224	15736
910.339	15781
910.454	15663
910.57	15542
910.685	15492
910.8	15728
910.915	15625
911.03	15603
911.145	15428
911.259	15344
911.374	15439
911.489	15363
911.604	15230
911.718	15039
911.833	15157
911.947	14929
912.062	14826
912.176	14948
912.291	15009
912.405	15028
912.519	15226
912.633	15161
912.748	15081
912.862	15047
912.976	14864
913.09	14708
913.204	14880
913.318	14880
913.431	14918
913.545	14921
913.659	14975
913.772	14830
913.886	14746
914	14724
914.113	14750
914.226	14849
914.34	14781
914.453	14514
914.566	14708
914.68	14587
914.793	14606
914.906	14480
915.019	14377
915.132	14381
915.245	14305
915.358	14370
915.47	14328
915.583	14381
915.696	14400
915.809	14484
915.921	14446
916.034	14248
916.146	14210
916.259	14161
916.371	14305
916.483	14298
916.595	14298
916.708	14168
916.82	14176
916.932	14084
917.044	14142
917.156	14157
917.268	14016
917.38	14092
917.491	14001
917.603	14054
917.715	14012
917.826	14142
917.938	13909
918.049	13852
918.161	13894
918.272	14138
918.384	14130
918.495	13963
918.606	13799
918.717	13795
918.828	13795
918.939	13894
919.05	13666
919.161	13795
919.272	13620
919.383	13567
919.494	13803
919.604	13917
919.715	13750
919.826	13696
919.936	13723
920.047	13772
920.157	13693
920.267	14005
920.378	13807
920.488	13677
920.598	13898
920.708	13944
920.818	13928
920.928	13921
921.038	14031
921.148	13982
921.258	13753
921.368	13670
921.477	13510
921.587	13434
921.697	13411
921.806	13460
921.916	13312
922.025	13122
922.134	13164
922.244	13145
922.353	13175
922.462	12924
922.571	12924
922.68	12840
922.789	12711
922.898	12867
923.007	12639
923.116	12863
923.224	12684
923.333	12711
923.442	12608
923.55	12597
923.659	12646
923.767	12627
923.876	12547
923.984	12711
924.092	12498
924.201	12563
924.309	12570
924.417	12574
924.525	12388
924.633	12414
924.741	13251
924.849	12220
924.956	12372
925.064	12251
925.172	12243
925.279	12216
925.387	12239
925.494	12171
925.602	12399
925.709	12296
925.816	12133
925.924	12136
926.031	12346
926.138	12178
926.245	12239
926.352	12144
926.459	12216
926.566	12330
926.673	12064
926.779	12026
926.886	12003
926.993	11901
927.099	11901
927.206	11805
927.312	11779
927.419	11866
927.525	11775
927.631	11790
927.737	11714
927.843	11566
927.95	11554
928.056	11676
928.162	11608
928.267	11668
928.373	12243
928.479	11748
928.585	11444
928.69	11608
928.796	11592
928.901	11509
929.007	11391
929.112	11486
929.218	11512
929.323	11391
929.428	11307
929.533	11539
929.638	11360
929.743	11299
929.848	11395
929.953	11273
930.058	11242
930.163	11105
930.267	11098
930.372	11227
930.477	11010
930.581	11235
930.685	11056
930.79	10976
930.894	11003
930.998	10866
931.103	11109
931.207	10736
931.311	10683
931.415	10580
931.519	10363
931.623	10348
