Data from test_V78500241_1705.txt Node
Date: Fri Mar 25 15:21:43 CST 2022
User: usil
Spectrometer: V785-0024
Trigger mode: 0
Integration Time (sec): 4.000000E-1
Scans to average: 1
Nonlinearity correction enabled: false
Boxcar width: 0
Storing dark spectrum: false
XAxis mode: Wavelengths
Number of Pixels in Spectrum: 1024
>>>>>Begin Spectral Data<<<<<
801.071	27648
801.214	27610
801.356	27412
801.499	27310
801.641	27226
801.783	27058
801.926	27226
802.068	27165
802.211	27188
802.353	26994
802.496	26861
802.638	26921
802.78	26929
802.923	26861
803.065	26594
803.208	26617
803.35	26811
803.492	26982
803.635	26899
803.777	26777
803.919	26902
804.061	27184
804.204	27218
804.346	27039
804.488	26960
804.63	27013
804.773	27009
804.915	26994
805.057	26990
805.199	26963
805.341	27093
805.483	27173
805.626	27146
805.768	27077
805.91	27051
806.052	27119
806.194	27150
806.336	27355
806.478	27104
806.62	27108
806.762	27275
806.904	27294
807.046	27637
807.188	27625
807.33	27576
807.472	27618
807.614	27382
807.756	27473
807.898	27374
808.04	27188
808.182	27507
808.324	27466
808.465	27275
808.607	27595
808.749	27732
808.891	27846
809.033	27876
809.174	27797
809.316	27846
809.458	27762
809.6	27713
809.741	27739
809.883	27709
810.025	27907
810.166	28017
810.308	28105
810.45	27880
810.591	27888
810.733	27865
810.875	27644
811.016	27625
811.158	27603
811.299	27823
811.441	27842
811.582	27895
811.724	27846
811.865	27857
812.007	27610
812.148	27637
812.29	27739
812.431	27918
812.573	28109
812.714	28173
812.855	28253
812.997	28344
813.138	28508
813.279	28360
813.421	28265
813.562	28299
813.703	28086
813.845	28055
813.986	27736
814.127	27553
814.268	27351
814.41	27545
814.551	27488
814.692	27443
814.833	27310
814.974	27351
815.115	27466
815.256	27336
815.397	27256
815.539	27408
815.68	27245
815.821	27211
815.962	27306
816.103	27135
816.244	27070
816.385	27036
816.526	27001
816.666	26944
816.807	26674
816.948	26674
817.089	26773
817.23	26861
817.371	26891
817.512	26762
817.653	26735
817.793	26651
817.934	26655
818.075	26705
818.216	26686
818.356	26629
818.497	26552
818.638	26404
818.778	26473
818.919	26434
819.06	26480
819.2	26556
819.341	26606
819.481	26716
819.622	26834
819.762	26990
819.903	26918
820.043	26994
820.184	26819
820.324	26876
820.465	27020
820.605	26773
820.746	26883
820.886	26575
821.026	26769
821.167	26804
821.307	26914
821.447	26625
821.588	26511
821.728	26347
821.868	26324
822.008	26130
822.149	26012
822.289	26157
822.429	25883
822.569	26024
822.709	25906
822.849	25643
822.99	25742
823.13	25594
823.27	25582
823.41	25510
823.55	25495
823.69	25521
823.83	25533
823.97	25419
824.11	25240
824.25	25232
824.389	25225
824.529	25396
824.669	25198
824.809	25350
824.949	25487
825.089	25377
825.228	25339
825.368	25232
825.508	25088
825.648	25339
825.787	25301
825.927	25247
826.067	25110
826.206	25095
826.346	25103
826.485	25076
826.625	25126
826.765	25236
826.904	25297
827.044	24962
827.183	24943
827.323	24928
827.462	24916
827.601	25008
827.741	24882
827.88	24962
828.02	24745
828.159	24779
828.298	24795
828.437	25012
828.577	24806
828.716	25065
828.855	24639
828.994	24669
829.134	24570
829.273	24734
829.412	24532
829.551	24582
829.69	24711
829.829	24665
829.968	24757
830.107	24753
830.246	24631
830.385	24532
830.524	24726
830.663	24289
830.802	24353
830.941	24296
831.08	24167
831.219	24327
831.357	24334
831.496	24471
831.635	24243
831.774	24197
831.913	24034
832.051	24007
832.19	24068
832.329	23901
832.467	23946
832.606	23805
832.744	23904
832.883	23847
833.022	23828
833.16	23794
833.299	23824
833.437	23908
833.576	23931
833.714	24057
833.852	24091
833.991	24114
834.129	23969
834.267	23927
834.406	23916
834.544	23988
834.682	23904
834.821	23920
834.959	24018
835.097	23916
835.235	23999
835.373	23927
835.511	23939
835.65	23676
835.788	23904
835.926	23779
836.064	23596
836.202	23729
836.34	23813
836.478	23897
836.615	23764
836.753	23855
836.891	23889
837.029	23752
837.167	23748
837.305	23703
837.443	23573
837.58	23520
837.718	23623
837.856	23722
837.993	23630
838.131	23600
838.269	23562
838.406	23672
838.544	23414
838.681	23258
838.819	23326
838.956	23185
839.094	23151
839.231	23231
839.369	23246
839.506	23425
839.643	23322
839.781	23083
839.918	23010
840.055	23079
840.193	23166
840.33	23170
840.467	22987
840.604	23056
840.742	23178
840.879	23029
841.016	22752
841.153	22881
841.29	23155
841.427	22957
841.564	23037
841.701	22930
841.838	22942
841.975	22923
842.112	22919
842.249	22828
842.385	22820
842.522	22957
842.659	22927
842.796	22881
842.933	22721
843.069	22622
843.206	22748
843.343	22968
843.479	22820
843.616	22767
843.752	22565
843.889	22542
844.025	22717
844.162	22489
844.298	22687
844.435	22516
844.571	22550
844.708	22713
844.844	22752
844.98	22740
845.117	22607
845.253	22615
845.389	22409
845.525	22405
845.661	22367
845.798	22314
845.934	22230
846.07	22207
846.206	22375
846.342	22337
846.478	22249
846.614	22116
846.75	21953
846.886	22105
847.022	22253
847.158	22070
847.294	22044
847.429	22032
847.565	21991
847.701	22284
847.837	21964
847.972	21762
848.108	21850
848.244	21857
848.379	21694
848.515	21713
848.65	21526
848.786	21580
848.921	21720
849.057	21835
849.192	21656
849.328	21652
849.463	21606
849.598	21637
849.734	21538
849.869	21408
850.004	21393
850.14	21420
850.275	21416
850.41	21275
850.545	21161
850.68	21408
850.815	21488
850.95	21466
851.085	21485
851.22	21515
851.355	21367
851.49	21306
851.625	21249
851.76	21450
851.895	21207
852.03	21256
852.165	21405
852.299	21473
852.434	21321
852.569	21515
852.703	21344
852.838	21492
852.973	21511
853.107	21458
853.242	21268
853.376	21165
853.511	21020
853.645	21241
853.78	21367
853.914	21222
854.048	21264
854.183	21317
854.317	21207
854.451	21332
854.585	21252
854.72	21222
854.854	21348
854.988	21199
855.122	21165
855.256	20986
855.39	21302
855.524	21169
855.658	21382
855.792	21317
855.926	21241
856.06	21321
856.194	21332
856.327	21260
856.461	21066
856.595	21195
856.729	21279
856.862	21416
856.996	21275
857.13	21313
857.263	21428
857.397	21283
857.53	21173
857.664	21218
857.797	21313
857.931	21268
858.064	21294
858.197	21260
858.331	21287
858.464	21131
858.597	21127
858.731	21127
858.864	21241
858.997	21100
859.13	21173
859.263	21306
859.396	21283
859.529	21157
859.662	21135
859.795	21146
859.928	21298
860.061	21405
860.194	21397
860.327	21306
860.46	21245
860.592	21348
860.725	21283
860.858	21435
860.99	21287
861.123	21199
861.256	21119
861.388	21188
861.521	21899
861.653	21112
861.786	21055
861.918	21119
862.05	21043
862.183	21218
862.315	21123
862.447	21275
862.58	21123
862.712	20921
862.844	20963
862.976	21096
863.108	20906
863.24	21302
863.372	20868
863.504	20834
863.636	20925
863.768	20986
863.9	20971
864.032	20842
864.164	20914
864.296	21001
864.428	21062
864.559	21028
864.691	21024
864.823	20998
864.954	20952
865.086	20918
865.217	20811
865.349	20716
865.48	20807
865.612	20861
865.743	20872
865.875	20857
866.006	20811
866.137	20834
866.269	20735
866.4	20743
866.531	20781
866.662	20788
866.793	20705
866.924	20701
867.055	20765
867.186	20727
867.317	20670
867.448	20712
867.579	20750
867.71	20629
867.841	20609
867.972	20746
868.103	20864
868.233	20705
868.364	20754
868.495	20986
868.625	21001
868.756	21108
868.886	20853
869.017	20960
869.147	21135
869.278	21096
869.408	21043
869.539	21039
869.669	21146
869.799	21123
869.929	21058
870.06	21108
870.19	21203
870.32	21275
870.45	21473
870.58	21252
870.71	21549
870.84	21416
870.97	21469
871.1	21363
871.23	21416
871.36	21679
871.489	21603
871.619	21583
871.749	21568
871.879	21534
872.008	21671
872.138	21610
872.267	21519
872.397	21538
872.526	21428
872.656	21325
872.785	21424
872.915	21606
873.044	21675
873.173	21603
873.303	21595
873.432	21545
873.561	21671
873.69	21690
873.819	21656
873.948	21599
874.077	21675
874.206	21542
874.335	21656
874.464	21736
874.593	21869
874.722	21819
874.851	21903
874.979	21857
875.108	21857
875.237	21770
875.365	21720
875.494	21831
875.623	21819
875.751	21903
875.88	21865
876.008	22059
876.136	22112
876.265	22230
876.393	22386
876.521	22276
876.65	22310
876.778	22337
876.906	22211
877.034	22169
877.162	22238
877.29	22025
877.418	22177
877.546	22219
877.674	22261
877.802	22249
877.93	22173
878.058	22162
878.185	22101
878.313	22097
878.441	22158
878.568	22074
878.696	22063
878.824	22109
878.951	22284
879.079	22295
879.206	22577
879.333	22367
879.461	22185
879.588	22280
879.715	22329
879.842	22538
879.97	22382
880.097	21937
880.224	21998
880.351	21987
880.478	21983
880.605	22021
880.732	22044
880.859	22101
880.986	22036
881.112	21998
881.239	21854
881.366	21739
881.493	21728
881.619	21656
881.746	21523
881.872	21603
881.999	21583
882.125	21507
882.252	21511
882.378	21606
882.505	21675
882.631	21416
882.757	21272
882.883	21435
883.01	21325
883.136	21344
883.262	21157
883.388	21195
883.514	21233
883.64	21268
883.766	21207
883.892	21093
884.018	21093
884.143	21199
884.269	21237
884.395	20941
884.52	21093
884.646	20914
884.772	20849
884.897	20811
885.023	20781
885.148	21066
885.274	21070
885.399	21218
885.524	20849
885.65	20880
885.775	20933
885.9	20864
886.025	21066
886.15	20906
886.275	20971
886.4	20864
886.525	20697
886.65	20792
886.775	20735
886.9	20914
887.025	21062
887.149	20857
887.274	20842
887.399	20823
887.523	20670
887.648	20663
887.773	20621
887.897	20739
888.021	20845
888.146	20606
888.27	20769
888.395	20781
888.519	20807
888.643	20697
888.767	20678
888.891	20625
889.015	20511
889.139	20617
889.263	20461
889.387	20674
889.511	20724
889.635	20670
889.759	20621
889.883	20511
890.006	20530
890.13	20541
890.254	20305
890.377	20533
890.501	20294
890.624	20119
890.748	20259
890.871	20199
890.995	20024
891.118	20069
891.241	20081
891.364	20073
891.488	20225
891.611	19993
891.734	20100
891.857	20024
891.98	20054
892.103	20054
892.226	20073
892.349	19970
892.471	19837
892.594	20020
892.717	19936
892.839	19970
892.962	19970
893.085	19997
893.207	19974
893.33	19932
893.452	19887
893.575	19967
893.697	20035
893.819	20065
893.941	20172
894.064	20100
894.186	19894
894.308	19860
894.43	20092
894.552	20039
894.674	20073
894.796	19982
894.918	19887
895.04	19864
895.161	20115
895.283	20069
895.405	19845
895.526	19925
895.648	19963
895.769	20043
895.891	19955
896.012	20092
896.134	20088
896.255	19894
896.376	20065
896.498	20008
896.619	20050
896.74	19902
896.861	19978
896.982	20332
897.103	20423
897.224	20218
897.345	20164
897.466	20096
897.587	20187
897.708	20244
897.828	20286
897.949	20172
898.07	19978
898.19	20130
898.311	20271
898.431	20259
898.552	20069
898.672	20298
898.792	20317
898.913	20229
899.033	20065
899.153	20035
899.273	19868
899.393	19936
899.513	19974
899.633	19944
899.753	20012
899.873	19902
899.993	20012
900.113	19852
900.232	19841
900.352	19921
900.472	19795
900.591	19578
900.711	19753
900.83	19791
900.95	19765
901.069	19856
901.189	19685
901.308	19571
901.427	19358
901.546	19411
901.665	19308
901.784	19266
901.904	19266
902.023	19103
902.141	18764
902.26	18920
902.379	18954
902.498	18886
902.617	18840
902.735	18920
902.854	18757
902.973	18776
903.091	18517
903.21	18547
903.328	18532
903.446	18426
903.565	18308
903.683	18258
903.801	18159
903.919	18277
904.038	18232
904.156	18140
904.274	18247
904.392	18102
904.51	18091
904.627	18045
904.745	18098
904.863	18072
904.981	17863
905.098	17756
905.216	17840
905.334	17828
905.451	17767
905.569	17657
905.686	17748
905.803	17764
905.921	17505
906.038	17615
906.155	17493
906.272	17448
906.389	17551
906.506	17299
906.623	17292
906.74	17216
906.857	17151
906.974	17178
907.091	17360
907.208	17349
907.324	17410
907.441	17227
907.557	17041
907.674	16911
907.79	16980
907.907	16953
908.023	17037
908.139	16972
908.256	16957
908.372	16881
908.488	16854
908.604	16828
908.72	16656
908.836	16809
908.952	16748
909.068	16653
909.184	16740
909.3	16748
909.415	16740
909.531	16626
909.647	16470
909.762	16424
909.878	16413
909.993	16451
910.108	16405
910.224	16284
910.339	16386
910.454	16204
910.57	16139
910.685	16147
910.8	16497
910.915	16386
911.03	16246
911.145	16158
911.259	16097
911.374	16135
911.489	15918
911.604	15846
911.718	15846
911.833	15770
911.947	15648
912.062	15675
912.176	15751
912.291	15698
912.405	15762
912.519	15922
912.633	15899
912.748	15816
912.862	15720
912.976	15507
913.09	15507
913.204	15492
913.318	15580
913.431	15682
913.545	15675
913.659	15717
913.772	15526
913.886	15405
914	15374
914.113	15534
914.226	15523
914.34	15424
914.453	15291
914.566	15435
914.68	15207
914.793	15275
914.906	15039
915.019	14944
915.132	14929
915.245	14975
915.358	14975
915.47	14971
915.583	14990
915.696	14963
915.809	15112
915.921	15127
916.034	15017
916.146	14838
916.259	14842
916.371	15032
916.483	14883
916.595	14849
916.708	14883
916.82	14773
916.932	14743
917.044	14868
917.156	14769
917.268	14724
917.38	14720
917.491	14629
917.603	14682
917.715	14720
917.826	14682
917.938	14621
918.049	14503
918.161	14701
918.272	14689
918.384	14746
918.495	14552
918.606	14427
918.717	14404
918.828	14389
918.939	14434
919.05	14317
919.161	14389
919.272	14218
919.383	14180
919.494	14454
919.604	14560
919.715	14488
919.826	14324
919.936	14328
920.047	14347
920.157	14339
920.267	14575
920.378	14393
920.488	14389
920.598	14484
920.708	14625
920.818	14556
920.928	14465
921.038	14659
921.148	14667
921.258	14278
921.368	14183
921.477	14119
921.587	14130
921.697	13883
921.806	14172
921.916	13978
922.025	13875
922.134	13753
922.244	13742
922.353	13704
922.462	13700
922.571	13487
922.68	13472
922.789	13438
922.898	13392
923.007	13434
923.116	13403
923.224	13346
923.333	13381
923.442	13285
923.55	13209
923.659	13236
923.767	13282
923.876	13225
923.984	13350
924.092	13168
924.201	13141
924.309	13141
924.417	13164
924.525	13042
924.633	13023
924.741	13750
924.849	12852
924.956	13103
925.064	12878
925.172	12734
925.279	12783
925.387	12848
925.494	12848
925.602	12962
925.709	12821
925.816	12745
925.924	12745
926.031	12894
926.138	12787
926.245	12814
926.352	12601
926.459	12939
926.566	12837
926.673	12703
926.779	12502
926.886	12589
926.993	12410
927.099	12426
927.206	12350
927.312	12311
927.419	12456
927.525	12399
927.631	12403
927.737	12350
927.843	12197
927.95	12167
928.056	12220
928.162	12273
928.267	12300
928.373	12795
928.479	12258
928.585	12175
928.69	12110
928.796	12216
928.901	12064
929.007	11961
929.112	12095
929.218	12057
929.323	11965
929.428	11977
929.533	12022
929.638	11874
929.743	11897
929.848	11939
929.953	11897
930.058	11737
930.163	11665
930.267	11619
930.372	11840
930.477	11570
930.581	11809
930.685	11733
930.79	11577
930.894	11543
930.998	11501
931.103	11699
931.207	11193
931.311	11201
931.415	11098
931.519	10934
931.623	10889
