Data from test_V78500241_789.txt Node
Date: Fri Mar 25 15:15:21 CST 2022
User: usil
Spectrometer: V785-0024
Trigger mode: 0
Integration Time (sec): 4.000000E-1
Scans to average: 1
Nonlinearity correction enabled: false
Boxcar width: 0
Storing dark spectrum: false
XAxis mode: Wavelengths
Number of Pixels in Spectrum: 1024
>>>>>Begin Spectral Data<<<<<
801.071	28318
801.214	28280
801.356	28074
801.499	27983
801.641	27895
801.783	27857
801.926	27854
802.068	27755
802.211	27747
802.353	27633
802.496	27648
802.638	27466
802.78	27534
802.923	27515
803.065	27450
803.208	27435
803.35	27542
803.492	27606
803.635	27641
803.777	27671
803.919	27720
804.061	27953
804.204	27857
804.346	27603
804.488	27679
804.63	27739
804.773	27408
804.915	27835
805.057	27949
805.199	27618
805.341	27819
805.483	27884
805.626	27819
805.768	27816
805.91	27789
806.052	27918
806.194	27876
806.336	28196
806.478	27941
806.62	27793
806.762	28006
806.904	28154
807.046	28417
807.188	28268
807.33	28246
807.472	28344
807.614	28295
807.756	28284
807.898	28177
808.04	28204
808.182	28211
808.324	28169
808.465	28207
808.607	28356
808.749	28440
808.891	28565
809.033	28618
809.174	28531
809.316	28599
809.458	28569
809.6	28504
809.741	28611
809.883	28668
810.025	28843
810.166	28839
810.308	28725
810.45	28801
810.591	28733
810.733	28668
810.875	28573
811.016	28455
811.158	28462
811.299	28653
811.441	28736
811.582	28736
811.724	28421
811.865	28557
812.007	28379
812.148	28672
812.29	28519
812.431	28790
812.573	28919
812.714	28980
812.855	29022
812.997	29269
813.138	29280
813.279	29239
813.421	29064
813.562	29022
813.703	28946
813.845	28835
813.986	28637
814.127	28440
814.268	28341
814.41	28325
814.551	28253
814.692	28390
814.833	28280
814.974	28310
815.115	28177
815.256	28131
815.397	28246
815.539	28249
815.68	28158
815.821	28090
815.962	28070
816.103	28021
816.244	27865
816.385	27892
816.526	27827
816.666	27682
816.807	27603
816.948	27656
817.089	27892
817.23	27515
817.371	27587
817.512	27629
817.653	27724
817.793	27580
817.934	27580
818.075	27595
818.216	27641
818.356	27580
818.497	27504
818.638	27435
818.778	27340
818.919	27329
819.06	27443
819.2	27504
819.341	27606
819.481	27568
819.622	27663
819.762	27911
819.903	27941
820.043	27819
820.184	27755
820.324	27671
820.465	27755
820.605	27812
820.746	27606
820.886	27667
821.026	27610
821.167	27557
821.307	27667
821.447	27587
821.588	27507
821.728	27405
821.868	27131
822.008	26940
822.149	27104
822.289	27093
822.429	26880
822.569	26739
822.709	26678
822.849	26598
822.99	26590
823.13	26667
823.27	26541
823.41	26309
823.55	26301
823.69	26457
823.83	26495
823.97	26275
824.11	26332
824.25	26225
824.389	26134
824.529	26347
824.669	26157
824.809	26168
824.949	26309
825.089	26396
825.228	26301
825.368	26035
825.508	26229
825.648	26119
825.787	26126
825.927	26244
826.067	26035
826.206	26096
826.346	26153
826.485	26168
826.625	26100
826.765	26100
826.904	26142
827.044	25925
827.183	25837
827.323	25879
827.462	25913
827.601	25761
827.741	25784
827.88	25955
828.02	25609
828.159	25879
828.298	25776
828.437	25818
828.577	25769
828.716	25951
828.855	25788
828.994	25533
829.134	25609
829.273	25544
829.412	25460
829.551	25563
829.69	25506
829.829	25377
829.968	25548
830.107	25449
830.246	25548
830.385	25362
830.524	25202
830.663	25255
830.802	25244
830.941	25057
831.08	25118
831.219	25228
831.357	25088
831.496	25282
831.635	25053
831.774	25057
831.913	25023
832.051	24901
832.19	24932
832.329	24875
832.467	24894
832.606	24753
832.744	24806
832.883	24635
833.022	24814
833.16	24795
833.299	24852
833.437	24821
833.576	24859
833.714	24844
833.852	24878
833.991	24863
834.129	25050
834.267	24859
834.406	24909
834.544	24848
834.682	24837
834.821	24791
834.959	25038
835.097	24597
835.235	24825
835.373	24905
835.511	24882
835.65	24658
835.788	24776
835.926	24597
836.064	24464
836.202	24464
836.34	24635
836.478	24753
836.615	24665
836.753	24768
836.891	24623
837.029	24608
837.167	24726
837.305	24768
837.443	24601
837.58	24593
837.718	24589
837.856	24608
837.993	24498
838.131	24505
838.269	24422
838.406	24426
838.544	24254
838.681	24140
838.819	24095
838.956	24087
839.094	24045
839.231	23954
839.369	24030
839.506	24376
839.643	24216
839.781	23999
839.918	23923
840.055	23893
840.193	23828
840.33	23874
840.467	23946
840.604	23942
840.742	24076
840.879	23737
841.016	23790
841.153	23745
841.29	23977
841.427	23809
841.564	23824
841.701	23916
841.838	23786
841.975	23790
842.112	23828
842.249	23676
842.385	23619
842.522	23760
842.659	23687
842.796	23630
842.933	23733
843.069	23623
843.206	23528
843.343	23600
843.479	23604
843.616	23680
843.752	23417
843.889	23459
844.025	23627
844.162	23501
844.298	23505
844.435	23414
844.571	23395
844.708	23509
844.844	23467
844.98	23474
845.117	23619
845.253	23364
845.389	23330
845.525	23159
845.661	23265
845.798	23132
845.934	23212
846.07	23128
846.206	23117
846.342	23223
846.478	23143
846.614	22923
846.75	22774
846.886	22664
847.022	22991
847.158	22809
847.294	22946
847.429	22957
847.565	22911
847.701	23052
847.837	22565
847.972	22546
848.108	22733
848.244	22603
848.379	22550
848.515	22398
848.65	22424
848.786	22493
848.921	22516
849.057	22504
849.192	22637
849.328	22611
849.463	22405
849.598	22417
849.734	22367
849.869	22428
850.004	22177
850.14	22169
850.275	22230
850.41	22131
850.545	22070
850.68	22131
850.815	22204
850.95	22223
851.085	22413
851.22	22314
851.355	22226
851.49	22242
851.625	22219
851.76	22135
851.895	22128
852.03	22219
852.165	22162
852.299	22207
852.434	22261
852.569	22268
852.703	22272
852.838	22238
852.973	22451
853.107	22215
853.242	22249
853.376	22097
853.511	21956
853.645	21941
853.78	22128
853.914	21945
854.048	22036
854.183	21930
854.317	22059
854.451	22242
854.585	22074
854.72	22067
854.854	22124
854.988	22013
855.122	22139
855.256	21842
855.39	22013
855.524	22059
855.658	22059
855.792	22059
855.926	21941
856.06	21937
856.194	22128
856.327	21983
856.461	21876
856.595	22036
856.729	22048
856.862	22101
856.996	21998
857.13	22063
857.263	22032
857.397	22059
857.53	21968
857.664	22135
857.797	22128
857.931	22265
858.064	22105
858.197	22219
858.331	21800
858.464	21876
858.597	22010
858.731	21991
858.864	21934
858.997	21907
859.13	21941
859.263	21968
859.396	22055
859.529	22120
859.662	21987
859.795	22048
859.928	22013
860.061	22135
860.194	22196
860.327	22029
860.46	22017
860.592	22166
860.725	22135
860.858	22173
860.99	22032
861.123	21892
861.256	21934
861.388	22090
861.521	22816
861.653	21892
861.786	21778
861.918	21804
862.05	21789
862.183	21903
862.315	21968
862.447	21945
862.58	21964
862.712	21667
862.844	21675
862.976	21956
863.108	21892
863.24	22223
863.372	21762
863.504	21675
863.636	21625
863.768	21778
863.9	21686
864.032	21770
864.164	21652
864.296	21690
864.428	21941
864.559	21759
864.691	21743
864.823	21724
864.954	21739
865.086	21652
865.217	21614
865.349	21595
865.48	21614
865.612	21568
865.743	21724
865.875	21720
866.006	21663
866.137	21614
866.269	21545
866.4	21538
866.531	21595
866.662	21473
866.793	21530
866.924	21507
867.055	21576
867.186	21648
867.317	21473
867.448	21477
867.579	21572
867.71	21496
867.841	21568
867.972	21485
868.103	21405
868.233	21515
868.364	21538
868.495	21580
868.625	21972
868.756	21934
868.886	21717
869.017	21755
869.147	21789
869.278	21876
869.408	21789
869.539	21804
869.669	21857
869.799	21774
869.929	21915
870.06	21800
870.19	22093
870.32	22185
870.45	22082
870.58	22246
870.71	22200
870.84	22200
870.97	22074
871.1	22150
871.23	22314
871.36	22379
871.489	22215
871.619	22322
871.749	22299
871.879	22295
872.008	22390
872.138	22443
872.267	22291
872.397	22299
872.526	22234
872.656	22112
872.785	22246
872.915	22386
873.044	22508
873.173	22500
873.303	22363
873.432	22481
873.561	22538
873.69	22371
873.819	22417
873.948	22447
874.077	22371
874.206	22394
874.335	22379
874.464	22504
874.593	22580
874.722	22561
874.851	22683
874.979	22573
875.108	22694
875.237	22546
875.365	22451
875.494	22561
875.623	22592
875.751	22577
875.88	22656
876.008	22649
876.136	22820
876.265	22991
876.393	23060
876.521	23140
876.65	23178
876.778	22999
876.906	22999
877.034	22858
877.162	22968
877.29	22904
877.418	22995
877.546	22862
877.674	22984
877.802	23033
877.93	22927
878.058	22892
878.185	22790
878.313	22885
878.441	22923
878.568	22778
878.696	22835
878.824	23006
878.951	22995
879.079	23094
879.206	23269
879.333	23162
879.461	22946
879.588	23029
879.715	23181
879.842	23223
879.97	22995
880.097	22729
880.224	22702
880.351	22885
880.478	22828
880.605	22694
880.732	22736
880.859	22927
880.986	22850
881.112	22774
881.239	22630
881.366	22466
881.493	22390
881.619	22367
881.746	22580
881.872	22223
881.999	22333
882.125	22257
882.252	22344
882.378	22329
882.505	22428
882.631	22200
882.757	22143
882.883	22147
883.01	22124
883.136	22048
883.262	21998
883.388	21873
883.514	21915
883.64	21926
883.766	21895
883.892	21781
884.018	21770
884.143	21972
884.269	21960
884.395	21591
884.52	21713
884.646	21679
884.772	21511
884.897	21561
885.023	21591
885.148	21682
885.274	21675
885.399	21648
885.524	21530
885.65	21663
885.775	21466
885.9	21576
886.025	21686
886.15	21755
886.275	21576
886.4	21519
886.525	21656
886.65	21648
886.775	21606
886.9	21717
887.025	21838
887.149	21648
887.274	21462
887.399	21389
887.523	21435
887.648	21370
887.773	21211
887.897	21416
888.021	21382
888.146	21313
888.27	21462
888.395	21523
888.519	21481
888.643	21325
888.767	21519
888.891	21279
889.015	21195
889.139	21355
889.263	21127
889.387	21291
889.511	21462
889.635	21294
889.759	21249
889.883	21131
890.006	21154
890.13	21211
890.254	21047
890.377	21051
890.501	20929
890.624	20872
890.748	21039
890.871	20857
890.995	20674
891.118	20727
891.241	20682
891.364	20781
891.488	20883
891.611	20743
891.734	20670
891.857	20727
891.98	20842
892.103	20842
892.226	20773
892.349	20686
892.471	20579
892.594	20663
892.717	20727
892.839	20609
892.962	20785
893.085	20731
893.207	20750
893.33	20511
893.452	20640
893.575	20735
893.697	20651
893.819	20693
893.941	20804
894.064	20800
894.186	20625
894.308	20598
894.43	20811
894.552	20826
894.674	20629
894.796	20522
894.918	20651
895.04	20659
895.161	20754
895.283	20651
895.405	20583
895.526	20613
895.648	20716
895.769	20598
895.891	20579
896.012	20777
896.134	20735
896.255	20743
896.376	20575
896.498	20606
896.619	20663
896.74	20689
896.861	20686
896.982	20994
897.103	21032
897.224	20986
897.345	20842
897.466	20842
897.587	20971
897.708	20979
897.828	20967
897.949	20762
898.07	20659
898.19	20754
898.311	20960
898.431	20686
898.552	20823
898.672	20830
898.792	20883
898.913	20845
899.033	20689
899.153	20674
899.273	20545
899.393	20629
899.513	20655
899.633	20549
899.753	20568
899.873	20507
899.993	20590
900.113	20522
900.232	20560
900.352	20526
900.472	20385
900.591	20324
900.711	20434
900.83	20404
900.95	20457
901.069	20427
901.189	20381
901.308	20062
901.427	19997
901.546	19967
901.665	19940
901.784	19894
901.904	19799
902.023	19750
902.141	19594
902.26	19468
902.379	19441
902.498	19468
902.617	19460
902.735	19525
902.854	19415
902.973	19415
903.091	19118
903.21	19072
903.328	19110
903.446	19012
903.565	18993
903.683	18939
903.801	18814
903.919	18840
904.038	18798
904.156	18677
904.274	18760
904.392	18608
904.51	18639
904.627	18650
904.745	18715
904.863	18692
904.981	18479
905.098	18426
905.216	18330
905.334	18311
905.451	18194
905.569	18281
905.686	18365
905.803	18448
905.921	18163
906.038	18182
906.155	18098
906.272	17946
906.389	18015
906.506	17843
906.623	18003
906.74	17920
906.857	17809
906.974	17722
907.091	17965
907.208	17984
907.324	17893
907.441	17817
907.557	17608
907.674	17608
907.79	17547
907.907	17668
908.023	17592
908.139	17486
908.256	17532
908.372	17543
908.488	17452
908.604	17246
908.72	17265
908.836	17307
908.952	17299
909.068	17220
909.184	17398
909.3	17151
909.415	17356
909.531	17269
909.647	17018
909.762	16968
909.878	16965
909.993	17079
910.108	16991
910.224	16968
910.339	16839
910.454	16972
910.57	16778
910.685	16759
910.8	16919
910.915	16934
911.03	16915
911.145	16653
911.259	16538
911.374	16664
911.489	16554
911.604	16493
911.718	16299
911.833	16314
911.947	16207
912.062	16207
912.176	16329
912.291	16303
912.405	16246
912.519	16489
912.633	16417
912.748	16344
912.862	16299
912.976	16173
913.09	16071
913.204	16101
913.318	16143
913.431	16242
913.545	16291
913.659	16128
913.772	15956
913.886	16021
914	15953
914.113	15983
914.226	15979
914.34	15892
914.453	15800
914.566	15987
914.68	15800
914.793	15804
914.906	15542
915.019	15515
915.132	15447
915.245	15507
915.358	15530
915.47	15625
915.583	15534
915.696	15507
915.809	15606
915.921	15625
916.034	15469
916.146	15408
916.259	15526
916.371	15477
916.483	15477
916.595	15412
916.708	15435
916.82	15370
916.932	15298
917.044	15195
917.156	15306
917.268	15180
917.38	15157
917.491	15093
917.603	15119
917.715	15237
917.826	15298
917.938	15077
918.049	15085
918.161	15138
918.272	15230
918.384	15283
918.495	15119
918.606	14979
918.717	14914
918.828	14902
918.939	14876
919.05	14708
919.161	14857
919.272	14686
919.383	14773
919.494	14925
919.604	15097
919.715	14933
919.826	14731
919.936	14864
920.047	14956
920.157	14857
920.267	15020
920.378	14819
920.488	14849
920.598	14948
920.708	15180
920.818	14944
920.928	15001
921.038	15112
921.148	15108
921.258	14830
921.368	14743
921.477	14549
921.587	14575
921.697	14503
921.806	14545
921.916	14412
922.025	14336
922.134	14256
922.244	14221
922.353	14259
922.462	14077
922.571	14027
922.68	13974
922.789	13928
922.898	13738
923.007	13742
923.116	13978
923.224	13890
923.333	13849
923.442	13761
923.55	13681
923.659	13712
923.767	13753
923.876	13586
923.984	13685
924.092	13639
924.201	13655
924.309	13537
924.417	13445
924.525	13544
924.633	13525
924.741	14362
924.849	13308
924.956	13445
925.064	13301
925.172	13225
925.279	13377
925.387	13263
925.494	13251
925.602	13350
925.709	13209
925.816	13156
925.924	13263
926.031	13213
926.138	13145
926.245	13259
926.352	13019
926.459	13194
926.566	13293
926.673	13050
926.779	13008
926.886	12943
926.993	12837
927.099	12817
927.206	12833
927.312	12844
927.419	12848
927.525	12795
927.631	12905
927.737	12745
927.843	12658
927.95	12566
928.056	12616
928.162	12521
928.267	12726
928.373	13225
928.479	12692
928.585	12483
928.69	12623
928.796	12658
928.901	12498
929.007	12365
929.112	12506
929.218	12418
929.323	12361
929.428	12292
929.533	12467
929.638	12296
929.743	12372
929.848	12353
929.953	12262
930.058	12140
930.163	11942
930.267	12083
930.372	12175
930.477	11961
930.581	12247
930.685	12041
930.79	11988
930.894	11973
930.998	11965
931.103	12064
931.207	11714
931.311	11558
931.415	11459
931.519	11330
931.623	11337
