Data from test_V78500241_1686.txt Node
Date: Fri Mar 25 15:21:35 CST 2022
User: usil
Spectrometer: V785-0024
Trigger mode: 0
Integration Time (sec): 4.000000E-1
Scans to average: 1
Nonlinearity correction enabled: false
Boxcar width: 0
Storing dark spectrum: false
XAxis mode: Wavelengths
Number of Pixels in Spectrum: 1024
>>>>>Begin Spectral Data<<<<<
801.071	27953
801.214	28055
801.356	27808
801.499	27644
801.641	27523
801.783	27526
801.926	27549
802.068	27583
802.211	27526
802.353	27329
802.496	27310
802.638	27169
802.78	27154
802.923	27146
803.065	27161
803.208	27237
803.35	27241
803.492	27279
803.635	27412
803.777	27173
803.919	27439
804.061	27599
804.204	27557
804.346	27427
804.488	27344
804.63	27504
804.773	27359
804.915	27466
805.057	27450
805.199	27485
805.341	27504
805.483	27568
805.626	27538
805.768	27595
805.91	27587
806.052	27656
806.194	27568
806.336	27873
806.478	27564
806.62	27538
806.762	27766
806.904	27686
807.046	28131
807.188	27979
807.33	28078
807.472	27911
807.614	27823
807.756	28173
807.898	27835
808.04	27762
808.182	27899
808.324	27842
808.465	27831
808.607	28173
808.749	28329
808.891	28154
809.033	28322
809.174	28238
809.316	28147
809.458	28207
809.6	28246
809.741	28348
809.883	28428
810.025	28527
810.166	28485
810.308	28485
810.45	28466
810.591	28432
810.733	28337
810.875	28257
811.016	28120
811.158	28185
811.299	28196
811.441	28325
811.582	28329
811.724	28276
811.865	28291
812.007	28333
812.148	28306
812.29	28333
812.431	28481
812.573	28615
812.714	28565
812.855	28675
812.997	28752
813.138	28961
813.279	28957
813.421	28797
813.562	28778
813.703	28531
813.845	28413
813.986	28234
814.127	27994
814.268	27934
814.41	27991
814.551	27964
814.692	27975
814.833	27979
814.974	27994
815.115	27941
815.256	27816
815.397	27660
815.539	27850
815.68	27781
815.821	27675
815.962	27800
816.103	27675
816.244	27595
816.385	27526
816.526	27507
816.666	27279
816.807	27146
816.948	27351
817.089	27150
817.23	27310
817.371	27199
817.512	27283
817.653	27211
817.793	27169
817.934	27176
818.075	27180
818.216	27184
818.356	27207
818.497	26982
818.638	26811
818.778	26929
818.919	27036
819.06	27096
819.2	27104
819.341	27222
819.481	27154
819.622	27405
819.762	27538
819.903	27591
820.043	27393
820.184	27397
820.324	27367
820.465	27427
820.605	27272
820.746	27272
820.886	27389
821.026	27214
821.167	27233
821.307	27439
821.447	27184
821.588	27176
821.728	26963
821.868	26887
822.008	26689
822.149	26583
822.289	26758
822.429	26400
822.569	26511
822.709	26320
822.849	26233
822.99	26233
823.13	26050
823.27	26100
823.41	25978
823.55	25917
823.69	26027
823.83	26084
823.97	25917
824.11	25780
824.25	25826
824.389	25887
824.529	25982
824.669	25837
824.809	26050
824.949	25944
825.089	26001
825.228	25814
825.368	25666
825.508	25693
825.648	25708
825.787	25788
825.927	25837
826.067	25715
826.206	25613
826.346	25799
826.485	25776
826.625	25632
826.765	25883
826.904	25731
827.044	25457
827.183	25479
827.323	25460
827.462	25472
827.601	25388
827.741	25430
827.88	25476
828.02	25388
828.159	25407
828.298	25396
828.437	25499
828.577	25415
828.716	25556
828.855	25343
828.994	25251
829.134	25225
829.273	25217
829.412	25099
829.551	24989
829.69	25148
829.829	25126
829.968	25251
830.107	25148
830.246	25137
830.385	25080
830.524	24985
830.663	25042
830.802	25012
830.941	24658
831.08	24688
831.219	24897
831.357	24760
831.496	24958
831.635	24764
831.774	24627
831.913	24696
832.051	24673
832.19	24570
832.329	24445
832.467	24525
832.606	24403
832.744	24479
832.883	24410
833.022	24372
833.16	24323
833.299	24490
833.437	24490
833.576	24563
833.714	24589
833.852	24582
833.991	24585
834.129	24696
834.267	24528
834.406	24418
834.544	24502
834.682	24429
834.821	24323
834.959	24563
835.097	24403
835.235	24555
835.373	24353
835.511	24502
835.65	24304
835.788	24422
835.926	24228
836.064	24213
836.202	24224
836.34	24376
836.478	24422
836.615	24391
836.753	24334
836.891	24570
837.029	24410
837.167	24292
837.305	24174
837.443	24247
837.58	24205
837.718	24232
837.856	24201
837.993	24060
838.131	24258
838.269	23901
838.406	24087
838.544	23916
838.681	23745
838.819	23798
838.956	23596
839.094	23554
839.231	23722
839.369	23813
839.506	24076
839.643	23912
839.781	23630
839.918	23604
840.055	23619
840.193	23608
840.33	23581
840.467	23474
840.604	23596
840.742	23935
840.879	23421
841.016	23391
841.153	23383
841.29	23619
841.427	23448
841.564	23619
841.701	23463
841.838	23471
841.975	23566
842.112	23459
842.249	23486
842.385	23315
842.522	23509
842.659	23372
842.796	23429
842.933	23364
843.069	23140
843.206	23288
843.343	23410
843.479	23436
843.616	23311
843.752	23185
843.889	23109
844.025	23178
844.162	23094
844.298	23197
844.435	23128
844.571	22976
844.708	23140
844.844	23223
844.98	23273
845.117	23098
845.253	23113
845.389	22923
845.525	23018
845.661	22976
845.798	22866
845.934	22828
846.07	22752
846.206	22934
846.342	22904
846.478	22850
846.614	22599
846.75	22557
846.886	22413
847.022	22626
847.158	22546
847.294	22508
847.429	22618
847.565	22516
847.701	22755
847.837	22341
847.972	22306
848.108	22405
848.244	22382
848.379	22219
848.515	22177
848.65	22158
848.786	22242
848.921	22112
849.057	22150
849.192	22128
849.328	22242
849.463	22128
849.598	22177
849.734	22067
849.869	22025
850.004	21953
850.14	21983
850.275	21926
850.41	22002
850.545	21747
850.68	21846
850.815	21964
850.95	21983
851.085	22082
851.22	21850
851.355	21850
851.49	21804
851.625	21865
851.76	21892
851.895	21698
852.03	21816
852.165	21934
852.299	21998
852.434	21998
852.569	21922
852.703	21930
852.838	21998
852.973	22086
853.107	22067
853.242	21861
853.376	21694
853.511	21644
853.645	21625
853.78	21808
853.914	21724
854.048	21637
854.183	21720
854.317	21656
854.451	21857
854.585	21671
854.72	21812
854.854	21724
854.988	21587
855.122	21713
855.256	21622
855.39	21709
855.524	21698
855.658	21888
855.792	21785
855.926	21701
856.06	21717
856.194	21766
856.327	21629
856.461	21694
856.595	21606
856.729	21682
856.862	21816
856.996	21682
857.13	21747
857.263	21747
857.397	21850
857.53	21747
857.664	21701
857.797	21781
857.931	21903
858.064	21747
858.197	21850
858.331	21610
858.464	21553
858.597	21610
858.731	21686
858.864	21656
858.997	21618
859.13	21652
859.263	21759
859.396	21743
859.529	21610
859.662	21766
859.795	21690
859.928	21804
860.061	21941
860.194	21827
860.327	21747
860.46	21800
860.592	21831
860.725	21873
860.858	21728
860.99	21743
861.123	21682
861.256	21667
861.388	21743
861.521	22310
861.653	21625
861.786	21492
861.918	21614
862.05	21549
862.183	21572
862.315	21603
862.447	21675
862.58	21580
862.712	21443
862.844	21355
862.976	21431
863.108	21439
863.24	21831
863.372	21332
863.504	21420
863.636	21393
863.768	21450
863.9	21469
864.032	21443
864.164	21348
864.296	21439
864.428	21545
864.559	21485
864.691	21412
864.823	21477
864.954	21443
865.086	21321
865.217	21367
865.349	21211
865.48	21256
865.612	21374
865.743	21336
865.875	21279
866.006	21252
866.137	21287
866.269	21245
866.4	21249
866.531	21150
866.662	21237
866.793	21211
866.924	21310
867.055	21291
867.186	21173
867.317	21214
867.448	21169
867.579	21237
867.71	21123
867.841	21241
867.972	21192
868.103	21203
868.233	21275
868.364	21256
868.495	21275
868.625	21363
868.756	21492
868.886	21469
869.017	21420
869.147	21500
869.278	21568
869.408	21431
869.539	21515
869.669	21633
869.799	21435
869.929	21561
870.06	21660
870.19	21770
870.32	21690
870.45	21850
870.58	21907
870.71	21876
870.84	21899
870.97	21873
871.1	21812
871.23	22128
871.36	22055
871.489	21987
871.619	22006
871.749	22135
871.879	22101
872.008	22215
872.138	22143
872.267	22070
872.397	21838
872.526	21899
872.656	21876
872.785	21926
872.915	22055
873.044	22169
873.173	22059
873.303	22158
873.432	22128
873.561	22219
873.69	22139
873.819	21922
873.948	22120
874.077	22177
874.206	21987
874.335	22017
874.464	22257
874.593	22318
874.722	22188
874.851	22295
874.979	22287
875.108	22333
875.237	22287
875.365	22173
875.494	22306
875.623	22333
875.751	22310
875.88	22310
876.008	22398
876.136	22455
876.265	22793
876.393	22653
876.521	22782
876.65	22843
876.778	22771
876.906	22740
877.034	22615
877.162	22599
877.29	22599
877.418	22637
877.546	22744
877.674	22713
877.802	22691
877.93	22736
878.058	22588
878.185	22432
878.313	22672
878.441	22641
878.568	22504
878.696	22584
878.824	22637
878.951	22611
879.079	22820
879.206	22946
879.333	22824
879.461	22694
879.588	22725
879.715	22725
879.842	22923
879.97	22588
880.097	22554
880.224	22557
880.351	22451
880.478	22424
880.605	22474
880.732	22390
880.859	22702
880.986	22500
881.112	22459
881.239	22310
881.366	22223
881.493	22101
881.619	21968
881.746	22097
881.872	22105
881.999	21987
882.125	22063
882.252	22002
882.378	22036
882.505	22230
882.631	21854
882.757	21736
882.883	21766
883.01	21808
883.136	21644
883.262	21538
883.388	21534
883.514	21800
883.64	21865
883.766	21599
883.892	21458
884.018	21553
884.143	21564
884.269	21819
884.395	21477
884.52	21393
884.646	21374
884.772	21359
884.897	21317
885.023	21378
885.148	21420
885.274	21553
885.399	21500
885.524	21428
885.65	21332
885.775	21397
885.9	21374
886.025	21450
886.15	21466
886.275	21291
886.4	21264
886.525	21348
886.65	21241
886.775	21321
886.9	21382
887.025	21561
887.149	21370
887.274	21252
887.399	21142
887.523	21096
887.648	21001
887.773	21062
887.897	21146
888.021	21108
888.146	21051
888.27	21207
888.395	21279
888.519	21096
888.643	21233
888.767	21074
888.891	21024
889.015	20967
889.139	21036
889.263	20830
889.387	21020
889.511	21173
889.635	21005
889.759	20880
889.883	20994
890.006	20838
890.13	20956
890.254	20845
890.377	20880
890.501	20552
890.624	20621
890.748	20655
890.871	20602
890.995	20484
891.118	20461
891.241	20522
891.364	20564
891.488	20606
891.611	20533
891.734	20503
891.857	20598
891.98	20503
892.103	20503
892.226	20511
892.349	20332
892.471	20343
892.594	20389
892.717	20366
892.839	20507
892.962	20419
893.085	20313
893.207	20400
893.33	20229
893.452	20362
893.575	20434
893.697	20389
893.819	20495
893.941	20552
894.064	20442
894.186	20320
894.308	20290
894.43	20385
894.552	20518
894.674	20290
894.796	20218
894.918	20324
895.04	20263
895.161	20480
895.283	20431
895.405	20351
895.526	20362
895.648	20317
895.769	20263
895.891	20427
896.012	20442
896.134	20488
896.255	20450
896.376	20377
896.498	20275
896.619	20358
896.74	20396
896.861	20461
896.982	20712
897.103	20826
897.224	20609
897.345	20522
897.466	20514
897.587	20625
897.708	20712
897.828	20625
897.949	20575
898.07	20454
898.19	20419
898.311	20613
898.431	20514
898.552	20598
898.672	20648
898.792	20731
898.913	20564
899.033	20571
899.153	20351
899.273	20370
899.393	20298
899.513	20393
899.633	20438
899.753	20396
899.873	20259
899.993	20415
900.113	20248
900.232	20233
900.352	20278
900.472	20130
900.591	20043
900.711	20142
900.83	20142
900.95	20206
901.069	20244
901.189	19932
901.308	19875
901.427	19575
901.546	19738
901.665	19658
901.784	19693
901.904	19476
902.023	19483
902.141	19221
902.26	19278
902.379	19320
902.498	19206
902.617	19103
902.735	19198
902.854	19133
902.973	19175
903.091	18852
903.21	18863
903.328	18844
903.446	18711
903.565	18665
903.683	18726
903.801	18486
903.919	18582
904.038	18658
904.156	18521
904.274	18536
904.392	18452
904.51	18437
904.627	18285
904.745	18494
904.863	18399
904.981	18258
905.098	18102
905.216	18106
905.334	18072
905.451	18095
905.569	18076
905.686	18030
905.803	18045
905.921	17920
906.038	17980
906.155	17863
906.272	17790
906.389	17824
906.506	17611
906.623	17767
906.74	17745
906.857	17497
906.974	17543
907.091	17695
907.208	17714
907.324	17615
907.441	17589
907.557	17288
907.674	17341
907.79	17269
907.907	17353
908.023	17334
908.139	17433
908.256	17250
908.372	17208
908.488	17166
908.604	17060
908.72	17064
908.836	17029
908.952	17124
909.068	17025
909.184	17083
909.3	17033
909.415	16930
909.531	17079
909.647	16740
909.762	16816
909.878	16866
909.993	16847
910.108	16771
910.224	16797
910.339	16664
910.454	16706
910.57	16611
910.685	16421
910.8	16850
910.915	16873
911.03	16447
911.145	16421
911.259	16371
911.374	16417
911.489	16299
911.604	16204
911.718	16010
911.833	16040
911.947	16067
912.062	15895
912.176	16051
912.291	16032
912.405	16105
912.519	16390
912.633	16268
912.748	16162
912.862	16112
912.976	15873
913.09	15838
913.204	15892
913.318	15903
913.431	16044
913.545	15968
913.659	16086
913.772	15869
913.886	15720
914	15720
914.113	15835
914.226	15797
914.34	15778
914.453	15557
914.566	15778
914.68	15622
914.793	15507
914.906	15370
915.019	15348
915.132	15256
915.245	15260
915.358	15203
915.47	15268
915.583	15329
915.696	15374
915.809	15439
915.921	15462
916.034	15199
916.146	15214
916.259	15226
916.371	15260
916.483	15199
916.595	15203
916.708	15058
916.82	15199
916.932	15039
917.044	15036
917.156	14982
917.268	15024
917.38	14914
917.491	14925
917.603	14982
917.715	15024
917.826	15127
917.938	14880
918.049	14762
918.161	14895
918.272	14986
918.384	15097
918.495	14819
918.606	14826
918.717	14648
918.828	14724
918.939	14804
919.05	14606
919.161	14701
919.272	14511
919.383	14537
919.494	14655
919.604	14921
919.715	14746
919.826	14526
919.936	14571
920.047	14746
920.157	14636
920.267	14804
920.378	14629
920.488	14583
920.598	14705
920.708	14910
920.818	14762
920.928	14785
921.038	14906
921.148	14861
921.258	14663
921.368	14469
921.477	14526
921.587	14343
921.697	14195
921.806	14396
921.916	14237
922.025	14138
922.134	14031
922.244	13974
922.353	14050
922.462	13856
922.571	13864
922.68	13795
922.789	13658
922.898	13666
923.007	13643
923.116	13727
923.224	13624
923.333	13647
923.442	13594
923.55	13563
923.659	13518
923.767	13559
923.876	13510
923.984	13495
924.092	13346
924.201	13544
924.309	13434
924.417	13441
924.525	13331
924.633	13381
924.741	14157
924.849	13198
924.956	13274
925.064	13152
925.172	13004
925.279	13057
925.387	13118
925.494	13149
925.602	13198
925.709	13175
925.816	12928
925.924	12958
926.031	13187
926.138	13053
926.245	13019
926.352	12829
926.459	13088
926.566	13137
926.673	13031
926.779	12840
926.886	12776
926.993	12642
927.099	12703
927.206	12570
927.312	12582
927.419	12726
927.525	12578
927.631	12589
927.737	12513
927.843	12399
927.95	12285
928.056	12441
928.162	12559
928.267	12578
928.373	13015
928.479	12623
928.585	12330
928.69	12407
928.796	12456
928.901	12323
929.007	12175
929.112	12285
929.218	12270
929.323	12239
929.428	12262
929.533	12369
929.638	12197
929.743	12197
929.848	12228
929.953	12072
930.058	12072
930.163	11783
930.267	11893
930.372	11980
930.477	11836
930.581	12030
930.685	12007
930.79	11794
930.894	11809
930.998	11661
931.103	11794
931.207	11497
931.311	11368
931.415	11307
931.519	11166
931.623	11143
