Data from test_V78500241_2476.txt Node
Date: Fri Mar 25 15:27:05 CST 2022
User: usil
Spectrometer: V785-0024
Trigger mode: 0
Integration Time (sec): 4.000000E-1
Scans to average: 1
Nonlinearity correction enabled: false
Boxcar width: 0
Storing dark spectrum: false
XAxis mode: Wavelengths
Number of Pixels in Spectrum: 1024
>>>>>Begin Spectral Data<<<<<
801.071	27317
801.214	27119
801.356	26994
801.499	26883
801.641	26773
801.783	26739
801.926	26815
802.068	26640
802.211	26697
802.353	26602
802.496	26473
802.638	26442
802.78	26484
802.923	26199
803.065	26214
803.208	26412
803.35	26374
803.492	26465
803.635	26594
803.777	26412
803.919	26587
804.061	26864
804.204	26480
804.346	26507
804.488	26438
804.63	26678
804.773	26408
804.915	26514
805.057	26541
805.199	26415
805.341	26602
805.483	26613
805.626	26568
805.768	26419
805.91	26606
806.052	26632
806.194	26507
806.336	26724
806.478	26541
806.62	26602
806.762	26750
806.904	26990
807.046	27135
807.188	26960
807.33	27055
807.472	27020
807.614	26967
807.756	26937
807.898	26849
808.04	26883
808.182	26929
808.324	26872
808.465	26781
808.607	27039
808.749	27291
808.891	27370
809.033	27393
809.174	27203
809.316	27180
809.458	27096
809.6	27138
809.741	27378
809.883	27302
810.025	27507
810.166	27553
810.308	27443
810.45	27389
810.591	27466
810.733	27173
810.875	27138
811.016	27135
811.158	27123
811.299	27268
811.441	27351
811.582	27435
811.724	27283
811.865	27112
812.007	27032
812.148	27142
812.29	27169
812.431	27283
812.573	27496
812.714	27458
812.855	27739
812.997	27785
813.138	27903
813.279	27728
813.421	27682
813.562	27538
813.703	27469
813.845	27230
813.986	27036
814.127	26906
814.268	26891
814.41	26899
814.551	26697
814.692	26804
814.833	26773
814.974	26807
815.115	26845
815.256	26743
815.397	26758
815.539	26712
815.68	26575
815.821	26560
815.962	26549
816.103	26568
816.244	26434
816.385	26404
816.526	26336
816.666	26164
816.807	26039
816.948	26145
817.089	26248
817.23	26161
817.371	26062
817.512	26202
817.653	26149
817.793	26054
817.934	26054
818.075	26149
818.216	26092
818.356	26005
818.497	25925
818.638	25883
818.778	25696
818.919	25966
819.06	25917
819.2	25955
819.341	26058
819.481	26043
819.622	26256
819.762	26484
819.903	26328
820.043	26244
820.184	26256
820.324	26142
820.465	26142
820.605	26157
820.746	26149
820.886	26062
821.026	26187
821.167	26157
821.307	26229
821.447	26172
821.588	25944
821.728	25902
821.868	25704
822.008	25552
822.149	25662
822.289	25601
822.429	25358
822.569	25339
822.709	25343
822.849	25156
822.99	24985
823.13	25091
823.27	25065
823.41	24966
823.55	24764
823.69	24951
823.83	24844
823.97	24764
824.11	24783
824.25	24555
824.389	24589
824.529	24722
824.669	24703
824.809	24745
824.949	24726
825.089	24722
825.228	24749
825.368	24540
825.508	24521
825.648	24627
825.787	24620
825.927	24612
826.067	24601
826.206	24585
826.346	24639
826.485	24677
826.625	24498
826.765	24639
826.904	24460
827.044	24315
827.183	24330
827.323	24148
827.462	24365
827.601	24338
827.741	24163
827.88	24209
828.02	24174
828.159	24083
828.298	24285
828.437	24258
828.577	24228
828.716	24239
828.855	24148
828.994	23931
829.134	23973
829.273	24091
829.412	23958
829.551	23828
829.69	23980
829.829	24098
829.968	24102
830.107	24007
830.246	24045
830.385	23836
830.524	23870
830.663	23802
830.802	23722
830.941	23562
831.08	23528
831.219	23623
831.357	23687
831.496	23786
831.635	23604
831.774	23512
831.913	23524
832.051	23402
832.19	23318
832.329	23372
832.467	23387
832.606	23220
832.744	23387
832.883	23292
833.022	23242
833.16	23216
833.299	23398
833.437	23417
833.576	23398
833.714	23387
833.852	23410
833.991	23372
834.129	23383
834.267	23376
834.406	23398
834.544	23376
834.682	23292
834.821	23372
834.959	23444
835.097	23406
835.235	23410
835.373	23269
835.511	23284
835.65	23102
835.788	23220
835.926	23064
836.064	22953
836.202	22968
836.34	23288
836.478	23246
836.615	23170
836.753	23208
836.891	23227
837.029	23299
837.167	23231
837.305	23060
837.443	22961
837.58	23098
837.718	23094
837.856	23014
837.993	23037
838.131	22911
838.269	22980
838.406	23037
838.544	22908
838.681	22668
838.819	22615
838.956	22588
839.094	22481
839.231	22573
839.369	22736
839.506	22858
839.643	22927
839.781	22436
839.918	22413
840.055	22554
840.193	22428
840.33	22428
840.467	22451
840.604	22557
840.742	22854
840.879	22508
841.016	22451
841.153	22382
841.29	22519
841.427	22363
841.564	22432
841.701	22409
841.838	22432
841.975	22432
842.112	22455
842.249	22466
842.385	22436
842.522	22615
842.659	22447
842.796	22257
842.933	22215
843.069	22215
843.206	22097
843.343	22238
843.479	22154
843.616	22196
843.752	22158
843.889	22013
844.025	22211
844.162	21941
844.298	22082
844.435	21831
844.571	21934
844.708	21994
844.844	22059
844.98	22128
845.117	22101
845.253	21884
845.389	21915
845.525	21972
845.661	21899
845.798	21694
845.934	21819
846.07	21622
846.206	21663
846.342	21816
846.478	21644
846.614	21549
846.75	21412
846.886	21306
847.022	21549
847.158	21515
847.294	21416
847.429	21511
847.565	21401
847.701	21789
847.837	21252
847.972	21123
848.108	21306
848.244	21195
848.379	21055
848.515	21096
848.65	21138
848.786	20937
848.921	21062
849.057	21184
849.192	21070
849.328	21161
849.463	21096
849.598	20944
849.734	20990
849.869	20811
850.004	20830
850.14	20864
850.275	20769
850.41	20667
850.545	20815
850.68	20785
850.815	20807
850.95	20807
851.085	20956
851.22	20864
851.355	20872
851.49	20834
851.625	20823
851.76	20781
851.895	20792
852.03	20830
852.165	20830
852.299	20826
852.434	21058
852.569	20895
852.703	20796
852.838	20910
852.973	20880
853.107	20895
853.242	20648
853.376	20644
853.511	20606
853.645	20689
853.78	20663
853.914	20625
854.048	20598
854.183	20708
854.317	20587
854.451	20868
854.585	20583
854.72	20564
854.854	20682
854.988	20629
855.122	20667
855.256	20594
855.39	20606
855.524	20670
855.658	20667
855.792	20636
855.926	20571
856.06	20754
856.194	20777
856.327	20655
856.461	20632
856.595	20568
856.729	20663
856.862	20727
856.996	20583
857.13	20606
857.263	20606
857.397	20739
857.53	20640
857.664	20682
857.797	20686
857.931	20777
858.064	20560
858.197	20830
858.331	20731
858.464	20636
858.597	20571
858.731	20670
858.864	20530
858.997	20579
859.13	20632
859.263	20659
859.396	20746
859.529	20522
859.662	20617
859.795	20533
859.928	20724
860.061	20788
860.194	20781
860.327	20769
860.46	20727
860.592	20872
860.725	20727
860.858	20788
860.99	20640
861.123	20598
861.256	20648
861.388	20594
861.521	21233
861.653	20583
861.786	20442
861.918	20389
862.05	20583
862.183	20613
862.315	20598
862.447	20697
862.58	20556
862.712	20305
862.844	20244
862.976	20412
863.108	20377
863.24	20853
863.372	20259
863.504	20366
863.636	20358
863.768	20412
863.9	20336
864.032	20301
864.164	20355
864.296	20202
864.428	20507
864.559	20484
864.691	20400
864.823	20396
864.954	20366
865.086	20351
865.217	20339
865.349	20100
865.48	20271
865.612	20339
865.743	20427
865.875	20355
866.006	20191
866.137	20237
866.269	20351
866.4	20218
866.531	20240
866.662	20092
866.793	20195
866.924	20168
867.055	20149
867.186	20370
867.317	20092
867.448	20134
867.579	20195
867.71	20183
867.841	20187
867.972	20214
868.103	20111
868.233	20301
868.364	20275
868.495	20256
868.625	20427
868.756	20533
868.886	20298
869.017	20461
869.147	20476
869.278	20651
869.408	20514
869.539	20454
869.669	20571
869.799	20492
869.929	20556
870.06	20571
870.19	20781
870.32	20746
870.45	20785
870.58	20853
870.71	20918
870.84	20864
870.97	20864
871.1	20963
871.23	21005
871.36	21013
871.489	21009
871.619	21108
871.749	20998
871.879	21119
872.008	21195
872.138	21199
872.267	21104
872.397	20963
872.526	20887
872.656	20880
872.785	20952
872.915	21058
873.044	21123
873.173	21093
873.303	21104
873.432	21127
873.561	21157
873.69	21051
873.819	21017
873.948	21237
874.077	21093
874.206	21039
874.335	21032
874.464	21108
874.593	21310
874.722	21245
874.851	21450
874.979	21317
875.108	21416
875.237	21157
875.365	21207
875.494	21336
875.623	21386
875.751	21287
875.88	21325
876.008	21454
876.136	21405
876.265	21812
876.393	21831
876.521	21759
876.65	21812
876.778	21743
876.906	21679
877.034	21667
877.162	21778
877.29	21557
877.418	21595
877.546	21667
877.674	21610
877.802	21572
877.93	21606
878.058	21686
878.185	21561
878.313	21656
878.441	21656
878.568	21500
878.696	21542
878.824	21568
878.951	21751
879.079	21876
879.206	22021
879.333	21854
879.461	21720
879.588	21812
879.715	21808
879.842	21717
879.97	21755
880.097	21504
880.224	21458
880.351	21614
880.478	21557
880.605	21500
880.732	21466
880.859	21728
880.986	21583
881.112	21500
881.239	21249
881.366	21180
881.493	21161
881.619	21062
881.746	21184
881.872	21028
881.999	21104
882.125	21032
882.252	21127
882.378	21005
882.505	21150
882.631	20876
882.757	20708
882.883	20785
883.01	20743
883.136	20769
883.262	20655
883.388	20689
883.514	20754
883.64	20807
883.766	20739
883.892	20514
884.018	20541
884.143	20670
884.269	20861
884.395	20587
884.52	20370
884.646	20389
884.772	20389
884.897	20431
885.023	20454
885.148	20537
885.274	20602
885.399	20503
885.524	20438
885.65	20427
885.775	20431
885.9	20374
886.025	20545
886.15	20454
886.275	20290
886.4	20271
886.525	20393
886.65	20347
886.775	20309
886.9	20526
887.025	20644
887.149	20336
887.274	20366
887.399	20187
887.523	20168
887.648	20183
887.773	20157
887.897	20157
888.021	20225
888.146	20252
888.27	20263
888.395	20210
888.519	20100
888.643	20195
888.767	20233
888.891	20073
889.015	19959
889.139	20069
889.263	20107
889.387	20054
889.511	20244
889.635	20111
889.759	20016
889.883	19921
890.006	19993
890.13	20008
890.254	19921
890.377	20050
890.501	19791
890.624	19822
890.748	19860
890.871	19791
890.995	19571
891.118	19521
891.241	19605
891.364	19613
891.488	19727
891.611	19613
891.734	19632
891.857	19567
891.98	19677
892.103	19742
892.226	19628
892.349	19537
892.471	19476
892.594	19544
892.717	19594
892.839	19521
892.962	19540
893.085	19609
893.207	19544
893.33	19422
893.452	19373
893.575	19518
893.697	19441
893.819	19628
893.941	19628
894.064	19715
894.186	19460
894.308	19510
894.43	19540
894.552	19624
894.674	19620
894.796	19396
894.918	19373
895.04	19415
895.161	19590
895.283	19575
895.405	19453
895.526	19468
895.648	19476
895.769	19514
895.891	19556
896.012	19533
896.134	19594
896.255	19514
896.376	19468
896.498	19578
896.619	19518
896.74	19533
896.861	19624
896.982	19795
897.103	19967
897.224	19700
897.345	19776
897.466	19635
897.587	19639
897.708	19913
897.828	19681
897.949	19681
898.07	19540
898.19	19704
898.311	19776
898.431	19826
898.552	19674
898.672	19818
898.792	19879
898.913	19788
899.033	19719
899.153	19594
899.273	19544
899.393	19445
899.513	19575
899.633	19567
899.753	19464
899.873	19476
899.993	19434
900.113	19453
900.232	19537
900.352	19468
900.472	19251
900.591	19221
900.711	19301
900.83	19240
900.95	19373
901.069	19449
901.189	19175
901.308	18996
901.427	18901
901.546	18848
901.665	19027
901.784	18878
901.904	18726
902.023	18661
902.141	18380
902.26	18483
902.379	18536
902.498	18407
902.617	18376
902.735	18559
902.854	18388
902.973	18254
903.091	18053
903.21	18060
903.328	18095
903.446	18064
903.565	17855
903.683	17821
903.801	17703
903.919	17874
904.038	17824
904.156	17611
904.274	17790
904.392	17642
904.51	17699
904.627	17695
904.745	17767
904.863	17604
904.981	17425
905.098	17311
905.216	17341
905.334	17421
905.451	17334
905.569	17280
905.686	17376
905.803	17311
905.921	17056
906.038	17246
906.155	17128
906.272	17025
906.389	16999
906.506	16957
906.623	16889
906.74	16869
906.857	16729
906.974	16797
907.091	16991
907.208	17025
907.324	16847
907.441	16721
907.557	16721
907.674	16573
907.79	16527
907.907	16592
908.023	16535
908.139	16656
908.256	16554
908.372	16409
908.488	16344
908.604	16341
908.72	16261
908.836	16367
908.952	16242
909.068	16337
909.184	16462
909.3	16272
909.415	16287
909.531	16299
909.647	16086
909.762	16029
909.878	16090
909.993	16036
910.108	16032
910.224	16055
910.339	15994
910.454	15838
910.57	15865
910.685	15789
910.8	16090
910.915	15945
911.03	15922
911.145	15679
911.259	15492
911.374	15599
911.489	15523
911.604	15477
911.718	15428
911.833	15462
911.947	15321
912.062	15321
912.176	15488
912.291	15473
912.405	15416
912.519	15667
912.633	15622
912.748	15420
912.862	15393
912.976	15199
913.09	15150
913.204	15150
913.318	15222
913.431	15272
913.545	15298
913.659	15302
913.772	15127
913.886	15100
914	15020
914.113	15161
914.226	15154
914.34	15089
914.453	14925
914.566	15062
914.68	14857
914.793	14864
914.906	14708
915.019	14678
915.132	14617
915.245	14610
915.358	14632
915.47	14629
915.583	14610
915.696	14613
915.809	14773
915.921	14800
916.034	14552
916.146	14427
916.259	14530
916.371	14583
916.483	14602
916.595	14457
916.708	14461
916.82	14511
916.932	14514
917.044	14415
917.156	14320
917.268	14286
917.38	14214
917.491	14271
917.603	14256
917.715	14377
917.826	14507
917.938	14301
918.049	14199
918.161	14275
918.272	14393
918.384	14393
918.495	14298
918.606	14054
918.717	13944
918.828	14088
918.939	14164
919.05	14035
919.161	14065
919.272	13913
919.383	13906
919.494	14084
919.604	14229
919.715	14008
919.826	13932
919.936	14039
920.047	14164
920.157	14050
920.267	14199
920.378	14020
920.488	13947
920.598	14168
920.708	14278
920.818	14142
920.928	14138
921.038	14381
921.148	14298
921.258	14001
921.368	13871
921.477	13837
921.587	13780
921.697	13616
921.806	13814
921.916	13712
922.025	13480
922.134	13483
922.244	13430
922.353	13343
922.462	13453
922.571	13354
922.68	13126
922.789	13122
922.898	13053
923.007	13110
923.116	13050
923.224	13110
923.333	13042
923.442	13023
923.55	12817
923.659	12935
923.767	12943
923.876	12897
923.984	13023
924.092	12840
924.201	12875
924.309	12958
924.417	12798
924.525	12783
924.633	12844
924.741	13742
924.849	12448
924.956	12692
925.064	12612
925.172	12410
925.279	12559
925.387	12601
925.494	12483
925.602	12665
925.709	12574
925.816	12426
925.924	12445
926.031	12513
926.138	12486
926.245	12540
926.352	12365
926.459	12494
926.566	12646
926.673	12365
926.779	12235
926.886	12292
926.993	12171
927.099	12133
927.206	12140
927.312	12091
927.419	12098
927.525	12144
927.631	12125
927.737	11992
927.843	11939
927.95	11901
928.056	11958
928.162	11977
928.267	11973
928.373	12555
928.479	11973
928.585	11828
928.69	11878
928.796	11920
928.901	11798
929.007	11718
929.112	11771
929.218	11699
929.323	11634
929.428	11672
929.533	11718
929.638	11558
929.743	11642
929.848	11680
929.953	11630
930.058	11554
930.163	11376
930.267	11353
930.372	11535
930.477	11311
930.581	11539
930.685	11429
930.79	11235
930.894	11242
930.998	11166
931.103	11356
931.207	10972
931.311	10949
931.415	10831
931.519	10660
931.623	10691
