Data from test_V78500241_101.txt Node
Date: Fri Mar 25 15:10:33 CST 2022
User: usil
Spectrometer: V785-0024
Trigger mode: 0
Integration Time (sec): 4.000000E-1
Scans to average: 1
Nonlinearity correction enabled: false
Boxcar width: 0
Storing dark spectrum: false
XAxis mode: Wavelengths
Number of Pixels in Spectrum: 1024
>>>>>Begin Spectral Data<<<<<
801.071	28185
801.214	28162
801.356	28067
801.499	27895
801.641	27831
801.783	27838
801.926	27713
802.068	27793
802.211	27751
802.353	27713
802.496	27389
802.638	27447
802.78	27344
802.923	27272
803.065	27313
803.208	27317
803.35	27496
803.492	27496
803.635	27507
803.777	27397
803.919	27466
804.061	27804
804.204	27454
804.346	27458
804.488	27325
804.63	27458
804.773	27355
804.915	27519
805.057	27477
805.199	27416
805.341	27488
805.483	27660
805.626	27492
805.768	27252
805.91	27424
806.052	27610
806.194	27363
806.336	27652
806.478	27473
806.62	27530
806.762	27576
806.904	27736
807.046	27914
807.188	27854
807.33	27941
807.472	27934
807.614	27835
807.756	27823
807.898	27553
808.04	27599
808.182	27732
808.324	27728
808.465	27682
808.607	27873
808.749	28029
808.891	28078
809.033	28226
809.174	28029
809.316	27964
809.458	27983
809.6	27880
809.741	28082
809.883	28067
810.025	28135
810.166	28128
810.308	28109
810.45	28192
810.591	28078
810.733	27869
810.875	27949
811.016	27831
811.158	27819
811.299	28002
811.441	27991
811.582	28051
811.724	27930
811.865	27850
812.007	27979
812.148	27930
812.29	27964
812.431	28101
812.573	28310
812.714	28428
812.855	28382
812.997	28538
813.138	28603
813.279	28588
813.421	28470
813.562	28508
813.703	28223
813.845	28105
813.986	27922
814.127	27804
814.268	27641
814.41	27549
814.551	27587
814.692	27622
814.833	27545
814.974	27610
815.115	27587
815.256	27336
815.397	27397
815.539	27317
815.68	27142
815.821	27226
815.962	27294
816.103	27298
816.244	27176
816.385	27077
816.526	27051
816.666	26849
816.807	26651
816.948	26853
817.089	26826
817.23	26788
817.371	26720
817.512	26644
817.653	26716
817.793	26621
817.934	26648
818.075	26743
818.216	26587
818.356	26651
818.497	26590
818.638	26377
818.778	26453
818.919	26362
819.06	26480
819.2	26545
819.341	26473
819.481	26404
819.622	26849
819.762	26967
819.903	26861
820.043	26765
820.184	26708
820.324	26739
820.465	26743
820.605	26758
820.746	26609
820.886	26469
821.026	26693
821.167	26663
821.307	26754
821.447	26670
821.588	26552
821.728	26377
821.868	26161
822.008	26161
822.149	26119
822.289	26119
822.429	25875
822.569	25765
822.709	25822
822.849	25506
822.99	25624
823.13	25537
823.27	25400
823.41	25228
823.55	25293
823.69	25381
823.83	25346
823.97	25221
824.11	25107
824.25	25038
824.389	25152
824.529	25148
824.669	25061
824.809	25148
824.949	25110
825.089	25164
825.228	25171
825.368	24951
825.508	24779
825.648	25012
825.787	24939
825.927	24992
826.067	24958
826.206	24810
826.346	24852
826.485	24875
826.625	24791
826.765	24970
826.904	24977
827.044	24776
827.183	24639
827.323	24635
827.462	24639
827.601	24566
827.741	24513
827.88	24631
828.02	24414
828.159	24475
828.298	24589
828.437	24578
828.577	24555
828.716	24639
828.855	24513
828.994	24270
829.134	24407
829.273	24258
829.412	24152
829.551	24197
829.69	24334
829.829	24254
829.968	24239
830.107	24327
830.246	24270
830.385	24083
830.524	24129
830.663	24076
830.802	24018
830.941	23790
831.08	23901
831.219	23908
831.357	23870
831.496	24060
831.635	23885
831.774	23703
831.913	23649
832.051	23566
832.19	23509
832.329	23638
832.467	23471
832.606	23414
832.744	23471
832.883	23452
833.022	23448
833.16	23376
833.299	23573
833.437	23497
833.576	23463
833.714	23372
833.852	23520
833.991	23493
834.129	23505
834.267	23581
834.406	23463
834.544	23543
834.682	23524
834.821	23395
834.959	23687
835.097	23379
835.235	23471
835.373	23383
835.511	23383
835.65	23330
835.788	23277
835.926	23231
836.064	23090
836.202	23166
836.34	23315
836.478	23334
836.615	23178
836.753	23368
836.891	23337
837.029	23166
837.167	23223
837.305	23227
837.443	23113
837.58	23029
837.718	23231
837.856	23083
837.993	23086
838.131	23033
838.269	23094
838.406	22999
838.544	22869
838.681	22664
838.819	22645
838.956	22603
839.094	22573
839.231	22542
839.369	22710
839.506	22824
839.643	22816
839.781	22443
839.918	22531
840.055	22451
840.193	22504
840.33	22344
840.467	22478
840.604	22413
840.742	22729
840.879	22306
841.016	22413
841.153	22310
841.29	22607
841.427	22394
841.564	22516
841.701	22360
841.838	22440
841.975	22215
842.112	22276
842.249	22128
842.385	22234
842.522	22291
842.659	22230
842.796	22131
842.933	22173
843.069	22093
843.206	22109
843.343	22249
843.479	22070
843.616	22200
843.752	21964
843.889	21888
844.025	22124
844.162	21812
844.298	21911
844.435	21823
844.571	21876
844.708	21861
844.844	22048
844.98	22109
845.117	22013
845.253	21831
845.389	21743
845.525	21846
845.661	21804
845.798	21641
845.934	21633
846.07	21545
846.206	21542
846.342	21747
846.478	21591
846.614	21344
846.75	21462
846.886	21332
847.022	21393
847.158	21393
847.294	21317
847.429	21272
847.565	21199
847.701	21587
847.837	20994
847.972	21043
848.108	21150
848.244	21070
848.379	20868
848.515	21017
848.65	20937
848.786	20891
848.921	20899
849.057	20925
849.192	21032
849.328	20952
849.463	20842
849.598	20971
849.734	20708
849.869	20667
850.004	20606
850.14	20693
850.275	20621
850.41	20602
850.545	20609
850.68	20533
850.815	20659
850.95	20621
851.085	20807
851.22	20674
851.355	20488
851.49	20609
851.625	20549
851.76	20644
851.895	20442
852.03	20518
852.165	20648
852.299	20632
852.434	20640
852.569	20632
852.703	20701
852.838	20609
852.973	20693
853.107	20686
853.242	20556
853.376	20454
853.511	20385
853.645	20267
853.78	20560
853.914	20377
854.048	20438
854.183	20370
854.317	20377
854.451	20651
854.585	20396
854.72	20400
854.854	20507
854.988	20450
855.122	20309
855.256	20278
855.39	20457
855.524	20484
855.658	20408
855.792	20396
855.926	20431
856.06	20434
856.194	20438
856.327	20454
856.461	20362
856.595	20358
856.729	20415
856.862	20503
856.996	20434
857.13	20518
857.263	20495
857.397	20446
857.53	20282
857.664	20431
857.797	20465
857.931	20545
858.064	20431
858.197	20495
858.331	20305
858.464	20248
858.597	20202
858.731	20423
858.864	20267
858.997	20343
859.13	20324
859.263	20286
859.396	20347
859.529	20347
859.662	20313
859.795	20313
859.928	20286
860.061	20488
860.194	20564
860.327	20431
860.46	20328
860.592	20526
860.725	20381
860.858	20473
860.99	20320
861.123	20237
861.256	20195
861.388	20351
861.521	20925
861.653	20282
861.786	20233
861.918	20199
862.05	20294
862.183	20290
862.315	20358
862.447	20355
862.58	20362
862.712	20115
862.844	20100
862.976	20161
863.108	20065
863.24	20480
863.372	20081
863.504	20012
863.636	20046
863.768	20012
863.9	19986
864.032	20008
864.164	19959
864.296	20081
864.428	20107
864.559	20145
864.691	20142
864.823	20020
864.954	20035
865.086	20024
865.217	19887
865.349	19894
865.48	20077
865.612	19993
865.743	20073
865.875	19951
866.006	19974
866.137	19909
866.269	20031
866.4	20005
866.531	19871
866.662	19845
866.793	19993
866.924	19951
867.055	19917
867.186	19871
867.317	19833
867.448	19750
867.579	19841
867.71	19811
867.841	19811
867.972	19890
868.103	19788
868.233	19860
868.364	19974
868.495	19989
868.625	20142
868.756	20240
868.886	20073
869.017	20012
869.147	20244
869.278	20282
869.408	20183
869.539	20142
869.669	20180
869.799	20176
869.929	20206
870.06	20225
870.19	20393
870.32	20313
870.45	20511
870.58	20655
870.71	20621
870.84	20655
870.97	20457
871.1	20693
871.23	20682
871.36	20667
871.489	20640
871.619	20659
871.749	20735
871.879	20750
872.008	20891
872.138	20720
872.267	20678
872.397	20682
872.526	20511
872.656	20442
872.785	20560
872.915	20815
873.044	20781
873.173	20769
873.303	20804
873.432	20849
873.561	20781
873.69	20815
873.819	20746
873.948	20796
874.077	20762
874.206	20689
874.335	20712
874.464	20834
874.593	20990
874.722	20914
874.851	21009
874.979	20944
875.108	21077
875.237	21009
875.365	20769
875.494	20963
875.623	21036
875.751	20883
875.88	20971
876.008	21138
876.136	21192
876.265	21428
876.393	21450
876.521	21492
876.65	21561
876.778	21336
876.906	21264
877.034	21424
877.162	21313
877.29	21184
877.418	21378
877.546	21386
877.674	21321
877.802	21279
877.93	21317
878.058	21233
878.185	21260
878.313	21329
878.441	21313
878.568	21260
878.696	21256
878.824	21370
878.951	21416
879.079	21496
879.206	21599
879.333	21481
879.461	21359
879.588	21443
879.715	21488
879.842	21698
879.97	21351
880.097	21070
880.224	21131
880.351	21237
880.478	21127
880.605	21169
880.732	21211
880.859	21420
880.986	21173
881.112	21150
881.239	21116
881.366	20857
881.493	20788
881.619	20663
881.746	20705
881.872	20853
881.999	20735
882.125	20651
882.252	20792
882.378	20644
882.505	20861
882.631	20579
882.757	20511
882.883	20613
883.01	20598
883.136	20457
883.262	20328
883.388	20385
883.514	20594
883.64	20499
883.766	20374
883.892	20218
884.018	20218
884.143	20484
884.269	20507
884.395	20263
884.52	20233
884.646	20130
884.772	20031
884.897	20024
885.023	20024
885.148	20278
885.274	20244
885.399	20290
885.524	20134
885.65	20088
885.775	20043
885.9	20138
886.025	20206
886.15	20115
886.275	20092
886.4	20039
886.525	20161
886.65	19947
886.775	20031
886.9	20233
887.025	20259
887.149	20157
887.274	19871
887.399	19921
887.523	19963
887.648	19807
887.773	19734
887.897	19947
888.021	19830
888.146	19719
888.27	19944
888.395	20073
888.519	19841
888.643	19860
888.767	19898
888.891	19887
889.015	19563
889.139	19746
889.263	19590
889.387	19731
889.511	19898
889.635	19803
889.759	19529
889.883	19548
890.006	19696
890.13	19757
890.254	19567
890.377	19635
890.501	19373
890.624	19358
890.748	19483
890.871	19285
890.995	19339
891.118	19297
891.241	19312
891.364	19217
891.488	19460
891.611	19335
891.734	19278
891.857	19316
891.98	19354
892.103	19426
892.226	19228
892.349	19198
892.471	19088
892.594	19194
892.717	19190
892.839	19122
892.962	19118
893.085	19263
893.207	19168
893.33	19072
893.452	19141
893.575	19148
893.697	19228
893.819	19297
893.941	19407
894.064	19358
894.186	19080
894.308	19019
894.43	19278
894.552	19274
894.674	19270
894.796	19145
894.918	19206
895.04	19099
895.161	19270
895.283	19232
895.405	19168
895.526	19190
895.648	19164
895.769	19217
895.891	19084
896.012	19259
896.134	19278
896.255	19179
896.376	19228
896.498	19175
896.619	19278
896.74	19232
896.861	19324
896.982	19563
897.103	19677
897.224	19643
897.345	19350
897.466	19491
897.587	19464
897.708	19396
897.828	19480
897.949	19373
898.07	19213
898.19	19457
898.311	19460
898.431	19506
898.552	19422
898.672	19533
898.792	19518
898.913	19369
899.033	19274
899.153	19346
899.273	19148
899.393	19152
899.513	19175
899.633	19133
899.753	19141
899.873	19198
899.993	19137
900.113	19076
900.232	19141
900.352	19156
900.472	18996
900.591	18973
900.711	19023
900.83	18935
900.95	19027
901.069	19008
901.189	18875
901.308	18646
901.427	18479
901.546	18517
901.665	18661
901.784	18639
901.904	18490
902.023	18296
902.141	18083
902.26	18087
902.379	18311
902.498	18060
902.617	18003
902.735	18098
902.854	17988
902.973	17992
903.091	17798
903.21	17733
903.328	17661
903.446	17699
903.565	17646
903.683	17554
903.801	17455
903.919	17600
904.038	17512
904.156	17311
904.274	17406
904.392	17368
904.51	17360
904.627	17269
904.745	17368
904.863	17315
904.981	16995
905.098	16908
905.216	16911
905.334	17098
905.451	16957
905.569	17064
905.686	16919
905.803	17014
905.921	16744
906.038	16858
906.155	16820
906.272	16660
906.389	16672
906.506	16497
906.623	16611
906.74	16538
906.857	16413
906.974	16436
907.091	16531
907.208	16649
907.324	16554
907.441	16485
907.557	16223
907.674	16314
907.79	16188
907.907	16173
908.023	16246
908.139	16253
908.256	16078
908.372	16173
908.488	16086
908.604	15983
908.72	15899
908.836	15888
908.952	15930
909.068	15975
909.184	16090
909.3	15827
909.415	15960
909.531	15857
909.647	15698
909.762	15663
909.878	15667
909.993	15652
910.108	15553
910.224	15656
910.339	15622
910.454	15545
910.57	15435
910.685	15507
910.8	15603
910.915	15568
911.03	15542
911.145	15256
911.259	15226
911.374	15203
911.489	15142
911.604	15089
911.718	14952
911.833	15001
911.947	14868
912.062	14731
912.176	14880
912.291	14994
912.405	14895
912.519	15009
912.633	15058
912.748	14979
912.862	14925
912.976	14826
913.09	14689
913.204	14667
913.318	14785
913.431	14872
913.545	14823
913.659	14807
913.772	14731
913.886	14667
914	14579
914.113	14716
914.226	14697
914.34	14708
914.453	14499
914.566	14632
914.68	14511
914.793	14488
914.906	14385
915.019	14290
915.132	14168
915.245	14267
915.358	14301
915.47	14210
915.583	14180
915.696	14278
915.809	14332
915.921	14438
916.034	14138
916.146	14199
916.259	14081
916.371	14320
916.483	14134
916.595	14069
916.708	14058
916.82	14096
916.932	14016
917.044	14046
917.156	13997
917.268	13860
917.38	13978
917.491	13917
917.603	13947
917.715	14001
917.826	14054
917.938	13833
918.049	13757
918.161	13883
918.272	14016
918.384	14187
918.495	13868
918.606	13746
918.717	13712
918.828	13700
918.939	13772
919.05	13613
919.161	13750
919.272	13457
919.383	13636
919.494	13681
919.604	13841
919.715	13662
919.826	13632
919.936	13563
920.047	13613
920.157	13742
920.267	13814
920.378	13605
920.488	13628
920.598	13780
920.708	13913
920.818	13875
920.928	13795
921.038	13944
921.148	13890
921.258	13578
921.368	13472
921.477	13483
921.587	13373
921.697	13190
921.806	13388
921.916	13236
922.025	13114
922.134	13069
922.244	12993
922.353	13057
922.462	12935
922.571	12871
922.68	12795
922.789	12662
922.898	12669
923.007	12604
923.116	12673
923.224	12639
923.333	12601
923.442	12574
923.55	12372
923.659	12486
923.767	12525
923.876	12414
923.984	12601
924.092	12380
924.201	12433
924.309	12357
924.417	12426
924.525	12346
924.633	12361
924.741	13053
924.849	12235
924.956	12369
925.064	12167
925.172	12053
925.279	12136
925.387	12163
925.494	12148
925.602	12201
925.709	12140
925.816	12072
925.924	12007
926.031	12201
926.138	12087
926.245	12163
926.352	11984
926.459	12148
926.566	12167
926.673	12011
926.779	11958
926.886	11946
926.993	11722
927.099	11741
927.206	11665
927.312	11707
927.419	11802
927.525	11733
927.631	11726
927.737	11532
927.843	11547
927.95	11391
928.056	11562
928.162	11573
928.267	11619
928.373	12175
928.479	11760
928.585	11410
928.69	11463
928.796	11600
928.901	11448
929.007	11246
929.112	11421
929.218	11337
929.323	11307
929.428	11341
929.533	11429
929.638	11216
929.743	11189
929.848	11288
929.953	11189
930.058	11231
930.163	10984
930.267	10991
930.372	11105
930.477	11045
930.581	11136
930.685	10987
930.79	10930
930.894	10942
930.998	10862
931.103	10984
931.207	10641
931.311	10611
931.415	10443
931.519	10306
931.623	10227
