Data from test_V78500241_1716.txt Node
Date: Fri Mar 25 15:21:48 CST 2022
User: usil
Spectrometer: V785-0024
Trigger mode: 0
Integration Time (sec): 4.000000E-1
Scans to average: 1
Nonlinearity correction enabled: false
Boxcar width: 0
Storing dark spectrum: false
XAxis mode: Wavelengths
Number of Pixels in Spectrum: 1024
>>>>>Begin Spectral Data<<<<<
801.071	27778
801.214	27675
801.356	27515
801.499	27473
801.641	27264
801.783	27214
801.926	27272
802.068	27218
802.211	27211
802.353	27154
802.496	26998
802.638	27020
802.78	26925
802.923	26895
803.065	26743
803.208	26952
803.35	26933
803.492	26906
803.635	27039
803.777	27104
803.919	27055
804.061	27511
804.204	27195
804.346	27127
804.488	27093
804.63	27119
804.773	27005
804.915	27138
805.057	27165
805.199	27089
805.341	27203
805.483	27291
805.626	27279
805.768	27131
805.91	27146
806.052	27310
806.194	27306
806.336	27382
806.478	27306
806.62	27207
806.762	27431
806.904	27564
807.046	27690
807.188	27610
807.33	27705
807.472	27785
807.614	27561
807.756	27644
807.898	27545
808.04	27542
808.182	27450
808.324	27412
808.465	27591
808.607	27682
808.749	27854
808.891	27892
809.033	27964
809.174	27869
809.316	27827
809.458	27789
809.6	27797
809.741	27816
809.883	28021
810.025	28021
810.166	28097
810.308	28032
810.45	28090
810.591	28040
810.733	27876
810.875	27873
811.016	27797
811.158	27690
811.299	27865
811.441	27991
811.582	27914
811.724	27789
811.865	27698
812.007	27861
812.148	27949
812.29	27869
812.431	28063
812.573	28242
812.714	28223
812.855	28470
812.997	28493
813.138	28485
813.279	28512
813.421	28390
813.562	28363
813.703	28257
813.845	28109
813.986	27888
814.127	27667
814.268	27462
814.41	27599
814.551	27519
814.692	27576
814.833	27447
814.974	27523
815.115	27595
815.256	27367
815.397	27504
815.539	27336
815.68	27306
815.821	27325
815.962	27397
816.103	27268
816.244	27180
816.385	27233
816.526	27100
816.666	26994
816.807	26891
816.948	26876
817.089	26910
817.23	26918
817.371	26785
817.512	26823
817.653	26762
817.793	26792
817.934	26785
818.075	26880
818.216	26883
818.356	26777
818.497	26632
818.638	26442
818.778	26530
818.919	26720
819.06	26659
819.2	26617
819.341	26842
819.481	26754
819.622	26838
819.762	27180
819.903	26998
820.043	27020
820.184	27062
820.324	26921
820.465	26990
820.605	26819
820.746	26933
820.886	26727
821.026	26887
821.167	26979
821.307	26864
821.447	26868
821.588	26781
821.728	26533
821.868	26465
822.008	26301
822.149	26332
822.289	26138
822.429	25955
822.569	25932
822.709	25890
822.849	25814
822.99	25928
823.13	25814
823.27	25765
823.41	25708
823.55	25620
823.69	25643
823.83	25567
823.97	25670
824.11	25343
824.25	25403
824.389	25468
824.529	25476
824.669	25460
824.809	25491
824.949	25639
825.089	25460
825.228	25468
825.368	25255
825.508	25266
825.648	25285
825.787	25411
825.927	25327
826.067	25232
826.206	25346
826.346	25343
826.485	25282
826.625	25217
826.765	25457
826.904	25354
827.044	25164
827.183	25217
827.323	24890
827.462	25137
827.601	25057
827.741	25061
827.88	25000
828.02	24802
828.159	24996
828.298	25072
828.437	25126
828.577	25023
828.716	25160
828.855	24996
828.994	24791
829.134	24654
829.273	24779
829.412	24688
829.551	24650
829.69	24673
829.829	24696
829.968	24726
830.107	24722
830.246	24692
830.385	24559
830.524	24738
830.663	24612
830.802	24437
830.941	24334
831.08	24228
831.219	24357
831.357	24418
831.496	24692
831.635	24330
831.774	24308
831.913	24186
832.051	24190
832.19	24098
832.329	24121
832.467	24053
832.606	24133
832.744	24015
832.883	23961
833.022	23992
833.16	23980
833.299	24121
833.437	24049
833.576	24129
833.714	24030
833.852	24072
833.991	24038
834.129	24129
834.267	24220
834.406	24026
834.544	24136
834.682	24125
834.821	23935
834.959	24239
835.097	23946
835.235	24095
835.373	24129
835.511	24064
835.65	23855
835.788	23897
835.926	23832
836.064	23798
836.202	23703
836.34	23950
836.478	23988
836.615	23836
836.753	23904
836.891	24034
837.029	23897
837.167	23756
837.305	23885
837.443	23760
837.58	23642
837.718	23821
837.856	23695
837.993	23695
838.131	23813
838.269	23596
838.406	23672
838.544	23649
838.681	23486
838.819	23421
838.956	23280
839.094	23204
839.231	23170
839.369	23337
839.506	23638
839.643	23493
839.781	23269
839.918	23029
840.055	23303
840.193	23197
840.33	23098
840.467	23037
840.604	23269
840.742	23353
840.879	22999
841.016	23109
841.153	23113
841.29	23227
841.427	23220
841.564	23090
841.701	23105
841.838	23064
841.975	22976
842.112	23010
842.249	22900
842.385	23003
842.522	23109
842.659	22919
842.796	22839
842.933	23003
843.069	22938
843.206	22889
843.343	22957
843.479	22896
843.616	23010
843.752	22721
843.889	22637
844.025	22869
844.162	22630
844.298	22782
844.435	22683
844.571	22630
844.708	22710
844.844	22877
844.98	22793
845.117	22820
845.253	22649
845.389	22622
845.525	22653
845.661	22561
845.798	22390
845.934	22428
846.07	22360
846.206	22436
846.342	22512
846.478	22341
846.614	22242
846.75	22249
846.886	22147
847.022	22341
847.158	22097
847.294	22124
847.429	22181
847.565	22147
847.701	22253
847.837	21937
847.972	21857
848.108	21907
848.244	22002
848.379	21789
848.515	21778
848.65	21766
848.786	21778
848.921	21720
849.057	21797
849.192	21800
849.328	21789
849.463	21770
849.598	21686
849.734	21713
849.869	21545
850.004	21538
850.14	21610
850.275	21587
850.41	21359
850.545	21340
850.68	21481
850.815	21648
850.95	21450
851.085	21641
851.22	21576
851.355	21496
851.49	21545
851.625	21515
851.76	21542
851.895	21450
852.03	21405
852.165	21561
852.299	21500
852.434	21618
852.569	21644
852.703	21507
852.838	21507
852.973	21629
853.107	21622
853.242	21374
853.376	21351
853.511	21256
853.645	21207
853.78	21488
853.914	21348
854.048	21294
854.183	21344
854.317	21367
854.451	21504
854.585	21321
854.72	21294
854.854	21469
854.988	21291
855.122	21214
855.256	21256
855.39	21310
855.524	21424
855.658	21275
855.792	21283
855.926	21340
856.06	21298
856.194	21325
856.327	21329
856.461	21272
856.595	21154
856.729	21287
856.862	21454
856.996	21408
857.13	21340
857.263	21374
857.397	21306
857.53	21302
857.664	21359
857.797	21389
857.931	21492
858.064	21370
858.197	21454
858.331	21245
858.464	21256
858.597	21252
858.731	21389
858.864	21252
858.997	21233
859.13	21424
859.263	21298
859.396	21420
859.529	21237
859.662	21351
859.795	21313
859.928	21306
860.061	21462
860.194	21576
860.327	21184
860.46	21355
860.592	21344
860.725	21515
860.858	21447
860.99	21226
861.123	21302
861.256	21146
861.388	21260
861.521	21964
861.653	21157
861.786	21100
861.918	21233
862.05	21157
862.183	21226
862.315	21249
862.447	21298
862.58	21218
862.712	21005
862.844	21066
862.976	21131
863.108	21039
863.24	21492
863.372	21001
863.504	21013
863.636	20979
863.768	21051
863.9	21017
864.032	21028
864.164	20948
864.296	21142
864.428	21032
864.559	21089
864.691	21112
864.823	20994
864.954	21013
865.086	21047
865.217	21062
865.349	20826
865.48	20868
865.612	20960
865.743	20948
865.875	20971
866.006	20823
866.137	20876
866.269	20914
866.4	20902
866.531	20880
866.662	20872
866.793	20849
866.924	20918
867.055	20842
867.186	20899
867.317	20788
867.448	20746
867.579	20948
867.71	20762
867.841	20769
867.972	20815
868.103	20826
868.233	20937
868.364	20933
868.495	20918
868.625	21058
868.756	21157
868.886	21169
869.017	21077
869.147	21245
869.278	21211
869.408	21138
869.539	21074
869.669	21176
869.799	21077
869.929	21230
870.06	21127
870.19	21374
870.32	21348
870.45	21382
870.58	21564
870.71	21625
870.84	21443
870.97	21469
871.1	21625
871.23	21542
871.36	21720
871.489	21526
871.619	21614
871.749	21576
871.879	21774
872.008	21823
872.138	21694
872.267	21698
872.397	21580
872.526	21507
872.656	21572
872.785	21447
872.915	21720
873.044	21812
873.173	21709
873.303	21762
873.432	21823
873.561	21823
873.69	21660
873.819	21690
873.948	21888
874.077	21819
874.206	21625
874.335	21675
874.464	21755
874.593	21888
874.722	21827
874.851	21903
874.979	21926
875.108	22002
875.237	21899
875.365	21888
875.494	21907
875.623	22059
875.751	21876
875.88	21876
876.008	22029
876.136	22109
876.265	22318
876.393	22478
876.521	22436
876.65	22451
876.778	22337
876.906	22356
877.034	22246
877.162	22375
877.29	22169
877.418	22303
877.546	22337
877.674	22337
877.802	22257
877.93	22242
878.058	22291
878.185	22120
878.313	22363
878.441	22291
878.568	22093
878.696	22287
878.824	22246
878.951	22310
879.079	22459
879.206	22683
879.333	22519
879.461	22238
879.588	22409
879.715	22352
879.842	22546
879.97	22371
880.097	22109
880.224	22067
880.351	22139
880.478	22101
880.605	22120
880.732	22036
880.859	22177
880.986	22036
881.112	22120
881.239	21975
881.366	21819
881.493	21770
881.619	21789
881.746	21694
881.872	21679
881.999	21686
882.125	21599
882.252	21812
882.378	21610
882.505	21770
882.631	21564
882.757	21393
882.883	21507
883.01	21252
883.136	21329
883.262	21237
883.388	21275
883.514	21256
883.64	21378
883.766	21203
883.892	21150
884.018	21275
884.143	21332
884.269	21439
884.395	21104
884.52	20975
884.646	20944
884.772	20944
884.897	20853
885.023	21009
885.148	21112
885.274	21093
885.399	21188
885.524	21116
885.65	21058
885.775	20963
885.9	21001
886.025	21085
886.15	21093
886.275	20944
886.4	20986
886.525	20891
886.65	20891
886.775	20849
886.9	21058
887.025	21207
887.149	21089
887.274	20823
887.399	20800
887.523	20769
887.648	20651
887.773	20765
887.897	20800
888.021	20727
888.146	20670
888.27	20769
888.395	20883
888.519	20918
888.643	20769
888.767	20807
888.891	20625
889.015	20598
889.139	20682
889.263	20575
889.387	20785
889.511	20754
889.635	20678
889.759	20488
889.883	20606
890.006	20545
890.13	20777
890.254	20598
890.377	20606
890.501	20355
890.624	20290
890.748	20419
890.871	20199
890.995	20324
891.118	20191
891.241	20115
891.364	20267
891.488	20161
891.611	20202
891.734	20176
891.857	20374
891.98	20119
892.103	20290
892.226	20069
892.349	20183
892.471	19936
892.594	20016
892.717	20050
892.839	20016
892.962	19997
893.085	20119
893.207	20149
893.33	19917
893.452	20043
893.575	20088
893.697	20035
893.819	20202
893.941	20343
894.064	20176
894.186	20077
894.308	19955
894.43	20065
894.552	20111
894.674	20176
894.796	19921
894.918	20005
895.04	20001
895.161	20157
895.283	20035
895.405	20119
895.526	20001
895.648	20081
895.769	20088
895.891	19993
896.012	20096
896.134	20069
896.255	20016
896.376	20024
896.498	20161
896.619	20153
896.74	19967
896.861	20012
896.982	20355
897.103	20621
897.224	20313
897.345	20324
897.466	20202
897.587	20278
897.708	20442
897.828	20408
897.949	20088
898.07	19993
898.19	20149
898.311	20256
898.431	20267
898.552	20256
898.672	20336
898.792	20358
898.913	20305
899.033	20199
899.153	20107
899.273	19894
899.393	20065
899.513	20062
899.633	20027
899.753	20115
899.873	19902
899.993	20016
900.113	19967
900.232	20005
900.352	19890
900.472	19860
900.591	19837
900.711	19837
900.83	19742
900.95	19955
901.069	19898
901.189	19689
901.308	19430
901.427	19426
901.546	19430
901.665	19434
901.784	19365
901.904	19179
902.023	19145
902.141	18977
902.26	18958
902.379	19046
902.498	18798
902.617	18905
902.735	19019
902.854	18996
902.973	18772
903.091	18612
903.21	18570
903.328	18525
903.446	18464
903.565	18452
903.683	18334
903.801	18292
903.919	18247
904.038	18239
904.156	18178
904.274	18155
904.392	18216
904.51	18076
904.627	18038
904.745	18171
904.863	18186
904.981	18026
905.098	17786
905.216	17832
905.334	17809
905.451	17840
905.569	17756
905.686	17920
905.803	17790
905.921	17680
906.038	17649
906.155	17764
906.272	17471
906.389	17535
906.506	17448
906.623	17395
906.74	17345
906.857	17197
906.974	17242
907.091	17402
907.208	17528
907.324	17436
907.441	17235
907.557	17128
907.674	17033
907.79	17102
907.907	17006
908.023	17033
908.139	17083
908.256	16965
908.372	16877
908.488	16938
908.604	16774
908.72	16881
908.836	16782
908.952	16778
909.068	16831
909.184	16885
909.3	16748
909.415	16862
909.531	16721
909.647	16607
909.762	16466
909.878	16478
909.993	16481
910.108	16474
910.224	16371
910.339	16485
910.454	16394
910.57	16360
910.685	16192
910.8	16554
910.915	16497
911.03	16367
911.145	16036
911.259	16162
911.374	16105
911.489	16112
911.604	16010
911.718	15838
911.833	15831
911.947	15709
912.062	15690
912.176	15785
912.291	15690
912.405	15660
912.519	15941
912.633	15979
912.748	15778
912.862	15857
912.976	15633
913.09	15564
913.204	15614
913.318	15656
913.431	15713
913.545	15656
913.659	15838
913.772	15580
913.886	15488
914	15416
914.113	15477
914.226	15553
914.34	15466
914.453	15367
914.566	15496
914.68	15416
914.793	15283
914.906	15157
915.019	15066
915.132	14971
915.245	15062
915.358	15142
915.47	14986
915.583	15119
915.696	15097
915.809	15184
915.921	15245
916.034	14937
916.146	14921
916.259	15062
916.371	15081
916.483	15089
916.595	14887
916.708	14918
916.82	14891
916.932	14895
917.044	14914
917.156	14849
917.268	14781
917.38	14788
917.491	14720
917.603	14727
917.715	14807
917.826	14819
917.938	14590
918.049	14590
918.161	14625
918.272	14773
918.384	14674
918.495	14621
918.606	14495
918.717	14366
918.828	14571
918.939	14488
919.05	14419
919.161	14461
919.272	14358
919.383	14286
919.494	14461
919.604	14716
919.715	14450
919.826	14317
919.936	14336
920.047	14457
920.157	14415
920.267	14602
920.378	14404
920.488	14415
920.598	14659
920.708	14804
920.818	14499
920.928	14640
921.038	14720
921.148	14724
921.258	14305
921.368	14271
921.477	14176
921.587	14256
921.697	14024
921.806	14164
921.916	14024
922.025	13875
922.134	13807
922.244	13795
922.353	13803
922.462	13734
922.571	13655
922.68	13381
922.789	13544
922.898	13495
923.007	13445
923.116	13472
923.224	13422
923.333	13434
923.442	13335
923.55	13297
923.659	13381
923.767	13392
923.876	13202
923.984	13289
924.092	13141
924.201	13217
924.309	13217
924.417	13149
924.525	13202
924.633	13160
924.741	13875
924.849	12916
924.956	13008
925.064	12973
925.172	12867
925.279	12924
925.387	12966
925.494	12913
925.602	12981
925.709	12852
925.816	12882
925.924	12806
926.031	12894
926.138	12848
926.245	12882
926.352	12631
926.459	12890
926.566	12909
926.673	12696
926.779	12559
926.886	12597
926.993	12418
927.099	12452
927.206	12418
927.312	12388
927.419	12464
927.525	12403
927.631	12475
927.737	12407
927.843	12285
927.95	12186
928.056	12304
928.162	12311
928.267	12334
928.373	12886
928.479	12350
928.585	12163
928.69	12182
928.796	12266
928.901	12133
929.007	11965
929.112	12178
929.218	12022
929.323	12064
929.428	11927
929.533	12171
929.638	11942
929.743	11954
929.848	11939
929.953	11912
930.058	11828
930.163	11707
930.267	11771
930.372	11805
930.477	11695
930.581	11897
930.685	11756
930.79	11684
930.894	11596
930.998	11661
931.103	11771
931.207	11322
931.311	11258
931.415	11223
931.519	10915
931.623	11048
