Data from test_V78500241_622.txt Node
Date: Fri Mar 25 15:14:11 CST 2022
User: usil
Spectrometer: V785-0024
Trigger mode: 0
Integration Time (sec): 4.000000E-1
Scans to average: 1
Nonlinearity correction enabled: false
Boxcar width: 0
Storing dark spectrum: false
XAxis mode: Wavelengths
Number of Pixels in Spectrum: 1024
>>>>>Begin Spectral Data<<<<<
801.071	27835
801.214	27637
801.356	27496
801.499	27500
801.641	27355
801.783	27230
801.926	27340
802.068	27359
802.211	27032
802.353	27142
802.496	26940
802.638	26880
802.78	26918
802.923	26918
803.065	26895
803.208	26895
803.35	26891
803.492	27062
803.635	27108
803.777	26963
803.919	27081
804.061	27424
804.204	27077
804.346	26914
804.488	27017
804.63	26883
804.773	26929
804.915	26982
805.057	27169
805.199	27131
805.341	27294
805.483	27203
805.626	27268
805.768	27214
805.91	27176
806.052	27127
806.194	27195
806.336	27359
806.478	27329
806.62	27100
806.762	27427
806.904	27355
807.046	27743
807.188	27652
807.33	27694
807.472	27557
807.614	27568
807.756	27530
807.898	27462
808.04	27439
808.182	27389
808.324	27564
808.465	27526
808.607	27694
808.749	27743
808.891	27914
809.033	28017
809.174	28044
809.316	27827
809.458	27785
809.6	27968
809.741	27956
809.883	27968
810.025	28128
810.166	28010
810.308	28246
810.45	28230
810.591	28063
810.733	28010
810.875	27724
811.016	27698
811.158	27705
811.299	28131
811.441	28036
811.582	27972
811.724	27983
811.865	27759
812.007	27603
812.148	27759
812.29	27960
812.431	27895
812.573	28093
812.714	28242
812.855	28394
812.997	28440
813.138	28812
813.279	28596
813.421	28447
813.562	28443
813.703	28169
813.845	28169
813.986	27831
814.127	27660
814.268	27534
814.41	27622
814.551	27473
814.692	27622
814.833	27416
814.974	27466
815.115	27606
815.256	27500
815.397	27443
815.539	27427
815.68	27416
815.821	27313
815.962	27515
816.103	27321
816.244	27245
816.385	27260
816.526	27100
816.666	26921
816.807	26861
816.948	26948
817.089	27017
817.23	26815
817.371	27009
817.512	27058
817.653	26861
817.793	26804
817.934	26918
818.075	26853
818.216	26792
818.356	26765
818.497	26788
818.638	26682
818.778	26499
818.919	26632
819.06	26686
819.2	26758
819.341	26914
819.481	26785
819.622	26887
819.762	27157
819.903	27222
820.043	26994
820.184	27123
820.324	26921
820.465	27062
820.605	26918
820.746	26982
820.886	26815
821.026	26716
821.167	26861
821.307	26990
821.447	26853
821.588	26636
821.728	26804
821.868	26503
822.008	26370
822.149	26305
822.289	26298
822.429	26054
822.569	26054
822.709	25993
822.849	25757
822.99	25875
823.13	25822
823.27	25944
823.41	25670
823.55	25632
823.69	25548
823.83	25753
823.97	25620
824.11	25396
824.25	25460
824.389	25457
824.529	25525
824.669	25312
824.809	25616
824.949	25601
825.089	25514
825.228	25537
825.368	25388
825.508	25415
825.648	25403
825.787	25301
825.927	25441
826.067	25384
826.206	25282
826.346	25301
826.485	25240
826.625	25396
826.765	25495
826.904	25327
827.044	25076
827.183	25156
827.323	24916
827.462	25076
827.601	25004
827.741	24958
827.88	25110
828.02	25099
828.159	25057
828.298	25145
828.437	25164
828.577	24985
828.716	25091
828.855	24897
828.994	24715
829.134	24779
829.273	24741
829.412	24814
829.551	24566
829.69	24806
829.829	24787
829.968	24920
830.107	24779
830.246	24734
830.385	24791
830.524	24627
830.663	24578
830.802	24623
830.941	24361
831.08	24327
831.219	24509
831.357	24308
831.496	24650
831.635	24365
831.774	24258
831.913	24216
832.051	24152
832.19	24167
832.329	24121
832.467	24076
832.606	24095
832.744	23946
832.883	24140
833.022	24060
833.16	24072
833.299	24087
833.437	24174
833.576	24114
833.714	24163
833.852	24247
833.991	24232
834.129	24159
834.267	24224
834.406	24121
834.544	24121
834.682	24167
834.821	24110
834.959	24357
835.097	24011
835.235	24057
835.373	24079
835.511	23977
835.65	24064
835.788	23969
835.926	23874
836.064	23794
836.202	23714
836.34	23901
836.478	24068
836.615	23980
836.753	24003
836.891	24022
837.029	23988
837.167	23954
837.305	23767
837.443	23805
837.58	23824
837.718	23901
837.856	23855
837.993	23798
838.131	23752
838.269	23687
838.406	23615
838.544	23589
838.681	23490
838.819	23452
838.956	23227
839.094	23235
839.231	23372
839.369	23486
839.506	23684
839.643	23528
839.781	23223
839.918	23197
840.055	23303
840.193	23292
840.33	23124
840.467	23216
840.604	23208
840.742	23509
840.879	22999
841.016	23178
841.153	23170
841.29	23345
841.427	23128
841.564	23250
841.701	23208
841.838	23166
841.975	23128
842.112	23109
842.249	22999
842.385	22999
842.522	23086
842.659	23037
842.796	22866
842.933	23041
843.069	22885
843.206	22915
843.343	22968
843.479	23025
843.616	23033
843.752	22725
843.889	22675
844.025	22885
844.162	22653
844.298	22740
844.435	22675
844.571	22702
844.708	22847
844.844	22828
844.98	22942
845.117	22774
845.253	22637
845.389	22645
845.525	22668
845.661	22615
845.798	22443
845.934	22508
846.07	22459
846.206	22428
846.342	22531
846.478	22561
846.614	22253
846.75	22154
846.886	22032
847.022	22223
847.158	22211
847.294	22143
847.429	22207
847.565	22246
847.701	22428
847.837	21987
847.972	21884
848.108	22078
848.244	21873
848.379	21778
848.515	21762
848.65	21774
848.786	21778
848.921	21846
849.057	21937
849.192	21770
849.328	21679
849.463	21759
849.598	21781
849.734	21682
849.869	21622
850.004	21576
850.14	21606
850.275	21568
850.41	21443
850.545	21454
850.68	21549
850.815	21561
850.95	21618
851.085	21686
851.22	21580
851.355	21561
851.49	21488
851.625	21591
851.76	21519
851.895	21462
852.03	21557
852.165	21397
852.299	21511
852.434	21679
852.569	21534
852.703	21576
852.838	21694
852.973	21652
853.107	21557
853.242	21500
853.376	21428
853.511	21340
853.645	21363
853.78	21523
853.914	21416
854.048	21389
854.183	21336
854.317	21462
854.451	21428
854.585	21329
854.72	21367
854.854	21401
854.988	21169
855.122	21488
855.256	21306
855.39	21469
855.524	21435
855.658	21359
855.792	21351
855.926	21260
856.06	21359
856.194	21439
856.327	21416
856.461	21329
856.595	21264
856.729	21279
856.862	21355
856.996	21420
857.13	21435
857.263	21439
857.397	21397
857.53	21450
857.664	21439
857.797	21359
857.931	21496
858.064	21469
858.197	21408
858.331	21393
858.464	21370
858.597	21329
858.731	21317
858.864	21321
858.997	21294
859.13	21336
859.263	21507
859.396	21336
859.529	21367
859.662	21363
859.795	21351
859.928	21317
860.061	21469
860.194	21591
860.327	21340
860.46	21389
860.592	21561
860.725	21504
860.858	21542
860.99	21351
861.123	21283
861.256	21272
861.388	21283
861.521	22139
861.653	21302
861.786	21169
861.918	21066
862.05	21199
862.183	21344
862.315	21264
862.447	21348
862.58	21260
862.712	21112
862.844	21062
862.976	21222
863.108	21100
863.24	21641
863.372	21024
863.504	21001
863.636	21005
863.768	21260
863.9	21036
864.032	20899
864.164	21013
864.296	21047
864.428	21169
864.559	21119
864.691	21165
864.823	21119
864.954	21058
865.086	21047
865.217	21036
865.349	21028
865.48	20963
865.612	21043
865.743	21146
865.875	20967
866.006	20963
866.137	20948
866.269	21001
866.4	20960
866.531	20895
866.662	20842
866.793	20906
866.924	20918
867.055	20823
867.186	20929
867.317	20948
867.448	20762
867.579	20823
867.71	20762
867.841	20701
867.972	20933
868.103	20967
868.233	20887
868.364	20906
868.495	21013
868.625	21142
868.756	21203
868.886	21047
869.017	21119
869.147	21199
869.278	21291
869.408	21222
869.539	21176
869.669	21138
869.799	21218
869.929	21192
870.06	21264
870.19	21526
870.32	21424
870.45	21481
870.58	21542
870.71	21641
870.84	21576
870.97	21606
871.1	21637
871.23	21698
871.36	21698
871.489	21671
871.619	21675
871.749	21675
871.879	21682
872.008	21850
872.138	21686
872.267	21724
872.397	21523
872.526	21500
872.656	21572
872.785	21648
872.915	21694
873.044	21694
873.173	21698
873.303	21778
873.432	21880
873.561	21865
873.69	21762
873.819	21675
873.948	21884
874.077	21755
874.206	21698
874.335	21717
874.464	21743
874.593	21949
874.722	21903
874.851	22059
874.979	21987
875.108	22025
875.237	21865
875.365	21934
875.494	21907
875.623	22109
875.751	21926
875.88	22029
876.008	22105
876.136	22261
876.265	22280
876.393	22405
876.521	22508
876.65	22470
876.778	22398
876.906	22284
877.034	22287
877.162	22284
877.29	22185
877.418	22352
877.546	22306
877.674	22344
877.802	22246
877.93	22246
878.058	22314
878.185	22181
878.313	22314
878.441	22333
878.568	22139
878.696	22295
878.824	22280
878.951	22417
879.079	22424
879.206	22656
879.333	22542
879.461	22409
879.588	22424
879.715	22462
879.842	22759
879.97	22512
880.097	22196
880.224	22173
880.351	22219
880.478	22067
880.605	22166
880.732	22196
880.859	22447
880.986	22128
881.112	22147
881.239	21979
881.366	21979
881.493	21736
881.619	21675
881.746	21846
881.872	21755
881.999	21629
882.125	21572
882.252	21873
882.378	21732
882.505	21854
882.631	21591
882.757	21386
882.883	21477
883.01	21469
883.136	21458
883.262	21298
883.388	21264
883.514	21477
883.64	21405
883.766	21241
883.892	21131
884.018	21233
884.143	21393
884.269	21405
884.395	21169
884.52	21123
884.646	21116
884.772	21100
884.897	20998
885.023	21081
885.148	21230
885.274	21306
885.399	21085
885.524	21066
885.65	21165
885.775	21028
885.9	21074
886.025	21123
886.15	21142
886.275	20982
886.4	20948
886.525	21020
886.65	21043
886.775	21058
886.9	21051
887.025	21207
887.149	21036
887.274	20823
887.399	20815
887.523	20838
887.648	20750
887.773	20682
887.897	20960
888.021	20895
888.146	20716
888.27	20887
888.395	20895
888.519	20967
888.643	20876
888.767	20868
888.891	20826
889.015	20697
889.139	20651
889.263	20587
889.387	20785
889.511	20754
889.635	20720
889.759	20514
889.883	20617
890.006	20667
890.13	20785
890.254	20473
890.377	20594
890.501	20355
890.624	20473
890.748	20374
890.871	20248
890.995	20309
891.118	20153
891.241	20237
891.364	20168
891.488	20358
891.611	20298
891.734	20210
891.857	20244
891.98	20229
892.103	20206
892.226	20290
892.349	20161
892.471	20031
892.594	20100
892.717	20172
892.839	20142
892.962	20130
893.085	20221
893.207	20119
893.33	19917
893.452	20035
893.575	20103
893.697	19959
893.819	20263
893.941	20199
894.064	20138
894.186	20115
894.308	20020
894.43	20157
894.552	20202
894.674	20183
894.796	20077
894.918	20107
895.04	19997
895.161	20256
895.283	20138
895.405	20027
895.526	20218
895.648	19989
895.769	20134
895.891	20100
896.012	20077
896.134	20145
896.255	20020
896.376	19997
896.498	20168
896.619	20145
896.74	20050
896.861	20161
896.982	20488
897.103	20651
897.224	20385
897.345	20393
897.466	20259
897.587	20233
897.708	20434
897.828	20294
897.949	20206
898.07	20130
898.19	20202
898.311	20412
898.431	20343
898.552	20221
898.672	20457
898.792	20442
898.913	20419
899.033	20161
899.153	20183
899.273	19982
899.393	20054
899.513	20073
899.633	20077
899.753	20145
899.873	19982
899.993	20134
900.113	19913
900.232	19921
900.352	20122
900.472	19875
900.591	19750
900.711	19890
900.83	19784
900.95	19993
901.069	19925
901.189	19712
901.308	19495
901.427	19438
901.546	19499
901.665	19400
901.784	19384
901.904	19304
902.023	19244
902.141	19129
902.26	18970
902.379	19023
902.498	18973
902.617	18863
902.735	19015
902.854	18897
902.973	18882
903.091	18551
903.21	18620
903.328	18620
903.446	18597
903.565	18448
903.683	18365
903.801	18319
903.919	18372
904.038	18289
904.156	18163
904.274	18209
904.392	18266
904.51	18190
904.627	18064
904.745	18102
904.863	18266
904.981	17965
905.098	17885
905.216	17897
905.334	17961
905.451	17843
905.569	17802
905.686	17863
905.803	17748
905.921	17600
906.038	17783
906.155	17642
906.272	17448
906.389	17630
906.506	17414
906.623	17395
906.74	17353
906.857	17292
906.974	17318
907.091	17516
907.208	17509
907.324	17433
907.441	17242
907.557	17159
907.674	17132
907.79	17033
907.907	17151
908.023	17124
908.139	17052
908.256	17155
908.372	16839
908.488	17018
908.604	16862
908.72	16793
908.836	16869
908.952	16873
909.068	16771
909.184	16942
909.3	16828
909.415	16934
909.531	16733
909.647	16649
909.762	16447
909.878	16504
909.993	16599
910.108	16470
910.224	16379
910.339	16455
910.454	16436
910.57	16291
910.685	16310
910.8	16508
910.915	16459
911.03	16337
911.145	16158
911.259	16044
911.374	16135
911.489	16112
911.604	15941
911.718	15926
911.833	15800
911.947	15846
912.062	15686
912.176	15831
912.291	15838
912.405	15823
912.519	16040
912.633	16013
912.748	15823
912.862	15880
912.976	15675
913.09	15603
913.204	15641
913.318	15637
913.431	15759
913.545	15751
913.659	15755
913.772	15652
913.886	15466
914	15500
914.113	15564
914.226	15622
914.34	15564
914.453	15317
914.566	15564
914.68	15378
914.793	15374
914.906	15245
915.019	15074
915.132	15009
915.245	15135
915.358	15211
915.47	15146
915.583	15119
915.696	15047
915.809	15165
915.921	15165
916.034	14986
916.146	14971
916.259	14994
916.371	15161
916.483	15055
916.595	14979
916.708	14960
916.82	14914
916.932	14952
917.044	14921
917.156	14838
917.268	14781
917.38	14773
917.491	14765
917.603	14735
917.715	14864
917.826	14876
917.938	14663
918.049	14556
918.161	14762
918.272	14788
918.384	14887
918.495	14705
918.606	14537
918.717	14347
918.828	14579
918.939	14442
919.05	14419
919.161	14434
919.272	14381
919.383	14351
919.494	14575
919.604	14697
919.715	14511
919.826	14377
919.936	14495
920.047	14583
920.157	14507
920.267	14720
920.378	14507
920.488	14347
920.598	14602
920.708	14826
920.818	14549
920.928	14678
921.038	14773
921.148	14754
921.258	14408
921.368	14343
921.477	14206
921.587	14229
921.697	14092
921.806	14119
921.916	14024
922.025	13978
922.134	13932
922.244	13826
922.353	13849
922.462	13708
922.571	13670
922.68	13441
922.789	13403
922.898	13571
923.007	13480
923.116	13495
923.224	13411
923.333	13388
923.442	13400
923.55	13358
923.659	13438
923.767	13354
923.876	13289
923.984	13403
924.092	13270
924.201	13301
924.309	13206
924.417	13240
924.525	13270
924.633	13171
924.741	14043
924.849	12947
924.956	13129
925.064	12993
925.172	12894
925.279	12897
925.387	13031
925.494	12829
925.602	13114
925.709	12989
925.816	12837
925.924	12817
926.031	12928
926.138	12871
926.245	12886
926.352	12707
926.459	12894
926.566	12966
926.673	12795
926.779	12623
926.886	12627
926.993	12559
927.099	12551
927.206	12407
927.312	12327
927.419	12441
927.525	12479
927.631	12506
927.737	12418
927.843	12342
927.95	12152
928.056	12353
928.162	12330
928.267	12338
928.373	12985
928.479	12350
928.585	12159
928.69	12235
928.796	12296
928.901	12140
929.007	11893
929.112	12155
929.218	12155
929.323	12148
929.428	12041
929.533	12163
929.638	12011
929.743	11999
929.848	12098
929.953	11927
930.058	11920
930.163	11794
930.267	11680
930.372	11939
930.477	11691
930.581	11939
930.685	11756
930.79	11619
930.894	11661
930.998	11535
931.103	11748
931.207	11330
931.311	11261
931.415	11201
931.519	11006
931.623	11045
