Data from test_V78500241_658.txt Node
Date: Fri Mar 25 15:14:26 CST 2022
User: usil
Spectrometer: V785-0024
Trigger mode: 0
Integration Time (sec): 4.000000E-1
Scans to average: 1
Nonlinearity correction enabled: false
Boxcar width: 0
Storing dark spectrum: false
XAxis mode: Wavelengths
Number of Pixels in Spectrum: 1024
>>>>>Begin Spectral Data<<<<<
801.071	27576
801.214	27507
801.356	27214
801.499	27226
801.641	27169
801.783	27203
801.926	27298
802.068	27123
802.211	27138
802.353	26880
802.496	26762
802.638	26868
802.78	26872
802.923	26727
803.065	26712
803.208	26636
803.35	26876
803.492	26804
803.635	26944
803.777	26785
803.919	26899
804.061	27218
804.204	27058
804.346	26864
804.488	26880
804.63	26876
804.773	26796
804.915	26994
805.057	27028
805.199	26948
805.341	27085
805.483	27222
805.626	27032
805.768	26967
805.91	27116
806.052	27077
806.194	27036
806.336	27298
806.478	27108
806.62	27138
806.762	27245
806.904	27443
807.046	27515
807.188	27450
807.33	27348
807.472	27504
807.614	27447
807.756	27420
807.898	27348
808.04	27275
808.182	27272
808.324	27359
808.465	27382
808.607	27416
808.749	27587
808.891	27785
809.033	27911
809.174	27755
809.316	27743
809.458	27679
809.6	27682
809.741	27835
809.883	27953
810.025	27956
810.166	27930
810.308	28051
810.45	28051
810.591	27895
810.733	27720
810.875	27622
811.016	27686
811.158	27610
811.299	27720
811.441	27892
811.582	27865
811.724	27747
811.865	27770
812.007	27679
812.148	27679
812.29	27557
812.431	27850
812.573	28032
812.714	28074
812.855	28196
812.997	28360
813.138	28481
813.279	28512
813.421	28272
813.562	28352
813.703	28124
813.845	27930
813.986	27713
814.127	27481
814.268	27462
814.41	27378
814.551	27302
814.692	27420
814.833	27447
814.974	27386
815.115	27344
815.256	27348
815.397	27275
815.539	27336
815.68	27279
815.821	27176
815.962	27173
816.103	27203
816.244	27077
816.385	27028
816.526	26929
816.666	26769
816.807	26686
816.948	26712
817.089	26853
817.23	26868
817.371	26693
817.512	26693
817.653	26686
817.793	26678
817.934	26686
818.075	26720
818.216	26842
818.356	26583
818.497	26625
818.638	26518
818.778	26434
818.919	26355
819.06	26484
819.2	26636
819.341	26541
819.481	26686
819.622	26792
819.762	27070
819.903	26975
820.043	26906
820.184	26891
820.324	26853
820.465	26986
820.605	26785
820.746	26663
820.886	26617
821.026	26678
821.167	26746
821.307	26735
821.447	26556
821.588	26579
821.728	26408
821.868	26381
822.008	26210
822.149	26172
822.289	26069
822.429	25822
822.569	25868
822.709	25921
822.849	25655
822.99	25613
823.13	25662
823.27	25700
823.41	25426
823.55	25419
823.69	25495
823.83	25483
823.97	25403
824.11	25194
824.25	25217
824.389	25369
824.529	25381
824.669	25449
824.809	25407
824.949	25495
825.089	25304
825.228	25403
825.368	25133
825.508	25240
825.648	25118
825.787	25164
825.927	25285
826.067	25050
826.206	25152
826.346	25164
826.485	25152
826.625	25266
826.765	25282
826.904	25221
827.044	24856
827.183	24825
827.323	24973
827.462	24924
827.601	24817
827.741	24875
827.88	24772
828.02	24848
828.159	24814
828.298	24840
828.437	24837
828.577	24875
828.716	24924
828.855	24878
828.994	24715
829.134	24475
829.273	24536
829.412	24555
829.551	24498
829.69	24707
829.829	24612
829.968	24623
830.107	24734
830.246	24608
830.385	24410
830.524	24456
830.663	24372
830.802	24327
830.941	24323
831.08	24133
831.219	24285
831.357	24300
831.496	24384
831.635	24159
831.774	24133
831.913	24140
832.051	23961
832.19	24083
832.329	24011
832.467	24018
832.606	23893
832.744	23790
832.883	23847
833.022	23718
833.16	23897
833.299	23939
833.437	23901
833.576	24007
833.714	24026
833.852	23977
833.991	23935
834.129	23965
834.267	24022
834.406	23973
834.544	23897
834.682	23988
834.821	23783
834.959	24114
835.097	23855
835.235	24003
835.373	23824
835.511	23889
835.65	23859
835.788	23707
835.926	23642
836.064	23615
836.202	23684
836.34	23813
836.478	23920
836.615	23722
836.753	23927
836.891	23756
837.029	23703
837.167	23733
837.305	23649
837.443	23634
837.58	23684
837.718	23577
837.856	23627
837.993	23539
838.131	23455
838.269	23395
838.406	23459
838.544	23600
838.681	23208
838.819	23265
838.956	23060
839.094	23022
839.231	23208
839.369	23200
839.506	23440
839.643	23482
839.781	23155
839.918	23109
840.055	23136
840.193	23056
840.33	23003
840.467	22946
840.604	23003
840.742	23246
840.879	22908
841.016	22999
841.153	22930
841.29	23044
841.427	23033
841.564	23094
841.701	23025
841.838	22889
841.975	22972
842.112	22984
842.249	22911
842.385	22687
842.522	23037
842.659	22805
842.796	22721
842.933	22767
843.069	22721
843.206	22843
843.343	22946
843.479	22774
843.616	22755
843.752	22550
843.889	22550
844.025	22702
844.162	22489
844.298	22592
844.435	22557
844.571	22512
844.708	22554
844.844	22729
844.98	22767
845.117	22698
845.253	22405
845.389	22409
845.525	22478
845.661	22421
845.798	22299
845.934	22204
846.07	22268
846.206	22268
846.342	22348
846.478	22162
846.614	22173
846.75	22101
846.886	22010
847.022	22101
847.158	22078
847.294	22048
847.429	22010
847.565	21926
847.701	22185
847.837	21736
847.972	21717
848.108	21789
848.244	21797
848.379	21698
848.515	21496
848.65	21564
848.786	21656
848.921	21557
849.057	21656
849.192	21747
849.328	21538
849.463	21610
849.598	21443
849.734	21599
849.869	21340
850.004	21302
850.14	21348
850.275	21329
850.41	21294
850.545	21283
850.68	21317
850.815	21302
850.95	21272
851.085	21576
851.22	21401
851.355	21370
851.49	21348
851.625	21321
851.76	21355
851.895	21218
852.03	21108
852.165	21359
852.299	21389
852.434	21332
852.569	21549
852.703	21374
852.838	21519
852.973	21549
853.107	21507
853.242	21325
853.376	21142
853.511	21161
853.645	21275
853.78	21344
853.914	21214
854.048	21211
854.183	21100
854.317	21218
854.451	21397
854.585	21230
854.72	21142
854.854	21226
854.988	21161
855.122	21119
855.256	21066
855.39	21093
855.524	21237
855.658	21157
855.792	21268
855.926	21184
856.06	21192
856.194	21256
856.327	21226
856.461	21180
856.595	21180
856.729	21154
856.862	21325
856.996	21218
857.13	21275
857.263	21283
857.397	21237
857.53	21169
857.664	21138
857.797	21252
857.931	21249
858.064	21184
858.197	21214
858.331	21180
858.464	21203
858.597	21138
858.731	21089
858.864	21085
858.997	21142
859.13	21241
859.263	21272
859.396	21245
859.529	21241
859.662	21203
859.795	21096
859.928	21135
860.061	21298
860.194	21344
860.327	21294
860.46	21317
860.592	21355
860.725	21325
860.858	21268
860.99	21268
861.123	21131
861.256	21089
861.388	21226
861.521	21941
861.653	21039
861.786	20990
861.918	20944
862.05	21161
862.183	20967
862.315	21043
862.447	21157
862.58	21127
862.712	20929
862.844	20937
862.976	20921
863.108	20971
863.24	21374
863.372	20895
863.504	20796
863.636	20830
863.768	20933
863.9	20941
864.032	20842
864.164	20792
864.296	20880
864.428	20929
864.559	20872
864.691	21020
864.823	20971
864.954	20971
865.086	20857
865.217	20883
865.349	20598
865.48	20739
865.612	20788
865.743	20971
865.875	20765
866.006	20743
866.137	20758
866.269	20857
866.4	20693
866.531	20701
866.662	20762
866.793	20705
866.924	20731
867.055	20811
867.186	20731
867.317	20727
867.448	20587
867.579	20625
867.71	20716
867.841	20632
867.972	20872
868.103	20750
868.233	20708
868.364	20731
868.495	20944
868.625	20762
868.756	21036
868.886	20845
869.017	20872
869.147	21089
869.278	21104
869.408	20956
869.539	20979
869.669	21013
869.799	20967
869.929	21062
870.06	20902
870.19	21332
870.32	21370
870.45	21226
870.58	21272
870.71	21359
870.84	21526
870.97	21355
871.1	21462
871.23	21458
871.36	21652
871.489	21447
871.619	21515
871.749	21485
871.879	21564
872.008	21709
872.138	21507
872.267	21485
872.397	21473
872.526	21405
872.656	21511
872.785	21469
872.915	21583
873.044	21747
873.173	21572
873.303	21717
873.432	21583
873.561	21660
873.69	21663
873.819	21553
873.948	21713
874.077	21580
874.206	21595
874.335	21572
874.464	21846
874.593	21774
874.722	21857
874.851	21922
874.979	21816
875.108	21918
875.237	21804
875.365	21682
875.494	21838
875.623	21998
875.751	21827
875.88	21739
876.008	21895
876.136	22059
876.265	22162
876.393	22356
876.521	22310
876.65	22253
876.778	22173
876.906	22040
877.034	22120
877.162	22112
877.29	22139
877.418	22116
877.546	22223
877.674	22169
877.802	22109
877.93	22147
878.058	22196
878.185	22131
878.313	22082
878.441	22120
878.568	21983
878.696	22105
878.824	22200
878.951	22207
879.079	22371
879.206	22531
879.333	22253
879.461	22158
879.588	22310
879.715	22341
879.842	22478
879.97	22257
880.097	22074
880.224	21998
880.351	21926
880.478	22070
880.605	21884
880.732	21945
880.859	22158
880.986	21998
881.112	22032
881.239	21812
881.366	21907
881.493	21736
881.619	21469
881.746	21618
881.872	21618
881.999	21526
882.125	21542
882.252	21511
882.378	21534
882.505	21701
882.631	21447
882.757	21283
882.883	21389
883.01	21329
883.136	21199
883.262	21275
883.388	21005
883.514	21336
883.64	21336
883.766	21077
883.892	20963
884.018	21047
884.143	21226
884.269	21310
884.395	21039
884.52	20815
884.646	20960
884.772	20842
884.897	20815
885.023	20925
885.148	20998
885.274	21036
885.399	20921
885.524	20899
885.65	20956
885.775	20838
885.9	20891
886.025	20990
886.15	21036
886.275	20891
886.4	20826
886.525	20937
886.65	20842
886.775	20834
886.9	21043
887.025	20998
887.149	20819
887.274	20811
887.399	20533
887.523	20667
887.648	20552
887.773	20556
887.897	20765
888.021	20739
888.146	20670
888.27	20754
888.395	20785
888.519	20845
888.643	20625
888.767	20697
888.891	20606
889.015	20480
889.139	20598
889.263	20469
889.387	20503
889.511	20678
889.635	20644
889.759	20393
889.883	20549
890.006	20408
890.13	20511
890.254	20396
890.377	20492
890.501	20210
890.624	20237
890.748	20210
890.871	20183
890.995	20046
891.118	19875
891.241	20062
891.364	20008
891.488	20202
891.611	20122
891.734	20008
891.857	20100
891.98	20069
892.103	20058
892.226	20039
892.349	20020
892.471	19852
892.594	19974
892.717	20024
892.839	19845
892.962	19959
893.085	20065
893.207	19947
893.33	19883
893.452	19883
893.575	20088
893.697	19909
893.819	20081
893.941	20111
894.064	20233
894.186	20035
894.308	19811
894.43	20073
894.552	20161
894.674	20096
894.796	19826
894.918	19959
895.04	19860
895.161	20065
895.283	20016
895.405	19959
895.526	20157
895.648	19989
895.769	20020
895.891	20031
896.012	20065
896.134	20161
896.255	20115
896.376	20073
896.498	19982
896.619	19986
896.74	19887
896.861	20008
896.982	20259
897.103	20320
897.224	20305
897.345	20168
897.466	20183
897.587	20244
897.708	20351
897.828	20286
897.949	20119
898.07	19811
898.19	20100
898.311	20313
898.431	20130
898.552	20157
898.672	20381
898.792	20237
898.913	20278
899.033	20050
899.153	20096
899.273	20005
899.393	19913
899.513	19982
899.633	20005
899.753	19951
899.873	19772
899.993	19982
900.113	19967
900.232	19989
900.352	19944
900.472	19898
900.591	19700
900.711	19841
900.83	19803
900.95	19818
901.069	19879
901.189	19670
901.308	19438
901.427	19365
901.546	19293
901.665	19312
901.784	19396
901.904	19179
902.023	19126
902.141	18928
902.26	18829
902.379	18947
902.498	18867
902.617	18783
902.735	18897
902.854	18776
902.973	18684
903.091	18597
903.21	18422
903.328	18547
903.446	18521
903.565	18422
903.683	18334
903.801	18144
903.919	18292
904.038	18254
904.156	18045
904.274	18125
904.392	18030
904.51	18079
904.627	18079
904.745	18136
904.863	18098
904.981	17916
905.098	17855
905.216	17729
905.334	17737
905.451	17843
905.569	17741
905.686	17809
905.803	17695
905.921	17543
906.038	17592
906.155	17581
906.272	17463
906.389	17562
906.506	17254
906.623	17280
906.74	17315
906.857	17185
906.974	17258
907.091	17280
907.208	17421
907.324	17269
907.441	17113
907.557	17006
907.674	16995
907.79	16885
907.907	16999
908.023	16965
908.139	16987
908.256	17045
908.372	16896
908.488	16896
908.604	16778
908.72	16725
908.836	16748
908.952	16767
909.068	16755
909.184	16850
909.3	16717
909.415	16744
909.531	16649
909.647	16485
909.762	16405
909.878	16413
909.993	16497
910.108	16489
910.224	16413
910.339	16424
910.454	16348
910.57	16215
910.685	16200
910.8	16531
910.915	16341
911.03	16295
911.145	16124
911.259	16150
911.374	16143
911.489	15998
911.604	15903
911.718	15812
911.833	15865
911.947	15751
912.062	15564
912.176	15831
912.291	15759
912.405	15705
912.519	15998
912.633	15998
912.748	15816
912.862	15743
912.976	15675
913.09	15458
913.204	15481
913.318	15622
913.431	15660
913.545	15572
913.659	15660
913.772	15542
913.886	15473
914	15370
914.113	15526
914.226	15603
914.34	15462
914.453	15302
914.566	15401
914.68	15302
914.793	15211
914.906	15062
915.019	15066
915.132	14906
915.245	15020
915.358	15070
915.47	14929
915.583	14994
915.696	15062
915.809	15093
915.921	15199
916.034	14982
916.146	14921
916.259	14956
916.371	14921
916.483	14887
916.595	14914
916.708	14861
916.82	14868
916.932	14857
917.044	14792
917.156	14785
917.268	14701
917.38	14629
917.491	14564
917.603	14705
917.715	14758
917.826	14648
917.938	14636
918.049	14511
918.161	14640
918.272	14693
918.384	14720
918.495	14587
918.606	14473
918.717	14408
918.828	14503
918.939	14389
919.05	14415
919.161	14465
919.272	14214
919.383	14320
919.494	14469
919.604	14712
919.715	14454
919.826	14324
919.936	14381
920.047	14484
920.157	14450
920.267	14537
920.378	14476
920.488	14396
920.598	14514
920.708	14674
920.818	14511
920.928	14514
921.038	14670
921.148	14598
921.258	14404
921.368	14221
921.477	14134
921.587	14096
921.697	14046
921.806	14195
921.916	14054
922.025	13917
922.134	13871
922.244	13772
922.353	13845
922.462	13700
922.571	13639
922.68	13438
922.789	13407
922.898	13441
923.007	13377
923.116	13430
923.224	13388
923.333	13384
923.442	13335
923.55	13145
923.659	13297
923.767	13198
923.876	13247
923.984	13304
924.092	13149
924.201	13149
924.309	13270
924.417	13255
924.525	13133
924.633	13206
924.741	13841
924.849	12837
924.956	13065
925.064	12821
925.172	12810
925.279	12783
925.387	12943
925.494	12840
925.602	13034
925.709	12859
925.816	12722
925.924	12833
926.031	12905
926.138	12787
926.245	12947
926.352	12703
926.459	12821
926.566	12901
926.673	12745
926.779	12662
926.886	12593
926.993	12486
927.099	12509
927.206	12292
927.312	12433
927.419	12464
927.525	12460
927.631	12407
927.737	12319
927.843	12254
927.95	12178
928.056	12201
928.162	12209
928.267	12308
928.373	12905
928.479	12319
928.585	12087
928.69	12197
928.796	12243
928.901	12064
929.007	11965
929.112	12079
929.218	12072
929.323	12034
929.428	11973
929.533	12091
929.638	11908
929.743	11954
929.848	11992
929.953	11927
930.058	11824
930.163	11741
930.267	11745
930.372	11802
930.477	11653
930.581	11779
930.685	11752
930.79	11562
930.894	11623
930.998	11570
931.103	11600
931.207	11353
931.311	11265
931.415	11140
931.519	10900
931.623	10866
