Data from test_V78500241_780.txt Node
Date: Fri Mar 25 15:15:17 CST 2022
User: usil
Spectrometer: V785-0024
Trigger mode: 0
Integration Time (sec): 4.000000E-1
Scans to average: 1
Nonlinearity correction enabled: false
Boxcar width: 0
Storing dark spectrum: false
XAxis mode: Wavelengths
Number of Pixels in Spectrum: 1024
>>>>>Begin Spectral Data<<<<<
801.071	28284
801.214	28109
801.356	28067
801.499	28021
801.641	27846
801.783	27953
801.926	28017
802.068	27838
802.211	27808
802.353	27698
802.496	27515
802.638	27447
802.78	27519
802.923	27488
803.065	27405
803.208	27557
803.35	27496
803.492	27625
803.635	27679
803.777	27534
803.919	27564
804.061	27914
804.204	27667
804.346	27625
804.488	27557
804.63	27637
804.773	27641
804.915	27679
805.057	27827
805.199	27625
805.341	27861
805.483	27759
805.626	27800
805.768	27667
805.91	27800
806.052	27747
806.194	27705
806.336	28002
806.478	27880
806.62	27899
806.762	27953
806.904	28135
807.046	28401
807.188	28181
807.33	28196
807.472	28249
807.614	28162
807.756	28150
807.898	28070
808.04	28070
808.182	28192
808.324	28074
808.465	28287
808.607	28398
808.749	28512
808.891	28512
809.033	28733
809.174	28500
809.316	28459
809.458	28557
809.6	28523
809.741	28778
809.883	28710
810.025	28778
810.166	28885
810.308	28805
810.45	28812
810.591	28805
810.733	28649
810.875	28550
811.016	28451
811.158	28508
811.299	28577
811.441	28774
811.582	28649
811.724	28512
811.865	28451
812.007	28443
812.148	28413
812.29	28516
812.431	28694
812.573	28949
812.714	29064
812.855	29200
812.997	29250
813.138	29292
813.279	29258
813.421	29064
813.562	29193
813.703	28938
813.845	28767
813.986	28390
814.127	28344
814.268	28200
814.41	28188
814.551	28131
814.692	28306
814.833	28265
814.974	28200
815.115	28333
815.256	27975
815.397	28234
815.539	28143
815.68	28135
815.821	27972
815.962	28040
816.103	28013
816.244	27899
816.385	27930
816.526	27873
816.666	27713
816.807	27420
816.948	27595
817.089	27823
817.23	27698
817.371	27523
817.512	27519
817.653	27374
817.793	27439
817.934	27519
818.075	27454
818.216	27496
818.356	27587
818.497	27424
818.638	27317
818.778	27386
818.919	27207
819.06	27291
819.2	27363
819.341	27553
819.481	27591
819.622	27789
819.762	27865
819.903	27789
820.043	27835
820.184	27648
820.324	27698
820.465	27720
820.605	27739
820.746	27682
820.886	27625
821.026	27671
821.167	27591
821.307	27686
821.447	27473
821.588	27504
821.728	27249
821.868	27119
822.008	27127
822.149	26982
822.289	26994
822.429	26629
822.569	26735
822.709	26758
822.849	26663
822.99	26511
823.13	26571
823.27	26423
823.41	26332
823.55	26180
823.69	26450
823.83	26282
823.97	26259
824.11	26161
824.25	26145
824.389	26073
824.529	26336
824.669	26142
824.809	26229
824.949	26309
825.089	26256
825.228	26305
825.368	26130
825.508	26111
825.648	26073
825.787	26138
825.927	26142
826.067	26020
826.206	26073
826.346	26073
826.485	26191
826.625	26149
826.765	26202
826.904	26218
827.044	25906
827.183	25879
827.323	25693
827.462	25856
827.601	25799
827.741	25788
827.88	25734
828.02	25689
828.159	25769
828.298	25731
828.437	25772
828.577	25731
828.716	25928
828.855	25852
828.994	25540
829.134	25377
829.273	25464
829.412	25400
829.551	25419
829.69	25510
829.829	25464
829.968	25392
830.107	25518
830.246	25445
830.385	25445
830.524	25301
830.663	25278
830.802	25133
830.941	25080
831.08	25057
831.219	25084
831.357	25175
831.496	25285
831.635	25183
831.774	25012
831.913	24985
832.051	24943
832.19	24875
832.329	24935
832.467	24856
832.606	24684
832.744	24627
832.883	24779
833.022	24703
833.16	24707
833.299	24837
833.437	24875
833.576	24916
833.714	24833
833.852	24871
833.991	24886
834.129	24913
834.267	24867
834.406	24844
834.544	24760
834.682	24939
834.821	24863
834.959	24947
835.097	24688
835.235	24905
835.373	24734
835.511	24798
835.65	24673
835.788	24608
835.926	24517
836.064	24426
836.202	24509
836.34	24654
836.478	24665
836.615	24555
836.753	24665
836.891	24875
837.029	24711
837.167	24589
837.305	24582
837.443	24448
837.58	24486
837.718	24422
837.856	24429
837.993	24429
838.131	24350
838.269	24308
838.406	24418
838.544	24327
838.681	24155
838.819	24155
838.956	23863
839.094	23958
839.231	24018
839.369	24144
839.506	24441
839.643	24213
839.781	23988
839.918	23874
840.055	23821
840.193	23961
840.33	23775
840.467	23931
840.604	23961
840.742	24076
840.879	23737
841.016	23764
841.153	23646
841.29	23874
841.427	23733
841.564	23821
841.701	23798
841.838	23874
841.975	23642
842.112	23665
842.249	23672
842.385	23695
842.522	23813
842.659	23539
842.796	23665
842.933	23638
843.069	23707
843.206	23528
843.343	23748
843.479	23604
843.616	23505
843.752	23474
843.889	23341
844.025	23577
844.162	23387
844.298	23547
844.435	23448
844.571	23436
844.708	23429
844.844	23516
844.98	23531
845.117	23421
845.253	23311
845.389	23296
845.525	23159
845.661	23197
845.798	23273
845.934	23200
846.07	23105
846.206	23143
846.342	23117
846.478	23094
846.614	22866
846.75	22771
846.886	22683
847.022	22801
847.158	22873
847.294	22869
847.429	22805
847.565	22854
847.701	22923
847.837	22634
847.972	22607
848.108	22569
848.244	22668
848.379	22504
848.515	22440
848.65	22500
848.786	22428
848.921	22398
849.057	22584
849.192	22440
849.328	22462
849.463	22474
849.598	22405
849.734	22287
849.869	22143
850.004	22192
850.14	22268
850.275	22139
850.41	22048
850.545	22059
850.68	22207
850.815	22169
850.95	22143
851.085	22337
851.22	22276
851.355	22185
851.49	22101
851.625	22002
851.76	22169
851.895	22086
852.03	22051
852.165	22268
852.299	22207
852.434	22265
852.569	22200
852.703	22154
852.838	22249
852.973	22261
853.107	22322
853.242	22109
853.376	22074
853.511	21994
853.645	21926
853.78	22135
853.914	22017
854.048	21892
854.183	21861
854.317	21991
854.451	22105
854.585	21987
854.72	22040
854.854	22013
854.988	21975
855.122	21987
855.256	21888
855.39	21838
855.524	22006
855.658	22086
855.792	22070
855.926	22040
856.06	22006
856.194	22036
856.327	21915
856.461	22025
856.595	21880
856.729	21983
856.862	22147
856.996	22078
857.13	22048
857.263	22013
857.397	22162
857.53	22017
857.664	22067
857.797	22154
857.931	22055
858.064	21998
858.197	22131
858.331	22063
858.464	21918
858.597	21895
858.731	21953
858.864	22013
858.997	21953
859.13	22032
859.263	21941
859.396	22059
859.529	21956
859.662	21956
859.795	21907
859.928	21903
860.061	22032
860.194	22265
860.327	22025
860.46	21838
860.592	22128
860.725	22036
860.858	22082
860.99	21953
861.123	21998
861.256	21991
861.388	21945
861.521	22672
861.653	21945
861.786	21770
861.918	21892
862.05	21918
862.183	21888
862.315	21945
862.447	22082
862.58	21880
862.712	21743
862.844	21686
862.976	21869
863.108	21873
863.24	22131
863.372	21641
863.504	21690
863.636	21663
863.768	21736
863.9	21816
864.032	21599
864.164	21637
864.296	21816
864.428	21720
864.559	21736
864.691	21766
864.823	21743
864.954	21709
865.086	21599
865.217	21637
865.349	21545
865.48	21618
865.612	21694
865.743	21679
865.875	21694
866.006	21633
866.137	21511
866.269	21618
866.4	21507
866.531	21454
866.662	21485
866.793	21542
866.924	21572
867.055	21519
867.186	21663
867.317	21507
867.448	21530
867.579	21542
867.71	21370
867.841	21424
867.972	21675
868.103	21408
868.233	21526
868.364	21462
868.495	21595
868.625	21671
868.756	21816
868.886	21610
869.017	21850
869.147	21850
869.278	21979
869.408	21846
869.539	21663
869.669	21755
869.799	21827
869.929	21972
870.06	21831
870.19	22086
870.32	22082
870.45	22147
870.58	22166
870.71	22268
870.84	22219
870.97	22207
871.1	22105
871.23	22337
871.36	22337
871.489	22173
871.619	22417
871.749	22303
871.879	22352
872.008	22516
872.138	22291
872.267	22238
872.397	22169
872.526	22188
872.656	22223
872.785	22185
872.915	22367
873.044	22451
873.173	22333
873.303	22512
873.432	22402
873.561	22409
873.69	22413
873.819	22371
873.948	22462
874.077	22360
874.206	22299
874.335	22341
874.464	22577
874.593	22656
874.722	22497
874.851	22607
874.979	22557
875.108	22637
875.237	22550
875.365	22402
875.494	22284
875.623	22557
875.751	22489
875.88	22481
876.008	22694
876.136	22748
876.265	22976
876.393	23044
876.521	22961
876.65	23071
876.778	22961
876.906	22942
877.034	22889
877.162	22999
877.29	22904
877.418	22991
877.546	22900
877.674	22927
877.802	22896
877.93	22915
878.058	22763
878.185	22744
878.313	22858
878.441	22850
878.568	22713
878.696	22854
878.824	22873
878.951	22987
879.079	23010
879.206	23079
879.333	23086
879.461	22911
879.588	23060
879.715	23041
879.842	23075
879.97	22908
880.097	22831
880.224	22668
880.351	22782
880.478	22710
880.605	22717
880.732	22828
880.859	23041
880.986	22782
881.112	22683
881.239	22615
881.366	22459
881.493	22367
881.619	22310
881.746	22337
881.872	22253
881.999	22211
882.125	22143
882.252	22295
882.378	22257
882.505	22428
882.631	22090
882.757	22051
882.883	22044
883.01	22078
883.136	21953
883.262	21945
883.388	21907
883.514	22032
883.64	21915
883.766	21964
883.892	21637
884.018	21724
884.143	21846
884.269	22070
884.395	21709
884.52	21591
884.646	21671
884.772	21526
884.897	21488
885.023	21656
885.148	21675
885.274	21785
885.399	21770
885.524	21652
885.65	21629
885.775	21720
885.9	21485
886.025	21732
886.15	21698
886.275	21591
886.4	21614
886.525	21595
886.65	21492
886.775	21542
886.9	21618
887.025	21827
887.149	21576
887.274	21473
887.399	21496
887.523	21378
887.648	21332
887.773	21176
887.897	21462
888.021	21401
888.146	21344
888.27	21386
888.395	21443
888.519	21317
888.643	21424
888.767	21496
888.891	21260
889.015	21020
889.139	21233
889.263	21135
889.387	21249
889.511	21458
889.635	21325
889.759	21165
889.883	21131
890.006	21230
890.13	21226
890.254	21131
890.377	21188
890.501	20971
890.624	20864
890.748	21043
890.871	20769
890.995	20686
891.118	20674
891.241	20769
891.364	20659
891.488	20811
891.611	20777
891.734	20613
891.857	20667
891.98	20807
892.103	20655
892.226	20754
892.349	20750
892.471	20503
892.594	20609
892.717	20625
892.839	20564
892.962	20659
893.085	20735
893.207	20731
893.33	20457
893.452	20507
893.575	20651
893.697	20632
893.819	20777
893.941	20693
894.064	20762
894.186	20598
894.308	20579
894.43	20765
894.552	20883
894.674	20625
894.796	20590
894.918	20564
895.04	20617
895.161	20731
895.283	20689
895.405	20556
895.526	20640
895.648	20716
895.769	20590
895.891	20590
896.012	20720
896.134	20640
896.255	20609
896.376	20526
896.498	20533
896.619	20492
896.74	20598
896.861	20674
896.982	20880
897.103	21058
897.224	20823
897.345	20887
897.466	20895
897.587	20849
897.708	20971
897.828	20902
897.949	20682
898.07	20815
898.19	20708
898.311	20872
898.431	20746
898.552	20727
898.672	20861
898.792	20933
898.913	20804
899.033	20743
899.153	20651
899.273	20533
899.393	20476
899.513	20549
899.633	20518
899.753	20629
899.873	20427
899.993	20697
900.113	20438
900.232	20579
900.352	20488
900.472	20366
900.591	20374
900.711	20358
900.83	20271
900.95	20271
901.069	20415
901.189	20233
901.308	20050
901.427	19879
901.546	19993
901.665	19944
901.784	19967
901.904	19677
902.023	19605
902.141	19491
902.26	19453
902.379	19548
902.498	19502
902.617	19335
902.735	19605
902.854	19369
902.973	19426
903.091	19133
903.21	19069
903.328	19061
903.446	19027
903.565	18829
903.683	18901
903.801	18768
903.919	18806
904.038	18829
904.156	18734
904.274	18779
904.392	18673
904.51	18555
904.627	18608
904.745	18654
904.863	18688
904.981	18471
905.098	18369
905.216	18410
905.334	18334
905.451	18285
905.569	18254
905.686	18414
905.803	18323
905.921	18117
906.038	18152
906.155	18091
906.272	18045
906.389	17988
906.506	17920
906.623	17946
906.74	17821
906.857	17737
906.974	17809
907.091	17840
907.208	17961
907.324	17954
907.441	17691
907.557	17665
907.674	17592
907.79	17539
907.907	17615
908.023	17554
908.139	17558
908.256	17452
908.372	17478
908.488	17471
908.604	17391
908.72	17292
908.836	17231
908.952	17402
909.068	17246
909.184	17303
909.3	17189
909.415	17250
909.531	17307
909.647	17098
909.762	16946
909.878	16930
909.993	16957
910.108	16900
910.224	17022
910.339	16984
910.454	16885
910.57	16820
910.685	16782
910.8	17025
910.915	17060
911.03	16759
911.145	16649
911.259	16554
911.374	16504
911.489	16478
911.604	16497
911.718	16360
911.833	16272
911.947	16036
912.062	16128
912.176	16204
912.291	16371
912.405	16295
912.519	16481
912.633	16348
912.748	16375
912.862	16223
912.976	16097
913.09	15949
913.204	16101
913.318	16109
913.431	16223
913.545	16112
913.659	16200
913.772	15991
913.886	15945
914	15968
914.113	15979
914.226	16025
914.34	15956
914.453	15964
914.566	15892
914.68	15831
914.793	15785
914.906	15580
915.019	15572
915.132	15462
915.245	15473
915.358	15473
915.47	15496
915.583	15500
915.696	15584
915.809	15587
915.921	15679
916.034	15420
916.146	15370
916.259	15378
916.371	15488
916.483	15473
916.595	15363
916.708	15272
916.82	15260
916.932	15275
917.044	15344
917.156	15344
917.268	15230
917.38	15100
917.491	15108
917.603	15157
917.715	15161
917.826	15230
917.938	15138
918.049	14975
918.161	15081
918.272	15214
918.384	15226
918.495	15017
918.606	14937
918.717	14849
918.828	14933
918.939	14921
919.05	14853
919.161	14906
919.272	14724
919.383	14769
919.494	14857
919.604	15058
919.715	14796
919.826	14777
919.936	14853
920.047	14853
920.157	14883
920.267	15119
920.378	14895
920.488	14815
920.598	15055
920.708	15157
920.818	15001
920.928	14937
921.038	15169
921.148	15055
921.258	14826
921.368	14724
921.477	14606
921.587	14530
921.697	14415
921.806	14549
921.916	14370
922.025	14362
922.134	14233
922.244	14256
922.353	14252
922.462	14103
922.571	13959
922.68	13925
922.789	13849
922.898	13811
923.007	13772
923.116	13974
923.224	13822
923.333	13906
923.442	13681
923.55	13696
923.659	13647
923.767	13708
923.876	13567
923.984	13700
924.092	13582
924.201	13674
924.309	13628
924.417	13636
924.525	13571
924.633	13457
924.741	14309
924.849	13335
924.956	13377
925.064	13221
925.172	13282
925.279	13259
925.387	13297
925.494	13228
925.602	13365
925.709	13400
925.816	13118
925.924	13232
926.031	13362
926.138	13160
926.245	13270
926.352	13118
926.459	13213
926.566	13255
926.673	13110
926.779	13050
926.886	12954
926.993	12863
927.099	12791
927.206	12779
927.312	12722
927.419	12829
927.525	12783
927.631	12810
927.737	12768
927.843	12722
927.95	12456
928.056	12623
928.162	12612
928.267	12703
928.373	13343
928.479	12673
928.585	12441
928.69	12536
928.796	12616
928.901	12498
929.007	12350
929.112	12506
929.218	12490
929.323	12410
929.428	12315
929.533	12467
929.638	12342
929.743	12239
929.848	12414
929.953	12258
930.058	12125
930.163	12159
930.267	11988
930.372	12159
930.477	12045
930.581	12209
930.685	12091
930.79	11870
930.894	12011
930.998	11901
931.103	11939
931.207	11649
931.311	11608
931.415	11596
931.519	11299
931.623	11280
