Data from test_V78500241_1914.txt Node
Date: Fri Mar 25 15:23:11 CST 2022
User: usil
Spectrometer: V785-0024
Trigger mode: 0
Integration Time (sec): 4.000000E-1
Scans to average: 1
Nonlinearity correction enabled: false
Boxcar width: 0
Storing dark spectrum: false
XAxis mode: Wavelengths
Number of Pixels in Spectrum: 1024
>>>>>Begin Spectral Data<<<<<
801.071	27701
801.214	27443
801.356	27192
801.499	27332
801.641	27074
801.783	27100
801.926	27127
802.068	27150
802.211	26902
802.353	27058
802.496	26800
802.638	26712
802.78	26910
802.923	26606
803.065	26541
803.208	26823
803.35	26864
803.492	26937
803.635	26925
803.777	26746
803.919	26792
804.061	27351
804.204	26990
804.346	26792
804.488	26815
804.63	26906
804.773	26762
804.915	26921
805.057	27001
805.199	26914
805.341	27032
805.483	27001
805.626	27123
805.768	26933
805.91	27043
806.052	26971
806.194	27096
806.336	27241
806.478	27001
806.62	27009
806.762	27180
806.904	27298
807.046	27507
807.188	27519
807.33	27431
807.472	27507
807.614	27534
807.756	27511
807.898	27275
808.04	27336
808.182	27348
808.324	27291
808.465	27264
808.607	27553
808.749	27679
808.891	27728
809.033	27675
809.174	27720
809.316	27564
809.458	27534
809.6	27743
809.741	27747
809.883	27884
810.025	28002
810.166	27899
810.308	27991
810.45	27873
810.591	27732
810.733	27641
810.875	27652
811.016	27515
811.158	27447
811.299	27675
811.441	27724
811.582	27907
811.724	27644
811.865	27648
812.007	27675
812.148	27534
812.29	27770
812.431	27842
812.573	28002
812.714	28036
812.855	28105
812.997	28131
813.138	28405
813.279	28181
813.421	28070
813.562	28120
813.703	28101
813.845	27899
813.986	27553
814.127	27591
814.268	27454
814.41	27386
814.551	27378
814.692	27386
814.833	27142
814.974	27241
815.115	27473
815.256	27260
815.397	27184
815.539	27119
815.68	27096
815.821	27009
815.962	27146
816.103	27252
816.244	27036
816.385	26948
816.526	26979
816.666	26659
816.807	26613
816.948	26716
817.089	26792
817.23	26655
817.371	26526
817.512	26511
817.653	26693
817.793	26537
817.934	26636
818.075	26579
818.216	26651
818.356	26545
818.497	26507
818.638	26259
818.778	26351
818.919	26419
819.06	26415
819.2	26469
819.341	26457
819.481	26670
819.622	26693
819.762	26857
819.903	26910
820.043	26876
820.184	26724
820.324	26598
820.465	26769
820.605	26769
820.746	26750
820.886	26575
821.026	26781
821.167	26705
821.307	26762
821.447	26560
821.588	26488
821.728	26434
821.868	26271
822.008	26180
822.149	26134
822.289	26157
822.429	25852
822.569	25723
822.709	25761
822.849	25563
822.99	25582
823.13	25639
823.27	25597
823.41	25373
823.55	25324
823.69	25483
823.83	25426
823.97	25297
824.11	25225
824.25	25270
824.389	25213
824.529	25362
824.669	25225
824.809	25415
824.949	25304
825.089	25266
825.228	25278
825.368	25152
825.508	25160
825.648	25065
825.787	25141
825.927	25183
826.067	25080
826.206	25126
826.346	25057
826.485	25053
826.625	25046
826.765	25137
826.904	25046
827.044	24905
827.183	24935
827.323	24833
827.462	24825
827.601	24837
827.741	24730
827.88	24783
828.02	24627
828.159	24875
828.298	24973
828.437	24985
828.577	24840
828.716	24829
828.855	24700
828.994	24509
829.134	24642
829.273	24597
829.412	24498
829.551	24437
829.69	24361
829.829	24547
829.968	24677
830.107	24536
830.246	24433
830.385	24479
830.524	24414
830.663	24407
830.802	24262
830.941	24171
831.08	24102
831.219	24186
831.357	24201
831.496	24311
831.635	24228
831.774	24201
831.913	24053
832.051	23893
832.19	23874
832.329	24038
832.467	23847
832.606	23707
832.744	23745
832.883	23786
833.022	23836
833.16	23771
833.299	23855
833.437	23920
833.576	23893
833.714	23870
833.852	23885
833.991	23969
834.129	24011
834.267	24053
834.406	23863
834.544	23942
834.682	23942
834.821	23832
834.959	24026
835.097	23832
835.235	23931
835.373	23832
835.511	23904
835.65	23847
835.788	23824
835.926	23672
836.064	23596
836.202	23524
836.34	23756
836.478	23714
836.615	23691
836.753	23703
836.891	23821
837.029	23885
837.167	23726
837.305	23653
837.443	23672
837.58	23558
837.718	23668
837.856	23684
837.993	23535
838.131	23524
838.269	23417
838.406	23486
838.544	23429
838.681	23383
838.819	23303
838.956	23083
839.094	23090
839.231	23143
839.369	23147
839.506	23425
839.643	23303
839.781	23029
839.918	23014
840.055	22987
840.193	23094
840.33	22987
840.467	22923
840.604	22984
840.742	23330
840.879	22881
841.016	22892
841.153	22850
841.29	23216
841.427	22915
841.564	22953
841.701	22946
841.838	23048
841.975	22938
842.112	22820
842.249	22691
842.385	22850
842.522	22972
842.659	22831
842.796	22767
842.933	22778
843.069	22748
843.206	22778
843.343	22786
843.479	22843
843.616	22713
843.752	22679
843.889	22550
844.025	22782
844.162	22519
844.298	22656
844.435	22611
844.571	22337
844.708	22557
844.844	22611
844.98	22672
845.117	22694
845.253	22500
845.389	22413
845.525	22287
845.661	22409
845.798	22306
845.934	22272
846.07	22162
846.206	22253
846.342	22409
846.478	22284
846.614	22002
846.75	21857
846.886	22017
847.022	22063
847.158	21869
847.294	22029
847.429	22006
847.565	22025
847.701	22177
847.837	21793
847.972	21728
848.108	21846
848.244	21728
848.379	21644
848.515	21504
848.65	21507
848.786	21614
848.921	21599
849.057	21618
849.192	21652
849.328	21557
849.463	21572
849.598	21485
849.734	21386
849.869	21374
850.004	21313
850.14	21374
850.275	21359
850.41	21401
850.545	21359
850.68	21230
850.815	21287
850.95	21302
851.085	21580
851.22	21420
851.355	21218
851.49	21382
851.625	21207
851.76	21332
851.895	21245
852.03	21332
852.165	21405
852.299	21291
852.434	21504
852.569	21435
852.703	21294
852.838	21389
852.973	21523
853.107	21469
853.242	21249
853.376	21184
853.511	21218
853.645	21146
853.78	21207
853.914	21169
854.048	21100
854.183	21176
854.317	21150
854.451	21382
854.585	21089
854.72	21157
854.854	21287
854.988	21142
855.122	21249
855.256	21005
855.39	21070
855.524	21283
855.658	21123
855.792	21112
855.926	21161
856.06	21348
856.194	21294
856.327	20998
856.461	21074
856.595	21039
856.729	21123
856.862	21230
856.996	21214
857.13	21199
857.263	21321
857.397	21245
857.53	21302
857.664	21291
857.797	21336
857.931	21306
858.064	21218
858.197	21214
858.331	21123
858.464	21154
858.597	21036
858.731	21146
858.864	21154
858.997	21036
859.13	21161
859.263	21230
859.396	21157
859.529	21150
859.662	21138
859.795	21252
859.928	21260
860.061	21359
860.194	21260
860.327	21173
860.46	21131
860.592	21188
860.725	21310
860.858	21260
860.99	21119
861.123	21093
861.256	21199
861.388	21104
861.521	21869
861.653	20975
861.786	20960
861.918	20941
862.05	21013
862.183	21203
862.315	21108
862.447	21131
862.58	21020
862.712	20842
862.844	20807
862.976	20845
863.108	20906
863.24	21249
863.372	20807
863.504	20925
863.636	20819
863.768	20895
863.9	20982
864.032	20792
864.164	20895
864.296	20925
864.428	20948
864.559	20864
864.691	20986
864.823	20861
864.954	20807
865.086	20868
865.217	20739
865.349	20667
865.48	20689
865.612	20769
865.743	20872
865.875	20918
866.006	20731
866.137	20819
866.269	20781
866.4	20697
866.531	20712
866.662	20632
866.793	20613
866.924	20765
867.055	20727
867.186	20648
867.317	20686
867.448	20564
867.579	20640
867.71	20697
867.841	20579
867.972	20708
868.103	20727
868.233	20754
868.364	20712
868.495	20792
868.625	20971
868.756	21032
868.886	20769
869.017	20933
869.147	21017
869.278	21039
869.408	20891
869.539	20998
869.669	21028
869.799	21020
869.929	20982
870.06	21108
870.19	21203
870.32	21218
870.45	21272
870.58	21428
870.71	21496
870.84	21469
870.97	21378
871.1	21313
871.23	21504
871.36	21519
871.489	21466
871.619	21473
871.749	21447
871.879	21507
872.008	21686
872.138	21603
872.267	21431
872.397	21466
872.526	21222
872.656	21386
872.785	21507
872.915	21553
873.044	21694
873.173	21530
873.303	21633
873.432	21724
873.561	21587
873.69	21511
873.819	21572
873.948	21625
874.077	21587
874.206	21412
874.335	21595
874.464	21667
874.593	21823
874.722	21724
874.851	21804
874.979	21713
875.108	21831
875.237	21717
875.365	21485
875.494	21819
875.623	21861
875.751	21850
875.88	21774
876.008	21930
876.136	21903
876.265	22147
876.393	22455
876.521	22306
876.65	22280
876.778	22154
876.906	22143
877.034	22230
877.162	22116
877.29	22124
877.418	22109
877.546	22097
877.674	22150
877.802	22082
877.93	22017
878.058	22128
878.185	22032
878.313	22200
878.441	22230
878.568	21964
878.696	22093
878.824	22287
878.951	22112
879.079	22299
879.206	22375
879.333	22265
879.461	22219
879.588	22249
879.715	22337
879.842	22561
879.97	22215
880.097	21983
880.224	21930
880.351	21998
880.478	21911
880.605	21949
880.732	21865
880.859	22154
880.986	22013
881.112	21899
881.239	21876
881.366	21797
881.493	21580
881.619	21660
881.746	21542
881.872	21576
881.999	21477
882.125	21526
882.252	21462
882.378	21545
882.505	21831
882.631	21359
882.757	21313
882.883	21310
883.01	21332
883.136	21241
883.262	21173
883.388	21062
883.514	21386
883.64	21192
883.766	21287
883.892	20986
884.018	21165
884.143	21294
884.269	21203
884.395	21020
884.52	20792
884.646	21013
884.772	20765
884.897	20682
885.023	20887
885.148	20914
885.274	21013
885.399	20967
885.524	20921
885.65	20914
885.775	20880
885.9	20807
886.025	20956
886.15	21024
886.275	20933
886.4	20720
886.525	20811
886.65	20762
886.775	20746
886.9	20937
887.025	21104
887.149	20933
887.274	20811
887.399	20678
887.523	20648
887.648	20617
887.773	20568
887.897	20689
888.021	20724
888.146	20533
888.27	20834
888.395	20716
888.519	20735
888.643	20712
888.767	20648
888.891	20606
889.015	20454
889.139	20492
889.263	20434
889.387	20545
889.511	20716
889.635	20568
889.759	20400
889.883	20499
890.006	20507
890.13	20632
890.254	20400
890.377	20450
890.501	20225
890.624	20233
890.748	20275
890.871	20149
890.995	20062
891.118	20088
891.241	20043
891.364	20035
891.488	20267
891.611	20092
891.734	20046
891.857	20130
891.98	20149
892.103	20218
892.226	20065
892.349	20020
892.471	19833
892.594	19955
892.717	19955
892.839	19833
892.962	19944
893.085	20115
893.207	19974
893.33	19947
893.452	19852
893.575	19944
893.697	19963
893.819	20172
893.941	20195
894.064	20001
894.186	19837
894.308	19917
894.43	20081
894.552	20187
894.674	20054
894.796	19883
894.918	19963
895.04	19898
895.161	20039
895.283	20039
895.405	19917
895.526	19970
895.648	19989
895.769	20058
895.891	19974
896.012	20012
896.134	20100
896.255	19959
896.376	20031
896.498	19959
896.619	19959
896.74	19928
896.861	19982
896.982	20278
897.103	20457
897.224	20259
897.345	20305
897.466	20035
897.587	20199
897.708	20221
897.828	20180
897.949	20115
898.07	20081
898.19	20259
898.311	20263
898.431	20237
898.552	20122
898.672	20282
898.792	20206
898.913	20153
899.033	20054
899.153	20073
899.273	19887
899.393	19955
899.513	19993
899.633	19974
899.753	19963
899.873	19879
899.993	20012
900.113	19811
900.232	19913
900.352	19845
900.472	19738
900.591	19750
900.711	19772
900.83	19609
900.95	19780
901.069	19795
901.189	19670
901.308	19297
901.427	19354
901.546	19247
901.665	19373
901.784	19434
901.904	19129
902.023	19050
902.141	18920
902.26	18875
902.379	18882
902.498	18863
902.617	18677
902.735	18810
902.854	18859
902.973	18684
903.091	18551
903.21	18460
903.328	18536
903.446	18399
903.565	18403
903.683	18433
903.801	18171
903.919	18315
904.038	18254
904.156	18091
904.274	18133
904.392	18022
904.51	18098
904.627	18015
904.745	18102
904.863	18171
904.981	17878
905.098	17786
905.216	17855
905.334	17847
905.451	17764
905.569	17729
905.686	17748
905.803	17767
905.921	17547
906.038	17680
906.155	17581
906.272	17410
906.389	17501
906.506	17265
906.623	17315
906.74	17284
906.857	17117
906.974	17296
907.091	17265
907.208	17455
907.324	17277
907.441	17166
907.557	17041
907.674	17060
907.79	16908
907.907	16873
908.023	17056
908.139	17056
908.256	16908
908.372	16896
908.488	16839
908.604	16850
908.72	16759
908.836	16717
908.952	16733
909.068	16618
909.184	16812
909.3	16774
909.415	16744
909.531	16664
909.647	16413
909.762	16409
909.878	16394
909.993	16470
910.108	16390
910.224	16390
910.339	16440
910.454	16276
910.57	16310
910.685	16177
910.8	16554
910.915	16554
911.03	16185
911.145	16120
911.259	15998
911.374	16082
911.489	15949
911.604	15880
911.718	15797
911.833	15759
911.947	15709
912.062	15591
912.176	15762
912.291	15785
912.405	15675
912.519	15857
912.633	15960
912.748	15800
912.862	15747
912.976	15515
913.09	15485
913.204	15526
913.318	15549
913.431	15663
913.545	15679
913.659	15633
913.772	15458
913.886	15378
914	15420
914.113	15420
914.226	15553
914.34	15469
914.453	15336
914.566	15416
914.68	15351
914.793	15272
914.906	15074
915.019	14967
915.132	14845
915.245	15005
915.358	15066
915.47	14933
915.583	14948
915.696	15047
915.809	15150
915.921	15085
916.034	14868
916.146	14895
916.259	14895
916.371	14956
916.483	14956
916.595	14849
916.708	14910
916.82	14807
916.932	14861
917.044	14735
917.156	14830
917.268	14674
917.38	14712
917.491	14602
917.603	14651
917.715	14720
917.826	14705
917.938	14495
918.049	14492
918.161	14651
918.272	14724
918.384	14682
918.495	14579
918.606	14552
918.717	14332
918.828	14358
918.939	14457
919.05	14347
919.161	14324
919.272	14202
919.383	14225
919.494	14396
919.604	14640
919.715	14423
919.826	14332
919.936	14377
920.047	14423
920.157	14355
920.267	14564
920.378	14419
920.488	14358
920.598	14651
920.708	14686
920.818	14438
920.928	14541
921.038	14613
921.148	14533
921.258	14396
921.368	14332
921.477	14115
921.587	14088
921.697	13989
921.806	14123
921.916	14012
922.025	13822
922.134	13822
922.244	13636
922.353	13750
922.462	13590
922.571	13578
922.68	13521
922.789	13266
922.898	13343
923.007	13354
923.116	13339
923.224	13358
923.333	13384
923.442	13301
923.55	13168
923.659	13141
923.767	13175
923.876	13236
923.984	13221
924.092	13171
924.201	13206
924.309	13133
924.417	13164
924.525	13084
924.633	13091
924.741	14081
924.849	12760
924.956	12970
925.064	12916
925.172	12840
925.279	12791
925.387	12871
925.494	12802
925.602	12993
925.709	12837
925.816	12783
925.924	12722
926.031	12844
926.138	12730
926.245	12859
926.352	12692
926.459	12833
926.566	12863
926.673	12787
926.779	12589
926.886	12612
926.993	12513
927.099	12452
927.206	12372
927.312	12350
927.419	12342
927.525	12475
927.631	12357
927.737	12224
927.843	12315
927.95	12117
928.056	12197
928.162	12254
928.267	12224
928.373	12848
928.479	12330
928.585	12049
928.69	12262
928.796	12190
928.901	12083
929.007	11984
929.112	12114
929.218	11973
929.323	11931
929.428	12007
929.533	12110
929.638	11882
929.743	11832
929.848	11969
929.953	11923
930.058	11843
930.163	11577
930.267	11630
930.372	11756
930.477	11558
930.581	11859
930.685	11691
930.79	11505
930.894	11551
930.998	11516
931.103	11646
931.207	11269
931.311	11239
931.415	11174
931.519	10915
931.623	11018
