Data from test_V78500241_934.txt Node
Date: Fri Mar 25 15:16:21 CST 2022
User: usil
Spectrometer: V785-0024
Trigger mode: 0
Integration Time (sec): 4.000000E-1
Scans to average: 1
Nonlinearity correction enabled: false
Boxcar width: 0
Storing dark spectrum: false
XAxis mode: Wavelengths
Number of Pixels in Spectrum: 1024
>>>>>Begin Spectral Data<<<<<
801.071	28082
801.214	28002
801.356	27713
801.499	27686
801.641	27542
801.783	27606
801.926	27660
802.068	27507
802.211	27427
802.353	27473
802.496	27173
802.638	27180
802.78	27268
802.923	27287
803.065	27218
803.208	27203
803.35	27424
803.492	27336
803.635	27427
803.777	27416
803.919	27427
804.061	27660
804.204	27530
804.346	27340
804.488	27329
804.63	27336
804.773	27443
804.915	27374
805.057	27644
805.199	27549
805.341	27416
805.483	27622
805.626	27614
805.768	27412
805.91	27549
806.052	27618
806.194	27450
806.336	27907
806.478	27663
806.62	27591
806.762	27713
806.904	27888
807.046	28097
807.188	28070
807.33	27979
807.472	27949
807.614	27869
807.756	27949
807.898	27865
808.04	27800
808.182	28017
808.324	27797
808.465	27857
808.607	28287
808.749	28166
808.891	28200
809.033	28219
809.174	28363
809.316	28287
809.458	28344
809.6	28287
809.741	28363
809.883	28474
810.025	28375
810.166	28500
810.308	28721
810.45	28500
810.591	28390
810.733	28371
810.875	28226
811.016	28185
811.158	28196
811.299	28253
811.441	28409
811.582	28344
811.724	28215
811.865	28173
812.007	28215
812.148	28314
812.29	28356
812.431	28504
812.573	28561
812.714	28721
812.855	28816
812.997	28915
813.138	29044
813.279	28843
813.421	28850
813.562	28755
813.703	28611
813.845	28599
813.986	28177
814.127	28166
814.268	27907
814.41	27934
814.551	27926
814.692	28109
814.833	27945
814.974	27838
815.115	28002
815.256	27930
815.397	27766
815.539	27949
815.68	27686
815.821	27686
815.962	27880
816.103	27694
816.244	27751
816.385	27614
816.526	27610
816.666	27447
816.807	27355
816.948	27302
817.089	27389
817.23	27310
817.371	27260
817.512	27252
817.653	27100
817.793	27195
817.934	27260
818.075	27367
818.216	27180
818.356	27146
818.497	27100
818.638	27074
818.778	27028
818.919	27089
819.06	27154
819.2	27279
819.341	27264
819.481	27321
819.622	27344
819.762	27572
819.903	27500
820.043	27523
820.184	27427
820.324	27336
820.465	27580
820.605	27431
820.746	27306
820.886	27317
821.026	27332
821.167	27260
821.307	27351
821.447	27321
821.588	27119
821.728	27020
821.868	26986
822.008	26921
822.149	26716
822.289	26705
822.429	26427
822.569	26423
822.709	26351
822.849	26412
822.99	26286
823.13	26191
823.27	26183
823.41	25982
823.55	26020
823.69	26122
823.83	26180
823.97	26058
824.11	25898
824.25	25887
824.389	25871
824.529	26164
824.669	25830
824.809	26001
824.949	26050
825.089	25852
825.228	25917
825.368	25761
825.508	25761
825.648	25868
825.787	25887
825.927	25856
826.067	25723
826.206	25772
826.346	25719
826.485	25750
826.625	25704
826.765	25864
826.904	25841
827.044	25575
827.183	25597
827.323	25365
827.462	25499
827.601	25400
827.741	25502
827.88	25487
828.02	25392
828.159	25445
828.298	25518
828.437	25594
828.577	25297
828.716	25518
828.855	25499
828.994	25190
829.134	25202
829.273	25259
829.412	25061
829.551	25095
829.69	25202
829.829	25255
829.968	25316
830.107	25266
830.246	25285
830.385	25175
830.524	25065
830.663	24962
830.802	24814
830.941	24833
831.08	24669
831.219	24829
831.357	24894
831.496	25023
831.635	24779
831.774	24783
831.913	24669
832.051	24601
832.19	24551
832.329	24570
832.467	24483
832.606	24445
832.744	24536
832.883	24479
833.022	24441
833.16	24376
833.299	24540
833.437	24532
833.576	24563
833.714	24604
833.852	24620
833.991	24502
834.129	24707
834.267	24692
834.406	24555
834.544	24684
834.682	24642
834.821	24467
834.959	24639
835.097	24563
835.235	24578
835.373	24627
835.511	24540
835.65	24422
835.788	24334
835.926	24228
836.064	24167
836.202	24319
836.34	24460
836.478	24464
836.615	24334
836.753	24395
836.891	24494
837.029	24414
837.167	24315
837.305	24308
837.443	24319
837.58	24190
837.718	24391
837.856	24224
837.993	24144
838.131	24171
838.269	24049
838.406	24209
838.544	24087
838.681	23878
838.819	23916
838.956	23672
839.094	23714
839.231	23649
839.369	23794
839.506	24083
839.643	24011
839.781	23623
839.918	23615
840.055	23756
840.193	23764
840.33	23551
840.467	23661
840.604	23596
840.742	23931
840.879	23436
841.016	23573
841.153	23505
841.29	23684
841.427	23596
841.564	23581
841.701	23429
841.838	23638
841.975	23501
842.112	23474
842.249	23528
842.385	23444
842.522	23573
842.659	23360
842.796	23402
842.933	23376
843.069	23269
843.206	23383
843.343	23379
843.479	23353
843.616	23368
843.752	23200
843.889	23189
844.025	23269
844.162	23109
844.298	23296
844.435	23124
844.571	23121
844.708	23185
844.844	23330
844.98	23227
845.117	23315
845.253	23132
845.389	23109
845.525	23083
845.661	22980
845.798	22660
845.934	22934
846.07	22831
846.206	22820
846.342	22915
846.478	22816
846.614	22736
846.75	22573
846.886	22546
847.022	22759
847.158	22771
847.294	22634
847.429	22664
847.565	22497
847.701	22847
847.837	22333
847.972	22291
848.108	22432
848.244	22451
848.379	22333
848.515	22219
848.65	22284
848.786	22196
848.921	22257
849.057	22348
849.192	22318
849.328	22207
849.463	22207
849.598	22192
849.734	22139
849.869	22154
850.004	21922
850.14	21960
850.275	21991
850.41	21831
850.545	21865
850.68	22013
850.815	21918
850.95	21998
851.085	22128
851.22	22025
851.355	21983
851.49	21873
851.625	21903
851.76	21972
851.895	21953
852.03	21964
852.165	21945
852.299	22013
852.434	21968
852.569	21808
852.703	21968
852.838	22021
852.973	22143
853.107	22063
853.242	21915
853.376	21766
853.511	21667
853.645	21778
853.78	21854
853.914	21819
854.048	21778
854.183	21747
854.317	21945
854.451	22040
854.585	21759
854.72	21812
854.854	21915
854.988	21625
855.122	21739
855.256	21770
855.39	21812
855.524	21835
855.658	21743
855.792	21800
855.926	21759
856.06	21857
856.194	21873
856.327	21698
856.461	21785
856.595	21747
856.729	21808
856.862	21789
856.996	21778
857.13	21751
857.263	21850
857.397	21876
857.53	21816
857.664	21804
857.797	21972
857.931	21850
858.064	21800
858.197	21922
858.331	21774
858.464	21690
858.597	21724
858.731	21747
858.864	21789
858.997	21713
859.13	21804
859.263	21812
859.396	21926
859.529	21816
859.662	21751
859.795	21766
859.928	21770
860.061	21949
860.194	21930
860.327	21793
860.46	21789
860.592	21861
860.725	21983
860.858	21846
860.99	21800
861.123	21652
861.256	21644
861.388	21793
861.521	22519
861.653	21652
861.786	21568
861.918	21557
862.05	21637
862.183	21671
862.315	21793
862.447	21759
862.58	21781
862.712	21458
862.844	21428
862.976	21454
863.108	21553
863.24	21789
863.372	21405
863.504	21488
863.636	21393
863.768	21526
863.9	21386
864.032	21538
864.164	21473
864.296	21496
864.428	21610
864.559	21545
864.691	21553
864.823	21454
864.954	21477
865.086	21374
865.217	21405
865.349	21245
865.48	21401
865.612	21401
865.743	21576
865.875	21397
866.006	21397
866.137	21435
866.269	21428
866.4	21359
866.531	21397
866.662	21279
866.793	21252
866.924	21348
867.055	21386
867.186	21321
867.317	21260
867.448	21310
867.579	21283
867.71	21214
867.841	21317
867.972	21283
868.103	21317
868.233	21329
868.364	21370
868.495	21428
868.625	21443
868.756	21701
868.886	21340
869.017	21637
869.147	21652
869.278	21580
869.408	21500
869.539	21504
869.669	21595
869.799	21629
869.929	21561
870.06	21705
870.19	21808
870.32	21747
870.45	21888
870.58	21972
870.71	22078
870.84	21880
870.97	21899
871.1	21915
871.23	22006
871.36	22105
871.489	22090
871.619	22162
871.749	22021
871.879	22261
872.008	22200
872.138	22124
872.267	22063
872.397	22051
872.526	21842
872.656	21926
872.785	22006
872.915	22143
873.044	22097
873.173	22074
873.303	22204
873.432	22219
873.561	22246
873.69	22185
873.819	22166
873.948	22188
874.077	22112
874.206	22070
874.335	21968
874.464	22219
874.593	22360
874.722	22363
874.851	22303
874.979	22421
875.108	22440
875.237	22367
875.365	22276
875.494	22356
875.623	22390
875.751	22314
875.88	22325
876.008	22516
876.136	22481
876.265	22782
876.393	22847
876.521	22713
876.65	22873
876.778	22634
876.906	22660
877.034	22702
877.162	22702
877.29	22713
877.418	22637
877.546	22755
877.674	22618
877.802	22748
877.93	22793
878.058	22637
878.185	22634
878.313	22755
878.441	22675
878.568	22527
878.696	22675
878.824	22824
878.951	22767
879.079	22957
879.206	22900
879.333	22839
879.461	22755
879.588	22759
879.715	22889
879.842	22923
879.97	22850
880.097	22417
880.224	22546
880.351	22580
880.478	22508
880.605	22531
880.732	22508
880.859	22713
880.986	22573
881.112	22535
881.239	22371
881.366	22223
881.493	22147
881.619	22051
881.746	22154
881.872	22112
881.999	22093
882.125	21953
882.252	22105
882.378	22166
882.505	22192
882.631	21861
882.757	21804
882.883	21915
883.01	21751
883.136	21679
883.262	21698
883.388	21625
883.514	21842
883.64	21850
883.766	21755
883.892	21553
884.018	21561
884.143	21698
884.269	21778
884.395	21568
884.52	21325
884.646	21412
884.772	21359
884.897	21393
885.023	21462
885.148	21389
885.274	21671
885.399	21435
885.524	21435
885.65	21485
885.775	21477
885.9	21260
886.025	21515
886.15	21500
886.275	21439
886.4	21435
886.525	21431
886.65	21279
886.775	21351
886.9	21557
887.025	21618
887.149	21313
887.274	21241
887.399	21192
887.523	21203
887.648	21131
887.773	21074
887.897	21287
888.021	21203
888.146	21036
888.27	21363
888.395	21363
888.519	21291
888.643	21359
888.767	21252
888.891	21020
889.015	20990
889.139	21013
889.263	21051
889.387	21195
889.511	21230
889.635	21207
889.759	21077
889.883	20944
890.006	20979
890.13	21112
890.254	20944
890.377	20956
890.501	20765
890.624	20731
890.748	20792
890.871	20644
890.995	20560
891.118	20492
891.241	20609
891.364	20629
891.488	20648
891.611	20507
891.734	20530
891.857	20492
891.98	20667
892.103	20659
892.226	20530
892.349	20385
892.471	20256
892.594	20488
892.717	20549
892.839	20469
892.962	20503
893.085	20454
893.207	20465
893.33	20237
893.452	20309
893.575	20423
893.697	20400
893.819	20602
893.941	20663
894.064	20629
894.186	20370
894.308	20404
894.43	20583
894.552	20514
894.674	20385
894.796	20328
894.918	20473
895.04	20320
895.161	20484
895.283	20446
895.405	20328
895.526	20389
895.648	20457
895.769	20248
895.891	20541
896.012	20583
896.134	20640
896.255	20480
896.376	20244
896.498	20469
896.619	20495
896.74	20419
896.861	20480
896.982	20750
897.103	20883
897.224	20708
897.345	20648
897.466	20552
897.587	20655
897.708	20731
897.828	20659
897.949	20583
898.07	20571
898.19	20590
898.311	20602
898.431	20682
898.552	20590
898.672	20678
898.792	20769
898.913	20705
899.033	20571
899.153	20431
899.273	20339
899.393	20294
899.513	20507
899.633	20381
899.753	20423
899.873	20218
899.993	20412
900.113	20332
900.232	20309
900.352	20381
900.472	20225
900.591	20214
900.711	20252
900.83	20142
900.95	20183
901.069	20206
901.189	19978
901.308	19871
901.427	19655
901.546	19594
901.665	19776
901.784	19830
901.904	19639
902.023	19525
902.141	19312
902.26	19316
902.379	19407
902.498	19171
902.617	19247
902.735	19202
902.854	19278
902.973	19110
903.091	18894
903.21	18886
903.328	18962
903.446	18871
903.565	18787
903.683	18650
903.801	18608
903.919	18726
904.038	18741
904.156	18410
904.274	18604
904.392	18509
904.51	18330
904.627	18528
904.745	18589
904.863	18536
904.981	18270
905.098	18205
905.216	18125
905.334	18224
905.451	18220
905.569	18159
905.686	18083
905.803	18091
905.921	17908
906.038	18060
906.155	17939
906.272	17847
906.389	17878
906.506	17699
906.623	17653
906.74	17668
906.857	17551
906.974	17691
907.091	17752
907.208	17805
907.324	17699
907.441	17638
907.557	17486
907.674	17383
907.79	17311
907.907	17410
908.023	17421
908.139	17490
908.256	17436
908.372	17356
908.488	17124
908.604	17067
908.72	17060
908.836	17208
908.952	17090
909.068	17124
909.184	17151
909.3	17014
909.415	17269
909.531	17056
909.647	16873
909.762	16881
909.878	16881
909.993	16900
910.108	16820
910.224	16869
910.339	16778
910.454	16793
910.57	16679
910.685	16656
910.8	16744
910.915	16733
911.03	16535
911.145	16440
911.259	16379
911.374	16413
911.489	16257
911.604	16390
911.718	16128
911.833	16143
911.947	16109
912.062	16059
912.176	16116
912.291	16169
912.405	16166
912.519	16440
912.633	16310
912.748	16284
912.862	16188
912.976	15983
913.09	15941
913.204	15915
913.318	16002
913.431	16120
913.545	16044
913.659	16112
913.772	15987
913.886	15781
914	15720
914.113	15831
914.226	15880
914.34	15823
914.453	15701
914.566	15869
914.68	15584
914.793	15618
914.906	15424
915.019	15340
915.132	15317
915.245	15431
915.358	15367
915.47	15245
915.583	15374
915.696	15439
915.809	15359
915.921	15469
916.034	15283
916.146	15230
916.259	15310
916.371	15348
916.483	15363
916.595	15169
916.708	15108
916.82	15214
916.932	15180
917.044	15161
917.156	15211
917.268	15055
917.38	14998
917.491	15047
917.603	14986
917.715	15055
917.826	15097
917.938	14979
918.049	14880
918.161	14960
918.272	15093
918.384	15131
918.495	14880
918.606	14853
918.717	14693
918.828	14724
918.939	14883
919.05	14773
919.161	14788
919.272	14514
919.383	14670
919.494	14773
919.604	14918
919.715	14735
919.826	14583
919.936	14724
920.047	14819
920.157	14739
920.267	14834
920.378	14735
920.488	14689
920.598	14834
920.708	15039
920.818	14834
920.928	14937
921.038	15001
921.148	14921
921.258	14693
921.368	14617
921.477	14522
921.587	14427
921.697	14339
921.806	14480
921.916	14225
922.025	14111
922.134	14065
922.244	14012
922.353	14119
922.462	13963
922.571	13883
922.68	13772
922.789	13746
922.898	13658
923.007	13685
923.116	13784
923.224	13700
923.333	13666
923.442	13670
923.55	13502
923.659	13502
923.767	13548
923.876	13544
923.984	13590
924.092	13567
924.201	13502
924.309	13453
924.417	13415
924.525	13327
924.633	13415
924.741	14286
924.849	13217
924.956	13335
925.064	13171
925.172	13122
925.279	13050
925.387	13122
925.494	13187
925.602	13179
925.709	13194
925.816	13008
925.924	13152
926.031	13187
926.138	13129
926.245	13145
926.352	13019
926.459	13137
926.566	13103
926.673	13053
926.779	12829
926.886	12890
926.993	12753
927.099	12673
927.206	12711
927.312	12650
927.419	12662
927.525	12719
927.631	12684
927.737	12601
927.843	12467
927.95	12532
928.056	12448
928.162	12601
928.267	12486
928.373	13103
928.479	12513
928.585	12281
928.69	12464
928.796	12483
928.901	12407
929.007	12357
929.112	12319
929.218	12285
929.323	12266
929.428	12247
929.533	12304
929.638	12110
929.743	12201
929.848	12178
929.953	12167
930.058	12140
930.163	11920
930.267	11931
930.372	12011
930.477	11958
930.581	12155
930.685	11999
930.79	11786
930.894	11828
930.998	11802
931.103	11916
931.207	11638
931.311	11383
931.415	11318
931.519	11178
931.623	11143
