Data from test_V78500241_2220.txt Node
Date: Fri Mar 25 15:25:18 CST 2022
User: usil
Spectrometer: V785-0024
Trigger mode: 0
Integration Time (sec): 4.000000E-1
Scans to average: 1
Nonlinearity correction enabled: false
Boxcar width: 0
Storing dark spectrum: false
XAxis mode: Wavelengths
Number of Pixels in Spectrum: 1024
>>>>>Begin Spectral Data<<<<<
801.071	27770
801.214	27781
801.356	27572
801.499	27405
801.641	27473
801.783	27287
801.926	27355
802.068	27359
802.211	27287
802.353	27264
802.496	26971
802.638	26967
802.78	26982
802.923	27043
803.065	27036
803.208	26899
803.35	27081
803.492	27017
803.635	27203
803.777	27150
803.919	27150
804.061	27572
804.204	27329
804.346	27051
804.488	27024
804.63	27112
804.773	27142
804.915	27306
805.057	27291
805.199	27123
805.341	27340
805.483	27496
805.626	27306
805.768	27230
805.91	27268
806.052	27336
806.194	27230
806.336	27504
806.478	27272
806.62	27469
806.762	27405
806.904	27675
807.046	27854
807.188	27800
807.33	27797
807.472	27827
807.614	27739
807.756	27736
807.898	27561
808.04	27610
808.182	27599
808.324	27648
808.465	27603
808.607	27857
808.749	27953
808.891	28135
809.033	28051
809.174	27987
809.316	27953
809.458	27987
809.6	27968
809.741	28059
809.883	28131
810.025	28246
810.166	28261
810.308	28268
810.45	28086
810.591	28261
810.733	28010
810.875	27998
811.016	27892
811.158	27819
811.299	27964
811.441	28169
811.582	28063
811.724	28067
811.865	27869
812.007	27994
812.148	27983
812.29	28013
812.431	28162
812.573	28284
812.714	28337
812.855	28417
812.997	28516
813.138	28713
813.279	28668
813.421	28535
813.562	28538
813.703	28280
813.845	28101
813.986	27835
814.127	27690
814.268	27717
814.41	27785
814.551	27595
814.692	27713
814.833	27648
814.974	27557
815.115	27713
815.256	27496
815.397	27534
815.539	27466
815.68	27416
815.821	27485
815.962	27431
816.103	27386
816.244	27416
816.385	27169
816.526	27085
816.666	27123
816.807	27074
816.948	26990
817.089	27024
817.23	27020
817.371	26796
817.512	26861
817.653	26944
817.793	26762
817.934	26880
818.075	26849
818.216	26902
818.356	26880
818.497	26648
818.638	26625
818.778	26640
818.919	26667
819.06	26682
819.2	26925
819.341	26952
819.481	26914
819.622	26906
819.762	27279
819.903	27233
820.043	27150
820.184	27146
820.324	26994
820.465	27260
820.605	27051
820.746	27066
820.886	26937
821.026	27005
821.167	26952
821.307	26967
821.447	27036
821.588	26902
821.728	26651
821.868	26526
822.008	26355
822.149	26457
822.289	26400
822.429	25966
822.569	25944
822.709	26130
822.849	25860
822.99	25902
823.13	25890
823.27	25845
823.41	25769
823.55	25674
823.69	25693
823.83	25597
823.97	25742
824.11	25510
824.25	25464
824.389	25548
824.529	25613
824.669	25472
824.809	25681
824.949	25628
825.089	25635
825.228	25506
825.368	25343
825.508	25354
825.648	25240
825.787	25396
825.927	25377
826.067	25365
826.206	25377
826.346	25388
826.485	25411
826.625	25426
826.765	25453
826.904	25529
827.044	25118
827.183	25266
827.323	25069
827.462	25114
827.601	25107
827.741	25061
827.88	25171
828.02	24928
828.159	24996
828.298	25065
828.437	25164
828.577	25019
828.716	25255
828.855	24992
828.994	24817
829.134	24684
829.273	24890
829.412	24947
829.551	24757
829.69	24856
829.829	24810
829.968	24821
830.107	24939
830.246	24901
830.385	24669
830.524	24795
830.663	24681
830.802	24570
830.941	24445
831.08	24445
831.219	24505
831.357	24601
831.496	24688
831.635	24410
831.774	24365
831.913	24152
832.051	24296
832.19	24334
832.329	24201
832.467	23931
832.606	24064
832.744	23935
832.883	23999
833.022	24041
833.16	24110
833.299	24098
833.437	24003
833.576	24174
833.714	24144
833.852	24174
833.991	24220
834.129	24190
834.267	24079
834.406	24083
834.544	24136
834.682	24209
834.821	24254
834.959	24353
835.097	24026
835.235	24125
835.373	24197
835.511	24216
835.65	24057
835.788	23935
835.926	23779
836.064	23737
836.202	23817
836.34	23954
836.478	24034
836.615	24083
836.753	23942
836.891	23980
837.029	24038
837.167	23969
837.305	23859
837.443	23954
837.58	23836
837.718	23851
837.856	23821
837.993	23760
838.131	23908
838.269	23707
838.406	23764
838.544	23752
838.681	23459
838.819	23471
838.956	23372
839.094	23299
839.231	23493
839.369	23478
839.506	23668
839.643	23558
839.781	23421
839.918	23235
840.055	23269
840.193	23185
840.33	23265
840.467	23273
840.604	23189
840.742	23467
840.879	23166
841.016	23022
841.153	23197
841.29	23311
841.427	23242
841.564	23124
841.701	23025
841.838	23239
841.975	23140
842.112	23090
842.249	23014
842.385	23006
842.522	23136
842.659	22953
842.796	22908
842.933	23025
843.069	22877
843.206	22809
843.343	22991
843.479	22942
843.616	22934
843.752	22744
843.889	22748
844.025	22790
844.162	22679
844.298	22873
844.435	22786
844.571	22698
844.708	22763
844.844	22847
844.98	22812
845.117	22786
845.253	22740
845.389	22675
845.525	22653
845.661	22634
845.798	22554
845.934	22554
846.07	22470
846.206	22557
846.342	22649
846.478	22489
846.614	22265
846.75	22128
846.886	22211
847.022	22310
847.158	22150
847.294	22223
847.429	22261
847.565	22238
847.701	22402
847.837	21934
847.972	21892
848.108	21892
848.244	21991
848.379	21728
848.515	21800
848.65	21762
848.786	21766
848.921	21713
849.057	21812
849.192	21808
849.328	21907
849.463	21911
849.598	21675
849.734	21553
849.869	21564
850.004	21526
850.14	21481
850.275	21644
850.41	21351
850.545	21534
850.68	21530
850.815	21435
850.95	21454
851.085	21675
851.22	21572
851.355	21606
851.49	21492
851.625	21526
851.76	21485
851.895	21526
852.03	21412
852.165	21515
852.299	21454
852.434	21625
852.569	21549
852.703	21447
852.838	21679
852.973	21675
853.107	21709
853.242	21500
853.376	21466
853.511	21340
853.645	21241
853.78	21306
853.914	21348
854.048	21317
854.183	21237
854.317	21370
854.451	21580
854.585	21405
854.72	21336
854.854	21420
854.988	21291
855.122	21359
855.256	21218
855.39	21294
855.524	21370
855.658	21416
855.792	21458
855.926	21492
856.06	21325
856.194	21530
856.327	21389
856.461	21329
856.595	21275
856.729	21256
856.862	21485
856.996	21405
857.13	21492
857.263	21511
857.397	21469
857.53	21306
857.664	21378
857.797	21393
857.931	21496
858.064	21367
858.197	21462
858.331	21393
858.464	21389
858.597	21264
858.731	21374
858.864	21340
858.997	21336
859.13	21420
859.263	21397
859.396	21519
859.529	21332
859.662	21275
859.795	21389
859.928	21344
860.061	21564
860.194	21500
860.327	21462
860.46	21317
860.592	21614
860.725	21439
860.858	21454
860.99	21272
861.123	21268
861.256	21302
861.388	21401
861.521	22124
861.653	21241
861.786	21184
861.918	21188
862.05	21283
862.183	21268
862.315	21256
862.447	21340
862.58	21287
862.712	21055
862.844	21024
862.976	21104
863.108	21051
863.24	21466
863.372	21039
863.504	21047
863.636	21036
863.768	21119
863.9	20990
864.032	20960
864.164	21127
864.296	21127
864.428	21176
864.559	21135
864.691	21272
864.823	21150
864.954	20963
865.086	21085
865.217	20967
865.349	20807
865.48	20960
865.612	20933
865.743	21058
865.875	20933
866.006	20883
866.137	20948
866.269	21017
866.4	20952
866.531	20960
866.662	20872
866.793	20975
866.924	20880
867.055	20838
867.186	20876
867.317	20895
867.448	20834
867.579	20895
867.71	20663
867.841	20811
867.972	20819
868.103	20887
868.233	20929
868.364	20979
868.495	20941
868.625	21051
868.756	21157
868.886	21138
869.017	21070
869.147	21180
869.278	21260
869.408	21249
869.539	21157
869.669	21214
869.799	21173
869.929	21127
870.06	21291
870.19	21462
870.32	21420
870.45	21523
870.58	21576
870.71	21583
870.84	21709
870.97	21504
871.1	21603
871.23	21648
871.36	21739
871.489	21675
871.619	21804
871.749	21694
871.879	21755
872.008	21892
872.138	21698
872.267	21671
872.397	21622
872.526	21583
872.656	21580
872.785	21553
872.915	21827
873.044	21827
873.173	21724
873.303	21755
873.432	21831
873.561	21755
873.69	21644
873.819	21709
873.948	21709
874.077	21869
874.206	21736
874.335	21682
874.464	21789
874.593	21918
874.722	21998
874.851	21945
874.979	22025
875.108	21922
875.237	21991
875.365	21846
875.494	21869
875.623	22029
875.751	21934
875.88	22010
876.008	22105
876.136	22150
876.265	22394
876.393	22542
876.521	22489
876.65	22519
876.778	22314
876.906	22246
877.034	22166
877.162	22390
877.29	22249
877.418	22310
877.546	22413
877.674	22215
877.802	22325
877.93	22329
878.058	22253
878.185	22215
878.313	22242
878.441	22352
878.568	22105
878.696	22219
878.824	22417
878.951	22512
879.079	22550
879.206	22607
879.333	22413
879.461	22295
879.588	22257
879.715	22382
879.842	22599
879.97	22402
880.097	21964
880.224	22219
880.351	22112
880.478	22150
880.605	22143
880.732	22200
880.859	22413
880.986	22166
881.112	22306
881.239	21964
881.366	21899
881.493	21869
881.619	21819
881.746	21671
881.872	21690
881.999	21701
882.125	21724
882.252	21781
882.378	21637
882.505	21705
882.631	21530
882.757	21424
882.883	21553
883.01	21351
883.136	21450
883.262	21317
883.388	21146
883.514	21370
883.64	21481
883.766	21367
883.892	21230
884.018	21195
884.143	21382
884.269	21397
884.395	21218
884.52	20952
884.646	21093
884.772	20864
884.897	20933
885.023	21093
885.148	21211
885.274	21176
885.399	21237
885.524	21096
885.65	21039
885.775	20979
885.9	21055
886.025	21081
886.15	21047
886.275	20994
886.4	20849
886.525	20986
886.65	20891
886.775	20982
886.9	21135
887.025	21302
887.149	20918
887.274	20876
887.399	20811
887.523	20880
887.648	20689
887.773	20731
887.897	20990
888.021	20887
888.146	20735
888.27	20883
888.395	20937
888.519	20921
888.643	20971
888.767	20773
888.891	20838
889.015	20564
889.139	20644
889.263	20587
889.387	20659
889.511	20796
889.635	20712
889.759	20427
889.883	20693
890.006	20499
890.13	20765
890.254	20480
890.377	20579
890.501	20298
890.624	20362
890.748	20469
890.871	20271
890.995	20145
891.118	20267
891.241	20081
891.364	20256
891.488	20305
891.611	20138
891.734	20202
891.857	20305
891.98	20153
892.103	20248
892.226	20126
892.349	20191
892.471	20065
892.594	20096
892.717	20058
892.839	20054
892.962	20115
893.085	20267
893.207	20138
893.33	20024
893.452	19989
893.575	20157
893.697	20100
893.819	20210
893.941	20210
894.064	20237
894.186	20058
894.308	20039
894.43	20149
894.552	20259
894.674	20183
894.796	19959
894.918	20012
895.04	20084
895.161	20221
895.283	20062
895.405	19963
895.526	20145
895.648	19955
895.769	20142
895.891	20058
896.012	20199
896.134	20172
896.255	20069
896.376	20065
896.498	20054
896.619	20157
896.74	20134
896.861	20103
896.982	20457
897.103	20617
897.224	20355
897.345	20294
897.466	20157
897.587	20343
897.708	20419
897.828	20351
897.949	20202
898.07	20168
898.19	20294
898.311	20286
898.431	20225
898.552	20248
898.672	20259
898.792	20317
898.913	20317
899.033	20221
899.153	20119
899.273	20005
899.393	20092
899.513	20138
899.633	20069
899.753	20081
899.873	19986
899.993	20126
900.113	20035
900.232	20176
900.352	20035
900.472	19936
900.591	19849
900.711	19917
900.83	19753
900.95	19944
901.069	19894
901.189	19753
901.308	19601
901.427	19362
901.546	19403
901.665	19510
901.784	19403
901.904	19293
902.023	19114
902.141	19027
902.26	19000
902.379	18951
902.498	18958
902.617	18897
902.735	18863
902.854	18897
902.973	18719
903.091	18749
903.21	18589
903.328	18570
903.446	18551
903.565	18388
903.683	18464
903.801	18273
903.919	18281
904.038	18330
904.156	18254
904.274	18361
904.392	18201
904.51	18148
904.627	18144
904.745	18251
904.863	18251
904.981	17992
905.098	17817
905.216	17847
905.334	17874
905.451	17916
905.569	17802
905.686	17908
905.803	17821
905.921	17558
906.038	17646
906.155	17592
906.272	17566
906.389	17646
906.506	17417
906.623	17421
906.74	17360
906.857	17269
906.974	17235
907.091	17425
907.208	17436
907.324	17406
907.441	17216
907.557	17140
907.674	17204
907.79	17090
907.907	17067
908.023	17151
908.139	17064
908.256	17022
908.372	16927
908.488	17083
908.604	16786
908.72	16759
908.836	16763
908.952	16771
909.068	16835
909.184	16930
909.3	16816
909.415	16911
909.531	16763
909.647	16462
909.762	16569
909.878	16497
909.993	16527
910.108	16459
910.224	16485
910.339	16432
910.454	16246
910.57	16386
910.685	16303
910.8	16500
910.915	16527
911.03	16363
911.145	16124
911.259	16147
911.374	16120
911.489	16032
911.604	15953
911.718	15808
911.833	15949
911.947	15774
912.062	15709
912.176	15850
912.291	15857
912.405	15956
912.519	16006
912.633	15998
912.748	15899
912.862	15838
912.976	15705
913.09	15644
913.204	15614
913.318	15633
913.431	15812
913.545	15720
913.659	15739
913.772	15641
913.886	15424
914	15545
914.113	15591
914.226	15477
914.34	15580
914.453	15382
914.566	15519
914.68	15393
914.793	15355
914.906	15165
915.019	15074
915.132	15047
915.245	15032
915.358	15161
915.47	15043
915.583	15077
915.696	15100
915.809	15218
915.921	15157
916.034	15127
916.146	14994
916.259	14967
916.371	15005
916.483	14994
916.595	14941
916.708	14861
916.82	14925
916.932	14845
917.044	14815
917.156	14834
917.268	14670
917.38	14739
917.491	14727
917.603	14819
917.715	14804
917.826	14868
917.938	14674
918.049	14651
918.161	14621
918.272	14872
918.384	14769
918.495	14655
918.606	14568
918.717	14400
918.828	14465
918.939	14499
919.05	14393
919.161	14492
919.272	14309
919.383	14343
919.494	14507
919.604	14629
919.715	14495
919.826	14423
919.936	14396
920.047	14613
920.157	14469
920.267	14689
920.378	14522
920.488	14415
920.598	14583
920.708	14746
920.818	14545
920.928	14632
921.038	14731
921.148	14678
921.258	14415
921.368	14244
921.477	14130
921.587	14206
921.697	14107
921.806	14347
921.916	14012
922.025	13902
922.134	13951
922.244	13723
922.353	13811
922.462	13761
922.571	13689
922.68	13453
922.789	13502
922.898	13476
923.007	13419
923.116	13514
923.224	13464
923.333	13441
923.442	13350
923.55	13392
923.659	13350
923.767	13438
923.876	13308
923.984	13270
924.092	13175
924.201	13209
924.309	13247
924.417	13289
924.525	13175
924.633	13114
924.741	13883
924.849	12954
924.956	13046
925.064	12878
925.172	12844
925.279	12840
925.387	12947
925.494	12985
925.602	13034
925.709	12890
925.816	12882
925.924	12920
926.031	12977
926.138	12764
926.245	12897
926.352	12890
926.459	12856
926.566	12833
926.673	12734
926.779	12574
926.886	12753
926.993	12525
927.099	12498
927.206	12395
927.312	12422
927.419	12506
927.525	12407
927.631	12460
927.737	12384
927.843	12327
927.95	12213
928.056	12247
928.162	12254
928.267	12296
928.373	12947
928.479	12311
928.585	12121
928.69	12251
928.796	12258
928.901	12140
929.007	12007
929.112	12095
929.218	12114
929.323	12011
929.428	11923
929.533	12098
929.638	11942
929.743	11946
929.848	11984
929.953	12034
930.058	11882
930.163	11672
930.267	11710
930.372	11885
930.477	11630
930.581	11961
930.685	11684
930.79	11512
930.894	11573
930.998	11573
931.103	11710
931.207	11349
931.311	11208
931.415	11147
931.519	10991
931.623	10984
