Data from test_V78500241_487.txt Node
Date: Fri Mar 25 15:13:15 CST 2022
User: usil
Spectrometer: V785-0024
Trigger mode: 0
Integration Time (sec): 4.000000E-1
Scans to average: 1
Nonlinearity correction enabled: false
Boxcar width: 0
Storing dark spectrum: false
XAxis mode: Wavelengths
Number of Pixels in Spectrum: 1024
>>>>>Begin Spectral Data<<<<<
801.071	27504
801.214	27351
801.356	27294
801.499	27150
801.641	27138
801.783	27093
801.926	27039
802.068	26960
802.211	26937
802.353	26880
802.496	26724
802.638	26811
802.78	26632
802.923	26727
803.065	26632
803.208	26648
803.35	26522
803.492	26674
803.635	26967
803.777	26636
803.919	26933
804.061	27062
804.204	26781
804.346	26705
804.488	26720
804.63	26845
804.773	26697
804.915	26800
805.057	27055
805.199	26845
805.341	26796
805.483	26971
805.626	26845
805.768	26887
805.91	26925
806.052	27032
806.194	26796
806.336	27100
806.478	27017
806.62	27005
806.762	26990
806.904	27291
807.046	27462
807.188	27401
807.33	27321
807.472	27431
807.614	27279
807.756	27363
807.898	27176
808.04	27180
808.182	27184
808.324	27340
808.465	27287
808.607	27374
808.749	27561
808.891	27667
809.033	27618
809.174	27747
809.316	27606
809.458	27599
809.6	27545
809.741	27599
809.883	27785
810.025	27953
810.166	27747
810.308	27983
810.45	27762
810.591	27724
810.733	27751
810.875	27545
811.016	27568
811.158	27310
811.299	27698
811.441	27625
811.582	27656
811.724	27682
811.865	27595
812.007	27561
812.148	27519
812.29	27637
812.431	27854
812.573	27922
812.714	27937
812.855	28040
812.997	28147
813.138	28459
813.279	28207
813.421	28204
813.562	28147
813.703	27861
813.845	27865
813.986	27576
814.127	27401
814.268	27275
814.41	27298
814.551	27203
814.692	27412
814.833	27055
814.974	27180
815.115	27294
815.256	27237
815.397	27218
815.539	27165
815.68	27077
815.821	27055
815.962	27135
816.103	26914
816.244	26914
816.385	26864
816.526	26739
816.666	26659
816.807	26560
816.948	26758
817.089	26625
817.23	26571
817.371	26587
817.512	26697
817.653	26651
817.793	26461
817.934	26495
818.075	26518
818.216	26507
818.356	26484
818.497	26419
818.638	26313
818.778	26252
818.919	26210
819.06	26438
819.2	26400
819.341	26636
819.481	26541
819.622	26754
819.762	26910
819.903	26796
820.043	26606
820.184	26629
820.324	26651
820.465	26746
820.605	26815
820.746	26602
820.886	26522
821.026	26686
821.167	26571
821.307	26648
821.447	26598
821.588	26328
821.728	26290
821.868	26069
822.008	25852
822.149	25909
822.289	25970
822.429	25772
822.569	25662
822.709	25742
822.849	25422
822.99	25495
823.13	25381
823.27	25430
823.41	25263
823.55	25259
823.69	25209
823.83	25259
823.97	25232
824.11	25008
824.25	25179
824.389	25129
824.529	25236
824.669	25084
824.809	25183
824.949	25263
825.089	25266
825.228	25266
825.368	25069
825.508	24996
825.648	24970
825.787	24973
825.927	25152
826.067	24894
826.206	24894
826.346	25008
826.485	25091
826.625	25088
826.765	25038
826.904	24958
827.044	24745
827.183	24783
827.323	24646
827.462	24810
827.601	24734
827.741	24631
827.88	24639
828.02	24536
828.159	24772
828.298	24779
828.437	24642
828.577	24650
828.716	24730
828.855	24692
828.994	24407
829.134	24464
829.273	24574
829.412	24445
829.551	24353
829.69	24429
829.829	24471
829.968	24525
830.107	24528
830.246	24563
830.385	24213
830.524	24228
830.663	24220
830.802	24110
830.941	24022
831.08	24003
831.219	24003
831.357	24121
831.496	24327
831.635	23973
831.774	23912
831.913	23950
832.051	23942
832.19	23783
832.329	23935
832.467	23668
832.606	23771
832.744	23729
832.883	23672
833.022	23733
833.16	23748
833.299	23687
833.437	23745
833.576	23790
833.714	23676
833.852	23790
833.991	23863
834.129	23954
834.267	23794
834.406	23767
834.544	23684
834.682	23901
834.821	23798
834.959	23939
835.097	23691
835.235	23737
835.373	23786
835.511	23813
835.65	23710
835.788	23634
835.926	23391
836.064	23463
836.202	23448
836.34	23547
836.478	23809
836.615	23676
836.753	23634
836.891	23767
837.029	23630
837.167	23760
837.305	23501
837.443	23478
837.58	23516
837.718	23482
837.856	23596
837.993	23608
838.131	23649
838.269	23315
838.406	23360
838.544	23334
838.681	23140
838.819	23170
838.956	23018
839.094	23014
839.231	23056
839.369	23143
839.506	23387
839.643	23140
839.781	22957
839.918	22965
840.055	23025
840.193	22900
840.33	22919
840.467	22828
840.604	22862
840.742	23029
840.879	22687
841.016	22809
841.153	22782
841.29	22881
841.427	22946
841.564	22801
841.701	22938
841.838	22843
841.975	22790
842.112	22759
842.249	22557
842.385	22611
842.522	22847
842.659	22706
842.796	22653
842.933	22577
843.069	22672
843.206	22470
843.343	22713
843.479	22733
843.616	22626
843.752	22451
843.889	22329
844.025	22428
844.162	22314
844.298	22489
844.435	22295
844.571	22314
844.708	22474
844.844	22565
844.98	22607
845.117	22500
845.253	22390
845.389	22329
845.525	22466
845.661	22303
845.798	22109
845.934	22158
846.07	22078
846.206	22029
846.342	22249
846.478	22128
846.614	21983
846.75	21876
846.886	21926
847.022	21979
847.158	21895
847.294	21968
847.429	21968
847.565	21827
847.701	22128
847.837	21542
847.972	21568
848.108	21724
848.244	21694
848.379	21538
848.515	21507
848.65	21424
848.786	21443
848.921	21477
849.057	21660
849.192	21519
849.328	21526
849.463	21519
849.598	21504
849.734	21310
849.869	21233
850.004	21336
850.14	21298
850.275	21233
850.41	21222
850.545	21142
850.68	21131
850.815	21389
850.95	21116
851.085	21469
851.22	21370
851.355	21218
851.49	21283
851.625	21173
851.76	21154
851.895	21157
852.03	21173
852.165	21233
852.299	21378
852.434	21302
852.569	21264
852.703	21268
852.838	21344
852.973	21397
853.107	21317
853.242	21142
853.376	21047
853.511	20963
853.645	21100
853.78	21283
853.914	21123
854.048	21024
854.183	21119
854.317	21222
854.451	21268
854.585	21089
854.72	21058
854.854	21074
854.988	20937
855.122	21074
855.256	21020
855.39	21100
855.524	21226
855.658	20986
855.792	21055
855.926	21066
856.06	20880
856.194	21112
856.327	21055
856.461	20952
856.595	20944
856.729	21089
856.862	21135
856.996	21104
857.13	21260
857.263	21108
857.397	21264
857.53	20971
857.664	21074
857.797	21157
857.931	21199
858.064	21131
858.197	21226
858.331	21074
858.464	20998
858.597	20975
858.731	20982
858.864	20967
858.997	21020
859.13	21142
859.263	21222
859.396	21142
859.529	21020
859.662	21074
859.795	20990
859.928	21013
860.061	21165
860.194	21241
860.327	21100
860.46	21032
860.592	21154
860.725	21211
860.858	21233
860.99	21173
861.123	21070
861.256	20982
861.388	21009
861.521	21827
861.653	20918
861.786	20899
861.918	20960
862.05	20990
862.183	20986
862.315	20975
862.447	21017
862.58	20998
862.712	20819
862.844	20701
862.976	20750
863.108	20792
863.24	21150
863.372	20735
863.504	20823
863.636	20853
863.768	20834
863.9	20902
864.032	20842
864.164	20670
864.296	20705
864.428	20876
864.559	20906
864.691	20914
864.823	20792
864.954	20712
865.086	20716
865.217	20609
865.349	20636
865.48	20678
865.612	20743
865.743	20804
865.875	20667
866.006	20682
866.137	20613
866.269	20697
866.4	20568
866.531	20575
866.662	20537
866.793	20648
866.924	20571
867.055	20621
867.186	20648
867.317	20594
867.448	20499
867.579	20488
867.71	20571
867.841	20484
867.972	20659
868.103	20613
868.233	20598
868.364	20606
868.495	20785
868.625	20773
868.756	20868
868.886	20701
869.017	20929
869.147	20994
869.278	20910
869.408	20963
869.539	20883
869.669	20918
869.799	20891
869.929	21005
870.06	20902
870.19	21142
870.32	21112
870.45	21188
870.58	21226
870.71	21359
870.84	21329
870.97	21298
871.1	21279
871.23	21545
871.36	21515
871.489	21412
871.619	21450
871.749	21473
871.879	21435
872.008	21587
872.138	21477
872.267	21473
872.397	21241
872.526	21283
872.656	21298
872.785	21268
872.915	21393
873.044	21519
873.173	21530
873.303	21538
873.432	21557
873.561	21641
873.69	21370
873.819	21462
873.948	21583
874.077	21492
874.206	21397
874.335	21530
874.464	21500
874.593	21709
874.722	21797
874.851	21720
874.979	21747
875.108	21842
875.237	21728
875.365	21568
875.494	21591
875.623	21823
875.751	21633
875.88	21743
876.008	21907
876.136	21915
876.265	22067
876.393	22257
876.521	22238
876.65	22188
876.778	22120
876.906	22017
877.034	22048
877.162	22112
877.29	22017
877.418	21987
877.546	22017
877.674	21994
877.802	21979
877.93	22082
878.058	21899
878.185	21960
878.313	21922
878.441	22090
878.568	21865
878.696	21930
878.824	21979
878.951	21994
879.079	22158
879.206	22394
879.333	22242
879.461	21968
879.588	22116
879.715	22166
879.842	22516
879.97	22135
880.097	21838
880.224	21823
880.351	21934
880.478	21888
880.605	21770
880.732	21819
880.859	22044
880.986	21827
881.112	21789
881.239	21679
881.366	21629
881.493	21466
881.619	21412
881.746	21401
881.872	21431
881.999	21310
882.125	21443
882.252	21412
882.378	21401
882.505	21568
882.631	21348
882.757	21150
882.883	21336
883.01	21085
883.136	21119
883.262	21055
883.388	21070
883.514	21157
883.64	21157
883.766	21024
883.892	20960
884.018	20883
884.143	21154
884.269	21146
884.395	20838
884.52	20800
884.646	20796
884.772	20804
884.897	20667
885.023	20876
885.148	20967
885.274	20963
885.399	20944
885.524	20785
885.65	20849
885.775	20750
885.9	20792
886.025	20838
886.15	20872
886.275	20777
886.4	20735
886.525	20861
886.65	20750
886.775	20659
886.9	20868
887.025	21127
887.149	20724
887.274	20511
887.399	20545
887.523	20457
887.648	20507
887.773	20465
887.897	20648
888.021	20594
888.146	20545
888.27	20659
888.395	20670
888.519	20564
888.643	20659
888.767	20602
888.891	20454
889.015	20320
889.139	20412
889.263	20362
889.387	20492
889.511	20579
889.635	20499
889.759	20218
889.883	20301
890.006	20381
890.13	20408
890.254	20275
890.377	20347
890.501	20115
890.624	20008
890.748	20282
890.871	20001
890.995	19791
891.118	19894
891.241	19921
891.364	19932
891.488	19963
891.611	19989
891.734	19951
891.857	19974
891.98	19986
892.103	20054
892.226	19944
892.349	19947
892.471	19776
892.594	19894
892.717	19860
892.839	19742
892.962	19875
893.085	19974
893.207	19887
893.33	19734
893.452	19761
893.575	19875
893.697	19742
893.819	20005
893.941	20084
894.064	20054
894.186	19784
894.308	19681
894.43	19997
894.552	20081
894.674	19883
894.796	19715
894.918	19864
895.04	19807
895.161	19868
895.283	19913
895.405	19746
895.526	19902
895.648	19955
895.769	19868
895.891	19757
896.012	19902
896.134	19799
896.255	19887
896.376	19723
896.498	19818
896.619	19856
896.74	19849
896.861	19925
896.982	20237
897.103	20381
897.224	20199
897.345	19959
897.466	19982
897.587	20012
897.708	20088
897.828	20054
897.949	20096
898.07	19978
898.19	19921
898.311	20153
898.431	20058
898.552	20054
898.672	20077
898.792	20172
898.913	20016
899.033	19925
899.153	19868
899.273	19772
899.393	19841
899.513	19871
899.633	19811
899.753	19826
899.873	19765
899.993	19887
900.113	19826
900.232	19689
900.352	19784
900.472	19590
900.591	19731
900.711	19769
900.83	19624
900.95	19586
901.069	19632
901.189	19438
901.308	19244
901.427	19194
901.546	19202
901.665	19251
901.784	19148
901.904	18958
902.023	18924
902.141	18833
902.26	18741
902.379	18863
902.498	18760
902.617	18608
902.735	18692
902.854	18669
902.973	18589
903.091	18422
903.21	18365
903.328	18414
903.446	18121
903.565	18182
903.683	18213
903.801	18072
903.919	18167
904.038	18155
904.156	17965
904.274	18091
904.392	17988
904.51	17901
904.627	17866
904.745	17942
904.863	18019
904.981	17786
905.098	17703
905.216	17615
905.334	17600
905.451	17657
905.569	17619
905.686	17672
905.803	17630
905.921	17440
906.038	17512
906.155	17444
906.272	17311
906.389	17269
906.506	17132
906.623	17231
906.74	17117
906.857	17056
906.974	17090
907.091	17208
907.208	17246
907.324	17147
907.441	17064
907.557	16889
907.674	16923
907.79	16862
907.907	16820
908.023	16911
908.139	16854
908.256	16858
908.372	16733
908.488	16828
908.604	16615
908.72	16573
908.836	16615
908.952	16546
909.068	16721
909.184	16782
909.3	16542
909.415	16531
909.531	16554
909.647	16230
909.762	16409
909.878	16303
909.993	16421
910.108	16291
910.224	16295
910.339	16363
910.454	16242
910.57	16120
910.685	16029
910.8	16341
910.915	16284
911.03	16109
911.145	15941
911.259	15979
911.374	15797
911.489	15911
911.604	15759
911.718	15633
911.833	15690
911.947	15641
912.062	15473
912.176	15709
912.291	15633
912.405	15675
912.519	15857
912.633	15816
912.748	15694
912.862	15599
912.976	15519
913.09	15378
913.204	15420
913.318	15545
913.431	15618
913.545	15496
913.659	15534
913.772	15405
913.886	15275
914	15176
914.113	15313
914.226	15405
914.34	15306
914.453	15180
914.566	15329
914.68	15226
914.793	15241
914.906	15051
915.019	14971
915.132	14849
915.245	14887
915.358	14868
915.47	15058
915.583	14864
915.696	14906
915.809	15081
915.921	14994
916.034	14921
916.146	14773
916.259	14750
916.371	14895
916.483	14785
916.595	14735
916.708	14712
916.82	14678
916.932	14689
917.044	14667
917.156	14629
917.268	14587
917.38	14579
917.491	14530
917.603	14552
917.715	14560
917.826	14705
917.938	14476
918.049	14503
918.161	14511
918.272	14590
918.384	14632
918.495	14598
918.606	14366
918.717	14290
918.828	14393
918.939	14545
919.05	14221
919.161	14294
919.272	14142
919.383	14153
919.494	14336
919.604	14564
919.715	14263
919.826	14210
919.936	14259
920.047	14415
920.157	14362
920.267	14480
920.378	14332
920.488	14221
920.598	14393
920.708	14560
920.818	14476
920.928	14400
921.038	14629
921.148	14530
921.258	14294
921.368	14157
921.477	14096
921.587	14058
921.697	13864
921.806	14081
921.916	13883
922.025	13750
922.134	13715
922.244	13616
922.353	13712
922.462	13578
922.571	13460
922.68	13422
922.789	13297
922.898	13285
923.007	13232
923.116	13255
923.224	13339
923.333	13316
923.442	13221
923.55	13129
923.659	13221
923.767	13137
923.876	13133
923.984	13137
924.092	13091
924.201	13137
924.309	13027
924.417	13080
924.525	12962
924.633	13034
924.741	14008
924.849	12821
924.956	12943
925.064	12833
925.172	12738
925.279	12726
925.387	12787
925.494	12738
925.602	12901
925.709	12760
925.816	12627
925.924	12616
926.031	12753
926.138	12700
926.245	12764
926.352	12612
926.459	12764
926.566	12692
926.673	12563
926.779	12536
926.886	12486
926.993	12350
927.099	12315
927.206	12323
927.312	12319
927.419	12323
927.525	12277
927.631	12433
927.737	12251
927.843	12254
927.95	11984
928.056	12190
928.162	12197
928.267	12163
928.373	12753
928.479	12213
928.585	12003
928.69	12148
928.796	12163
928.901	12007
929.007	11920
929.112	11992
929.218	11965
929.323	11954
929.428	11851
929.533	12003
929.638	11843
929.743	11908
929.848	11786
929.953	11805
930.058	11676
930.163	11577
930.267	11600
930.372	11688
930.477	11512
930.581	11889
930.685	11615
930.79	11474
930.894	11478
930.998	11459
931.103	11520
931.207	11265
931.311	11166
931.415	11041
931.519	10839
931.623	10816
