Data from test_V78500241_3081.txt Node
Date: Fri Mar 25 15:31:18 CST 2022
User: usil
Spectrometer: V785-0024
Trigger mode: 0
Integration Time (sec): 4.000000E-1
Scans to average: 1
Nonlinearity correction enabled: false
Boxcar width: 0
Storing dark spectrum: false
XAxis mode: Wavelengths
Number of Pixels in Spectrum: 1024
>>>>>Begin Spectral Data<<<<<
801.071	27260
801.214	27245
801.356	27127
801.499	26944
801.641	27001
801.783	26750
801.926	26956
802.068	26712
802.211	26796
802.353	26887
802.496	26697
802.638	26533
802.78	26465
802.923	26442
803.065	26526
803.208	26328
803.35	26446
803.492	26640
803.635	26663
803.777	26571
803.919	26678
804.061	26857
804.204	26712
804.346	26674
804.488	26533
804.63	26621
804.773	26648
804.915	26632
805.057	26868
805.199	26613
805.341	26651
805.483	26849
805.626	26883
805.768	26659
805.91	26739
806.052	26777
806.194	26625
806.336	26899
806.478	26613
806.62	26807
806.762	26838
806.904	26975
807.046	27218
807.188	27142
807.33	27165
807.472	27268
807.614	27039
807.756	27192
807.898	27009
808.04	26994
808.182	26925
808.324	27123
808.465	27043
808.607	27131
808.749	27389
808.891	27458
809.033	27652
809.174	27325
809.316	27374
809.458	27378
809.6	27203
809.741	27526
809.883	27450
810.025	27618
810.166	27583
810.308	27515
810.45	27526
810.591	27462
810.733	27492
810.875	27447
811.016	27272
811.158	27150
811.299	27500
811.441	27526
811.582	27488
811.724	27344
811.865	27287
812.007	27344
812.148	27268
812.29	27420
812.431	27515
812.573	27667
812.714	27637
812.855	27873
812.997	27945
813.138	28021
813.279	27907
813.421	27899
813.562	27819
813.703	27591
813.845	27454
813.986	27329
814.127	27036
814.268	27036
814.41	26971
814.551	26895
814.692	27009
814.833	26845
814.974	27043
815.115	27047
815.256	26883
815.397	26910
815.539	26876
815.68	26743
815.821	26705
815.962	26739
816.103	26560
816.244	26590
816.385	26499
816.526	26495
816.666	26450
816.807	26134
816.948	26343
817.089	26278
817.23	26385
817.371	26298
817.512	26305
817.653	26309
817.793	26195
817.934	26305
818.075	26237
818.216	26107
818.356	26157
818.497	26225
818.638	25997
818.778	26024
818.919	25883
819.06	25978
819.2	26172
819.341	26210
819.481	26275
819.622	26476
819.762	26659
819.903	26450
820.043	26362
820.184	26377
820.324	26442
820.465	26461
820.605	26450
820.746	26267
820.886	26214
821.026	26320
821.167	26317
821.307	26351
821.447	26248
821.588	26153
821.728	25921
821.868	25928
822.008	25875
822.149	25670
822.289	25731
822.429	25464
822.569	25320
822.709	25438
822.849	25282
822.99	25278
823.13	25270
823.27	25088
823.41	25008
823.55	24928
823.69	25171
823.83	24992
823.97	24939
824.11	24909
824.25	24871
824.389	24848
824.529	24897
824.669	24954
824.809	24932
824.949	25091
825.089	24882
825.228	24905
825.368	24703
825.508	24669
825.648	24639
825.787	24726
825.927	24825
826.067	24646
826.206	24677
826.346	24875
826.485	24745
826.625	24711
826.765	24688
826.904	24730
827.044	24509
827.183	24525
827.323	24452
827.462	24483
827.601	24372
827.741	24414
827.88	24467
828.02	24486
828.159	24407
828.298	24353
828.437	24422
828.577	24365
828.716	24448
828.855	24376
828.994	24125
829.134	24098
829.273	24201
829.412	24114
829.551	24171
829.69	24152
829.829	24190
829.968	24182
830.107	24281
830.246	24159
830.385	24049
830.524	23992
830.663	23866
830.802	23870
830.941	23748
831.08	23729
831.219	23874
831.357	23813
831.496	23901
831.635	23775
831.774	23665
831.913	23581
832.051	23604
832.19	23356
832.329	23653
832.467	23474
832.606	23364
832.744	23258
832.883	23444
833.022	23429
833.16	23429
833.299	23509
833.437	23501
833.576	23425
833.714	23478
833.852	23615
833.991	23391
834.129	23608
834.267	23608
834.406	23558
834.544	23627
834.682	23570
834.821	23433
834.959	23665
835.097	23398
835.235	23459
835.373	23490
835.511	23505
835.65	23216
835.788	23353
835.926	23132
836.064	23227
836.202	23098
836.34	23429
836.478	23440
836.615	23337
836.753	23178
836.891	23341
837.029	23368
837.167	23315
837.305	23231
837.443	23185
837.58	23128
837.718	23334
837.856	23090
837.993	23166
838.131	23185
838.269	23018
838.406	23022
838.544	22972
838.681	23022
838.819	22850
838.956	22755
839.094	22580
839.231	22599
839.369	22771
839.506	23102
839.643	22976
839.781	22744
839.918	22653
840.055	22500
840.193	22641
840.33	22596
840.467	22596
840.604	22721
840.742	22908
840.879	22538
841.016	22710
841.153	22500
841.29	22683
841.427	22443
841.564	22748
841.701	22565
841.838	22573
841.975	22561
842.112	22440
842.249	22596
842.385	22371
842.522	22546
842.659	22436
842.796	22402
842.933	22497
843.069	22265
843.206	22329
843.343	22489
843.479	22344
843.616	22519
843.752	22154
843.889	22177
844.025	22219
844.162	22242
844.298	22147
844.435	22131
844.571	21987
844.708	22135
844.844	22265
844.98	22147
845.117	22261
845.253	22120
845.389	21968
845.525	21998
845.661	21884
845.798	21846
845.934	22036
846.07	21831
846.206	21857
846.342	22036
846.478	21869
846.614	21770
846.75	21515
846.886	21701
847.022	21656
847.158	21545
847.294	21485
847.429	21629
847.565	21583
847.701	21781
847.837	21279
847.972	21378
848.108	21431
848.244	21325
848.379	21260
848.515	21214
848.65	21154
848.786	21188
848.921	21195
849.057	21165
849.192	21230
849.328	21294
849.463	21169
849.598	21036
849.734	21013
849.869	21070
850.004	20895
850.14	20979
850.275	20918
850.41	20914
850.545	20887
850.68	20956
850.815	20975
850.95	20895
851.085	20998
851.22	21150
851.355	20948
851.49	20872
851.625	20883
851.76	20902
851.895	20982
852.03	20785
852.165	20956
852.299	20986
852.434	21013
852.569	20906
852.703	20967
852.838	20937
852.973	21017
853.107	21036
853.242	20758
853.376	20838
853.511	20651
853.645	20754
853.78	20883
853.914	20762
854.048	20788
854.183	20712
854.317	20739
854.451	20902
854.585	20701
854.72	20804
854.854	20788
854.988	20708
855.122	20686
855.256	20644
855.39	20697
855.524	20845
855.658	20811
855.792	20663
855.926	20708
856.06	20785
856.194	20807
856.327	20765
856.461	20682
856.595	20701
856.729	20777
856.862	20823
856.996	20804
857.13	20785
857.263	20975
857.397	20853
857.53	20697
857.664	20853
857.797	20861
857.931	20883
858.064	20781
858.197	20853
858.331	20705
858.464	20644
858.597	20594
858.731	20739
858.864	20720
858.997	20830
859.13	20800
859.263	20689
859.396	20876
859.529	20735
859.662	20769
859.795	20724
859.928	20727
860.061	20845
860.194	20830
860.327	20842
860.46	20743
860.592	20880
860.725	20887
860.858	20876
860.99	20750
861.123	20629
861.256	20731
861.388	20853
861.521	21279
861.653	20636
861.786	20613
861.918	20526
862.05	20609
862.183	20701
862.315	20830
862.447	20689
862.58	20621
862.712	20495
862.844	20587
862.976	20587
863.108	20549
863.24	20918
863.372	20347
863.504	20499
863.636	20537
863.768	20533
863.9	20575
864.032	20530
864.164	20408
864.296	20469
864.428	20552
864.559	20518
864.691	20514
864.823	20396
864.954	20454
865.086	20450
865.217	20480
865.349	20275
865.48	20347
865.612	20415
865.743	20549
865.875	20271
866.006	20351
866.137	20457
866.269	20393
866.4	20286
866.531	20370
866.662	20347
866.793	20301
866.924	20366
867.055	20457
867.186	20362
867.317	20214
867.448	20248
867.579	20389
867.71	20199
867.841	20191
867.972	20278
868.103	20332
868.233	20324
868.364	20328
868.495	20461
868.625	20667
868.756	20583
868.886	20461
869.017	20473
869.147	20804
869.278	20705
869.408	20667
869.539	20385
869.669	20556
869.799	20549
869.929	20651
870.06	20693
870.19	20701
870.32	20849
870.45	21024
870.58	20986
870.71	21077
870.84	21112
870.97	21005
871.1	20979
871.23	21123
871.36	21275
871.489	20925
871.619	21028
871.749	21127
871.879	21154
872.008	21302
872.138	20948
872.267	21142
872.397	21005
872.526	20956
872.656	21058
872.785	20986
872.915	21119
873.044	21203
873.173	21218
873.303	21291
873.432	21245
873.561	21275
873.69	21138
873.819	21173
873.948	21241
874.077	21146
874.206	21032
874.335	21146
874.464	21370
874.593	21469
874.722	21275
874.851	21466
874.979	21458
875.108	21492
875.237	21298
875.365	21272
875.494	21386
875.623	21542
875.751	21424
875.88	21492
876.008	21629
876.136	21633
876.265	21793
876.393	22025
876.521	21903
876.65	21972
876.778	21922
876.906	21713
877.034	21743
877.162	21861
877.29	21622
877.418	21808
877.546	21759
877.674	21728
877.802	21892
877.93	21713
878.058	21724
878.185	21603
878.313	21823
878.441	21819
878.568	21561
878.696	21709
878.824	21739
878.951	21922
879.079	21865
879.206	22070
879.333	21968
879.461	21774
879.588	21930
879.715	22025
879.842	22006
879.97	21850
880.097	21633
880.224	21561
880.351	21606
880.478	21622
880.605	21610
880.732	21583
880.859	21876
880.986	21633
881.112	21622
881.239	21458
881.366	21386
881.493	21363
881.619	21279
881.746	21317
881.872	21203
881.999	21157
882.125	21062
882.252	21203
882.378	21302
882.505	21252
882.631	21188
882.757	20925
882.883	21005
883.01	20941
883.136	20906
883.262	20792
883.388	20693
883.514	20883
883.64	20902
883.766	20868
883.892	20689
884.018	20655
884.143	20785
884.269	20906
884.395	20583
884.52	20503
884.646	20545
884.772	20427
884.897	20355
885.023	20492
885.148	20667
885.274	20686
885.399	20727
885.524	20495
885.65	20568
885.775	20446
885.9	20511
886.025	20625
886.15	20617
886.275	20434
886.4	20476
886.525	20575
886.65	20446
886.775	20393
886.9	20697
887.025	20746
887.149	20492
887.274	20358
887.399	20305
887.523	20271
887.648	20244
887.773	20240
887.897	20454
888.021	20332
888.146	20206
888.27	20339
888.395	20374
888.519	20294
888.643	20370
888.767	20366
888.891	20199
889.015	20153
889.139	20180
889.263	20065
889.387	20183
889.511	20396
889.635	20320
889.759	19997
889.883	20164
890.006	20164
890.13	20164
890.254	20081
890.377	20039
890.501	19864
890.624	19833
890.748	19925
890.871	19909
890.995	19578
891.118	19575
891.241	19643
891.364	19795
891.488	19761
891.611	19658
891.734	19776
891.857	19761
891.98	19723
892.103	19761
892.226	19689
892.349	19753
892.471	19422
892.594	19655
892.717	19628
892.839	19544
892.962	19689
893.085	19601
893.207	19609
893.33	19506
893.452	19358
893.575	19540
893.697	19567
893.819	19811
893.941	19902
894.064	19681
894.186	19681
894.308	19586
894.43	19696
894.552	19719
894.674	19788
894.796	19537
894.918	19647
895.04	19597
895.161	19772
895.283	19647
895.405	19556
895.526	19666
895.648	19666
895.769	19643
895.891	19632
896.012	19795
896.134	19708
896.255	19624
896.376	19723
896.498	19693
896.619	19681
896.74	19616
896.861	19628
896.982	19898
897.103	20054
897.224	19898
897.345	19898
897.466	19746
897.587	19864
897.708	19947
897.828	19765
897.949	19837
898.07	19696
898.19	19693
898.311	19776
898.431	19822
898.552	19887
898.672	19894
898.792	19932
898.913	19803
899.033	19666
899.153	19624
899.273	19544
899.393	19616
899.513	19643
899.633	19632
899.753	19643
899.873	19449
899.993	19689
900.113	19537
900.232	19472
900.352	19525
900.472	19426
900.591	19324
900.711	19339
900.83	19422
900.95	19480
901.069	19616
901.189	19335
901.308	19034
901.427	18894
901.546	19050
901.665	19015
901.784	19038
901.904	18878
902.023	18768
902.141	18601
902.26	18414
902.379	18578
902.498	18532
902.617	18376
902.735	18578
902.854	18448
902.973	18418
903.091	18102
903.21	18182
903.328	18152
903.446	17965
903.565	17980
903.683	18019
903.801	17878
903.919	17958
904.038	17882
904.156	17687
904.274	17783
904.392	17817
904.51	17741
904.627	17745
904.745	17935
904.863	17790
904.981	17592
905.098	17429
905.216	17379
905.334	17417
905.451	17493
905.569	17448
905.686	17444
905.803	17440
905.921	17227
906.038	17341
906.155	17341
906.272	17109
906.389	17239
906.506	17056
906.623	17010
906.74	16938
906.857	16927
906.974	16809
907.091	17025
907.208	17029
907.324	16976
907.441	16835
907.557	16733
907.674	16713
907.79	16698
907.907	16797
908.023	16615
908.139	16721
908.256	16630
908.372	16592
908.488	16588
908.604	16523
908.72	16333
908.836	16432
908.952	16367
909.068	16508
909.184	16508
909.3	16443
909.415	16314
909.531	16402
909.647	16162
909.762	16207
909.878	16055
909.993	16101
910.108	16082
910.224	15987
910.339	16029
910.454	15937
910.57	16013
910.685	15861
910.8	16162
910.915	16112
911.03	16029
911.145	15762
911.259	15682
911.374	15759
911.489	15671
911.604	15606
911.718	15412
911.833	15473
911.947	15431
912.062	15450
912.176	15519
912.291	15515
912.405	15424
912.519	15679
912.633	15736
912.748	15447
912.862	15340
912.976	15321
913.09	15211
913.204	15321
913.318	15294
913.431	15332
913.545	15428
913.659	15348
913.772	15275
913.886	15112
914	15131
914.113	15173
914.226	15135
914.34	15119
914.453	14994
914.566	15062
914.68	15047
914.793	14994
914.906	14773
915.019	14762
915.132	14663
915.245	14636
915.358	14777
915.47	14796
915.583	14724
915.696	14777
915.809	14788
915.921	14838
916.034	14625
916.146	14701
916.259	14571
916.371	14689
916.483	14648
916.595	14697
916.708	14522
916.82	14575
916.932	14541
917.044	14663
917.156	14530
917.268	14358
917.38	14408
917.491	14385
917.603	14442
917.715	14415
917.826	14560
917.938	14377
918.049	14294
918.161	14377
918.272	14480
918.384	14560
918.495	14309
918.606	14206
918.717	14062
918.828	14187
918.939	14172
919.05	13959
919.161	14111
919.272	13940
919.383	13944
919.494	14138
919.604	14332
919.715	14126
919.826	14111
919.936	14195
920.047	14210
920.157	14069
920.267	14320
920.378	14191
920.488	14103
920.598	14320
920.708	14374
920.818	14313
920.928	14305
921.038	14408
921.148	14393
921.258	14157
921.368	14016
921.477	13932
921.587	13811
921.697	13700
921.806	13871
921.916	13704
922.025	13571
922.134	13529
922.244	13422
922.353	13502
922.462	13407
922.571	13312
922.68	13343
922.789	13274
922.898	13206
923.007	13129
923.116	13122
923.224	13145
923.333	13133
923.442	13122
923.55	12981
923.659	12943
923.767	13206
923.876	12886
923.984	13061
924.092	12966
924.201	12951
924.309	12924
924.417	12977
924.525	12886
924.633	12795
924.741	13818
924.849	12650
924.956	12837
925.064	12639
925.172	12604
925.279	12502
925.387	12627
925.494	12582
925.602	12703
925.709	12703
925.816	12551
925.924	12494
926.031	12623
926.138	12532
926.245	12578
926.352	12418
926.459	12559
926.566	12608
926.673	12410
926.779	12448
926.886	12407
926.993	12254
927.099	12277
927.206	12114
927.312	12163
927.419	12205
927.525	12213
927.631	12171
927.737	12053
927.843	12072
927.95	11931
928.056	12026
928.162	12057
928.267	12083
928.373	12703
928.479	12098
928.585	11840
928.69	11996
928.796	12019
928.901	11847
929.007	11726
929.112	11794
929.218	11828
929.323	11741
929.428	11733
929.533	11878
929.638	11733
929.743	11756
929.848	11748
929.953	11688
930.058	11600
930.163	11410
930.267	11471
930.372	11539
930.477	11501
930.581	11619
930.685	11524
930.79	11353
930.894	11368
930.998	11311
931.103	11410
931.207	11109
931.311	11037
931.415	10908
931.519	10782
931.623	10725
