Data from test_V78500241_2772.txt Node
Date: Fri Mar 25 15:29:09 CST 2022
User: usil
Spectrometer: V785-0024
Trigger mode: 0
Integration Time (sec): 4.000000E-1
Scans to average: 1
Nonlinearity correction enabled: false
Boxcar width: 0
Storing dark spectrum: false
XAxis mode: Wavelengths
Number of Pixels in Spectrum: 1024
>>>>>Begin Spectral Data<<<<<
801.071	27058
801.214	26929
801.356	26815
801.499	26701
801.641	26499
801.783	26663
801.926	26594
802.068	26598
802.211	26495
802.353	26366
802.496	26267
802.638	26271
802.78	26199
802.923	26275
803.065	26058
803.208	26168
803.35	26229
803.492	26324
803.635	26415
803.777	26206
803.919	26366
804.061	26670
804.204	26442
804.346	26195
804.488	26332
804.63	26332
804.773	26248
804.915	26343
805.057	26450
805.199	26267
805.341	26396
805.483	26503
805.626	26552
805.768	26415
805.91	26381
806.052	26465
806.194	26343
806.336	26686
806.478	26355
806.62	26469
806.762	26476
806.904	26739
807.046	26921
807.188	26864
807.33	26746
807.472	26925
807.614	26815
807.756	26864
807.898	26701
808.04	26556
808.182	26476
808.324	26800
808.465	26697
808.607	26921
808.749	27020
808.891	27154
809.033	27135
809.174	27081
809.316	26963
809.458	27074
809.6	26986
809.741	27188
809.883	27138
810.025	27325
810.166	27268
810.308	27416
810.45	27199
810.591	27233
810.733	26975
810.875	27001
811.016	27036
811.158	26967
811.299	27096
811.441	27287
811.582	27169
811.724	27047
811.865	26876
812.007	27024
812.148	26963
812.29	27116
812.431	27241
812.573	27302
812.714	27348
812.855	27458
812.997	27660
813.138	27804
813.279	27500
813.421	27427
813.562	27454
813.703	27424
813.845	27100
813.986	26849
814.127	26674
814.268	26678
814.41	26712
814.551	26735
814.692	26804
814.833	26583
814.974	26724
815.115	26762
815.256	26541
815.397	26518
815.539	26712
815.68	26560
815.821	26355
815.962	26514
816.103	26495
816.244	26214
816.385	26225
816.526	26157
816.666	26043
816.807	25871
816.948	26027
817.089	26054
817.23	25966
817.371	25894
817.512	25940
817.653	26001
817.793	25841
817.934	25970
818.075	25909
818.216	25875
818.356	25868
818.497	25700
818.638	25510
818.778	25571
818.919	25734
819.06	25772
819.2	25883
819.341	25864
819.481	25955
819.622	26016
819.762	26210
819.903	26180
820.043	26012
820.184	25963
820.324	25887
820.465	26054
820.605	26043
820.746	25966
820.886	25826
821.026	25921
821.167	26001
821.307	26005
821.447	25951
821.588	25890
821.728	25670
821.868	25533
822.008	25400
822.149	25415
822.289	25320
822.429	25114
822.569	25080
822.709	25057
822.849	24935
822.99	24871
823.13	24833
823.27	24859
823.41	24658
823.55	24547
823.69	24642
823.83	24795
823.97	24604
824.11	24486
824.25	24502
824.389	24471
824.529	24513
824.669	24608
824.809	24650
824.949	24620
825.089	24517
825.228	24589
825.368	24338
825.508	24338
825.648	24346
825.787	24429
825.927	24395
826.067	24414
826.206	24399
826.346	24285
826.485	24467
826.625	24353
826.765	24395
826.904	24357
827.044	24209
827.183	24155
827.323	24045
827.462	24174
827.601	24041
827.741	24072
827.88	24053
828.02	23882
828.159	23935
828.298	23984
828.437	24133
828.577	23897
828.716	24129
828.855	23965
828.994	23779
829.134	23638
829.273	23767
829.412	23687
829.551	23699
829.69	23878
829.829	23710
829.968	23836
830.107	23908
830.246	23783
830.385	23649
830.524	23630
830.663	23638
830.802	23535
830.941	23482
831.08	23368
831.219	23554
831.357	23429
831.496	23634
831.635	23436
831.774	23421
831.913	23265
832.051	23121
832.19	23178
832.329	23143
832.467	23140
832.606	22980
832.744	22953
832.883	23090
833.022	22927
833.16	23128
833.299	23052
833.437	22965
833.576	23056
833.714	23231
833.852	23166
833.991	23067
834.129	23269
834.267	23151
834.406	23102
834.544	23170
834.682	23178
834.821	23124
834.959	23155
835.097	23220
835.235	23261
835.373	23025
835.511	23132
835.65	22949
835.788	23014
835.926	22801
836.064	22820
836.202	22812
836.34	22976
836.478	22900
836.615	22862
836.753	22942
836.891	22965
837.029	22984
837.167	22816
837.305	22885
837.443	22854
837.58	22809
837.718	22911
837.856	22729
837.993	22645
838.131	22805
838.269	22672
838.406	22759
838.544	22493
838.681	22489
838.819	22531
838.956	22314
839.094	22272
839.231	22436
839.369	22535
839.506	22645
839.643	22527
839.781	22375
839.918	22257
840.055	22261
840.193	22329
840.33	22268
840.467	22303
840.604	22356
840.742	22554
840.879	22074
841.016	22253
841.153	22116
841.29	22291
841.427	22143
841.564	22284
841.701	22325
841.838	22166
841.975	22139
842.112	22055
842.249	22112
842.385	21968
842.522	22261
842.659	22048
842.796	22078
842.933	22025
843.069	21888
843.206	21865
843.343	22059
843.479	21964
843.616	22086
843.752	21850
843.889	21732
844.025	21983
844.162	21720
844.298	21831
844.435	21762
844.571	21728
844.708	21926
844.844	21941
844.98	21911
845.117	21857
845.253	21694
845.389	21648
845.525	21690
845.661	21603
845.798	21458
845.934	21507
846.07	21462
846.206	21469
846.342	21667
846.478	21443
846.614	21233
846.75	21268
846.886	21226
847.022	21359
847.158	21226
847.294	21226
847.429	21226
847.565	21230
847.701	21481
847.837	20998
847.972	20906
848.108	21142
848.244	20986
848.379	20807
848.515	20864
848.65	20921
848.786	20792
848.921	20849
849.057	20857
849.192	20838
849.328	21005
849.463	20773
849.598	20800
849.734	20648
849.869	20682
850.004	20526
850.14	20583
850.275	20644
850.41	20606
850.545	20625
850.68	20613
850.815	20678
850.95	20583
851.085	20697
851.22	20708
851.355	20587
851.49	20564
851.625	20712
851.76	20590
851.895	20583
852.03	20476
852.165	20667
852.299	20693
852.434	20617
852.569	20526
852.703	20533
852.838	20674
852.973	20564
853.107	20686
853.242	20552
853.376	20473
853.511	20362
853.645	20370
853.78	20476
853.914	20370
854.048	20259
854.183	20355
854.317	20461
854.451	20644
854.585	20370
854.72	20358
854.854	20530
854.988	20339
855.122	20419
855.256	20324
855.39	20423
855.524	20415
855.658	20434
855.792	20404
855.926	20400
856.06	20499
856.194	20503
856.327	20358
856.461	20469
856.595	20290
856.729	20301
856.862	20522
856.996	20488
857.13	20541
857.263	20602
857.397	20400
857.53	20366
857.664	20454
857.797	20575
857.931	20526
858.064	20564
858.197	20552
858.331	20457
858.464	20377
858.597	20237
858.731	20442
858.864	20370
858.997	20366
859.13	20522
859.263	20465
859.396	20492
859.529	20484
859.662	20336
859.795	20427
859.928	20419
860.061	20533
860.194	20678
860.327	20476
860.46	20454
860.592	20530
860.725	20594
860.858	20545
860.99	20415
861.123	20328
861.256	20328
861.388	20446
861.521	20952
861.653	20339
861.786	20202
861.918	20164
862.05	20161
862.183	20324
862.315	20305
862.447	20415
862.58	20374
862.712	20172
862.844	20149
862.976	20259
863.108	20267
863.24	20651
863.372	20130
863.504	20191
863.636	20130
863.768	20130
863.9	20069
864.032	20107
864.164	20180
864.296	20199
864.428	20187
864.559	20161
864.691	20244
864.823	20115
864.954	20168
865.086	20138
865.217	20096
865.349	20024
865.48	20092
865.612	20134
865.743	20278
865.875	20119
866.006	20046
866.137	19967
866.269	20020
866.4	20012
866.531	19944
866.662	19963
866.793	19967
866.924	19913
867.055	19959
867.186	19963
867.317	20035
867.448	19856
867.579	19913
867.71	19902
867.841	19887
867.972	19970
868.103	19955
868.233	20088
868.364	20001
868.495	20088
868.625	20191
868.756	20339
868.886	20084
869.017	20202
869.147	20320
869.278	20404
869.408	20183
869.539	20240
869.669	20385
869.799	20351
869.929	20294
870.06	20355
870.19	20568
870.32	20526
870.45	20526
870.58	20708
870.71	20731
870.84	20716
870.97	20602
871.1	20705
871.23	20944
871.36	20807
871.489	20724
871.619	20678
871.749	20765
871.879	20880
872.008	20933
872.138	20807
872.267	20887
872.397	20674
872.526	20602
872.656	20655
872.785	20686
872.915	20929
873.044	20941
873.173	20963
873.303	20990
873.432	20956
873.561	20861
873.69	20910
873.819	20815
873.948	20944
874.077	20872
874.206	20842
874.335	20739
874.464	21017
874.593	21066
874.722	21100
874.851	21226
874.979	20994
875.108	21131
875.237	20948
875.365	21013
875.494	21039
875.623	21211
875.751	21085
875.88	21123
876.008	21230
876.136	21279
876.265	21485
876.393	21564
876.521	21500
876.65	21637
876.778	21454
876.906	21443
877.034	21348
877.162	21359
877.29	21325
877.418	21553
877.546	21496
877.674	21435
877.802	21439
877.93	21466
878.058	21504
878.185	21226
878.313	21332
878.441	21393
878.568	21211
878.696	21382
878.824	21526
878.951	21545
879.079	21515
879.206	21694
879.333	21599
879.461	21389
879.588	21580
879.715	21515
879.842	21755
879.97	21526
880.097	21249
880.224	21241
880.351	21393
880.478	21306
880.605	21294
880.732	21367
880.859	21492
880.986	21272
881.112	21298
881.239	21085
881.366	21062
881.493	20944
881.619	20906
881.746	20876
881.872	20933
881.999	20769
882.125	20872
882.252	20925
882.378	20834
882.505	21020
882.631	20720
882.757	20537
882.883	20762
883.01	20678
883.136	20552
883.262	20396
883.388	20473
883.514	20655
883.64	20682
883.766	20473
883.892	20358
884.018	20438
884.143	20602
884.269	20640
884.395	20313
884.52	20145
884.646	20313
884.772	20210
884.897	20122
885.023	20195
885.148	20374
885.274	20431
885.399	20358
885.524	20142
885.65	20351
885.775	20221
885.9	20229
886.025	20298
886.15	20240
886.275	20218
886.4	20187
886.525	20290
886.65	20073
886.775	20145
886.9	20328
887.025	20473
887.149	20050
887.274	19997
887.399	19864
887.523	20130
887.648	19963
887.773	19864
887.897	20043
888.021	20020
888.146	19944
888.27	19997
888.395	20039
888.519	19963
888.643	19967
888.767	20008
888.891	19993
889.015	19883
889.139	19822
889.263	19727
889.387	19955
889.511	19947
889.635	19887
889.759	19799
889.883	19894
890.006	19852
890.13	19936
890.254	19719
890.377	19651
890.501	19582
890.624	19552
890.748	19613
890.871	19529
890.995	19331
891.118	19392
891.241	19430
891.364	19320
891.488	19525
891.611	19392
891.734	19521
891.857	19434
891.98	19365
892.103	19491
892.226	19362
892.349	19377
892.471	19266
892.594	19438
892.717	19293
892.839	19217
892.962	19415
893.085	19373
893.207	19266
893.33	19099
893.452	19148
893.575	19377
893.697	19255
893.819	19502
893.941	19502
894.064	19339
894.186	19247
894.308	19156
894.43	19312
894.552	19457
894.674	19460
894.796	19213
894.918	19403
895.04	19316
895.161	19388
895.283	19301
895.405	19240
895.526	19312
895.648	19396
895.769	19297
895.891	19381
896.012	19354
896.134	19400
896.255	19293
896.376	19320
896.498	19350
896.619	19316
896.74	19320
896.861	19373
896.982	19643
897.103	19814
897.224	19666
897.345	19696
897.466	19552
897.587	19544
897.708	19635
897.828	19616
897.949	19540
898.07	19384
898.19	19582
898.311	19666
898.431	19506
898.552	19620
898.672	19616
898.792	19795
898.913	19601
899.033	19552
899.153	19487
899.273	19362
899.393	19285
899.513	19339
899.633	19388
899.753	19339
899.873	19274
899.993	19381
900.113	19285
900.232	19327
900.352	19297
900.472	19228
900.591	19072
900.711	19091
900.83	19019
900.95	19126
901.069	19259
901.189	18943
901.308	18722
901.427	18646
901.546	18726
901.665	18730
901.784	18722
901.904	18513
902.023	18483
902.141	18338
902.26	18247
902.379	18315
902.498	18262
902.617	18247
902.735	18254
902.854	18197
902.973	18171
903.091	17878
903.21	17923
903.328	17863
903.446	17813
903.565	17691
903.683	17764
903.801	17505
903.919	17684
904.038	17684
904.156	17573
904.274	17653
904.392	17505
904.51	17444
904.627	17505
904.745	17474
904.863	17421
904.981	17296
905.098	17159
905.216	17151
905.334	17174
905.451	17208
905.569	17155
905.686	17132
905.803	17174
905.921	16995
906.038	17155
906.155	16911
906.272	16839
906.389	16797
906.506	16778
906.623	16790
906.74	16698
906.857	16558
906.974	16569
907.091	16805
907.208	16790
907.324	16713
907.441	16615
907.557	16481
907.674	16447
907.79	16356
907.907	16352
908.023	16527
908.139	16489
908.256	16405
908.372	16470
908.488	16306
908.604	16284
908.72	16200
908.836	16196
908.952	16196
909.068	16181
909.184	16299
909.3	16196
909.415	16211
909.531	16074
909.647	15907
909.762	15842
909.878	15751
909.993	15819
910.108	15831
910.224	15835
910.339	15884
910.454	15838
910.57	15694
910.685	15595
910.8	15934
910.915	15804
911.03	15774
911.145	15492
911.259	15431
911.374	15530
911.489	15351
911.604	15340
911.718	15226
911.833	15233
911.947	15154
912.062	15089
912.176	15245
912.291	15237
912.405	15321
912.519	15454
912.633	15447
912.748	15332
912.862	15184
912.976	15097
913.09	14914
913.204	15001
913.318	15100
913.431	15157
913.545	15203
913.659	15157
913.772	14925
913.886	14842
914	14834
914.113	14975
914.226	15043
914.34	14849
914.453	14849
914.566	14921
914.68	14811
914.793	14686
914.906	14552
915.019	14549
915.132	14419
915.245	14518
915.358	14495
915.47	14545
915.583	14545
915.696	14495
915.809	14655
915.921	14648
916.034	14476
916.146	14396
916.259	14336
916.371	14526
916.483	14450
916.595	14351
916.708	14381
916.82	14347
916.932	14271
917.044	14286
917.156	14317
917.268	14225
917.38	14313
917.491	14168
917.603	14187
917.715	14138
917.826	14229
917.938	14123
918.049	13940
918.161	14130
918.272	14225
918.384	14191
918.495	14043
918.606	14012
918.717	13879
918.828	14039
918.939	14005
919.05	13871
919.161	13849
919.272	13746
919.383	13765
919.494	14024
919.604	14096
919.715	13959
919.826	13868
919.936	13890
920.047	13913
920.157	13928
920.267	14027
920.378	13925
920.488	13890
920.598	14065
920.708	14229
920.818	14142
920.928	14008
921.038	14092
921.148	14180
921.258	13940
921.368	13807
921.477	13609
921.587	13666
921.697	13540
921.806	13723
921.916	13502
922.025	13392
922.134	13422
922.244	13327
922.353	13297
922.462	13289
922.571	13133
922.68	12993
922.789	12928
922.898	12981
923.007	12935
923.116	13034
923.224	12905
923.333	12977
923.442	12817
923.55	12776
923.659	12791
923.767	12882
923.876	12779
923.984	12867
924.092	12745
924.201	12753
924.309	12749
924.417	12745
924.525	12688
924.633	12688
924.741	13590
924.849	12528
924.956	12658
925.064	12452
925.172	12300
925.279	12395
925.387	12429
925.494	12369
925.602	12616
925.709	12490
925.816	12342
925.924	12350
926.031	12407
926.138	12414
926.245	12448
926.352	12323
926.459	12361
926.566	12357
926.673	12258
926.779	12201
926.886	12106
926.993	12087
927.099	11992
927.206	12030
927.312	11946
927.419	12015
927.525	11893
927.631	12045
927.737	11874
927.843	11805
927.95	11733
928.056	11859
928.162	11809
928.267	11805
928.373	12540
928.479	11901
928.585	11581
928.69	11878
928.796	11824
928.901	11649
929.007	11585
929.112	11714
929.218	11733
929.323	11535
929.428	11532
929.533	11680
929.638	11482
929.743	11520
929.848	11573
929.953	11471
930.058	11455
930.163	11288
930.267	11284
930.372	11436
930.477	11250
930.581	11509
930.685	11345
930.79	11201
930.894	11201
930.998	11121
931.103	11288
931.207	10889
931.311	10904
931.415	10801
931.519	10603
931.623	10580
