Data from test_V78500241_2968.txt Node
Date: Fri Mar 25 15:30:31 CST 2022
User: usil
Spectrometer: V785-0024
Trigger mode: 0
Integration Time (sec): 4.000000E-1
Scans to average: 1
Nonlinearity correction enabled: false
Boxcar width: 0
Storing dark spectrum: false
XAxis mode: Wavelengths
Number of Pixels in Spectrum: 1024
>>>>>Begin Spectral Data<<<<<
801.071	27051
801.214	26781
801.356	26735
801.499	26499
801.641	26431
801.783	26393
801.926	26575
802.068	26434
802.211	26248
802.353	26332
802.496	26157
802.638	26195
802.78	25936
802.923	25959
803.065	25932
803.208	25932
803.35	26103
803.492	26119
803.635	26164
803.777	26145
803.919	26210
804.061	26484
804.204	26237
804.346	26218
804.488	26248
804.63	26084
804.773	26229
804.915	26191
805.057	26389
805.199	26119
805.341	26256
805.483	26313
805.626	26366
805.768	26244
805.91	26252
806.052	26282
806.194	26092
806.336	26438
806.478	26244
806.62	26180
806.762	26400
806.904	26465
807.046	26792
807.188	26743
807.33	26796
807.472	26731
807.614	26598
807.756	26689
807.898	26693
808.04	26530
808.182	26492
808.324	26602
808.465	26587
808.607	26769
808.749	26750
808.891	27017
809.033	26975
809.174	26990
809.316	26864
809.458	26823
809.6	26785
809.741	27001
809.883	26967
810.025	27176
810.166	27131
810.308	27138
810.45	27043
810.591	27047
810.733	26937
810.875	26891
811.016	26826
811.158	26800
811.299	27070
811.441	27051
811.582	26994
811.724	27013
811.865	26940
812.007	26845
812.148	26830
812.29	26724
812.431	27028
812.573	27226
812.714	27317
812.855	27237
812.997	27538
813.138	27637
813.279	27401
813.421	27473
813.562	27332
813.703	27222
813.845	26940
813.986	26880
814.127	26670
814.268	26469
814.41	26507
814.551	26492
814.692	26621
814.833	26495
814.974	26503
815.115	26609
815.256	26450
815.397	26408
815.539	26450
815.68	26218
815.821	26168
815.962	26256
816.103	26328
816.244	26191
816.385	26050
816.526	26153
816.666	25875
816.807	25795
816.948	25822
817.089	25902
817.23	25830
817.371	25658
817.512	25769
817.653	25791
817.793	25791
817.934	25856
818.075	25826
818.216	25830
818.356	25746
818.497	25651
818.638	25468
818.778	25518
818.919	25506
819.06	25506
819.2	25689
819.341	25712
819.481	25613
819.622	25871
819.762	26107
819.903	26012
820.043	25955
820.184	25837
820.324	25875
820.465	25909
820.605	25989
820.746	25837
820.886	25609
821.026	25856
821.167	25723
821.307	25871
821.447	25723
821.588	25597
821.728	25559
821.868	25384
822.008	25270
822.149	25247
822.289	25107
822.429	25038
822.569	24985
822.709	24863
822.849	24776
822.99	24738
823.13	24635
823.27	24776
823.41	24570
823.55	24445
823.69	24490
823.83	24479
823.97	24448
824.11	24414
824.25	24258
824.389	24365
824.529	24505
824.669	24308
824.809	24479
824.949	24517
825.089	24353
825.228	24357
825.368	24034
825.508	24197
825.648	24197
825.787	24262
825.927	24216
826.067	24213
826.206	24220
826.346	24258
826.485	24334
826.625	24247
826.765	24380
826.904	24232
827.044	24003
827.183	24045
827.323	23851
827.462	23999
827.601	23882
827.741	23863
827.88	24034
828.02	23783
828.159	23836
828.298	23676
828.437	23805
828.577	23882
828.716	23950
828.855	23680
828.994	23596
829.134	23604
829.273	23528
829.412	23463
829.551	23452
829.69	23551
829.829	23501
829.968	23611
830.107	23638
830.246	23581
830.385	23505
830.524	23383
830.663	23448
830.802	23395
830.941	23200
831.08	23178
831.219	23208
831.357	23258
831.496	23330
831.635	23280
831.774	23124
831.913	22957
832.051	23041
832.19	22957
832.329	22946
832.467	22881
832.606	22850
832.744	22820
832.883	22869
833.022	22831
833.16	22866
833.299	22843
833.437	22786
833.576	22968
833.714	22919
833.852	22911
833.991	23003
834.129	22961
834.267	22968
834.406	22797
834.544	23048
834.682	22892
834.821	22984
834.959	23109
835.097	22713
835.235	22919
835.373	22942
835.511	22862
835.65	22767
835.788	22854
835.926	22672
836.064	22607
836.202	22656
836.34	22767
836.478	22862
836.615	22755
836.753	22675
836.891	22729
837.029	22786
837.167	22771
837.305	22592
837.443	22721
837.58	22516
837.718	22626
837.856	22683
837.993	22668
838.131	22489
838.269	22561
838.406	22561
838.544	22489
838.681	22215
838.819	22257
838.956	22055
839.094	22128
839.231	22181
839.369	22261
839.506	22466
839.643	22238
839.781	22150
839.918	21998
840.055	22029
840.193	22173
840.33	22044
840.467	22120
840.604	22036
840.742	22291
840.879	21846
841.016	22006
841.153	21930
841.29	22048
841.427	22086
841.564	21994
841.701	22040
841.838	22032
841.975	21823
842.112	21911
842.249	21975
842.385	21747
842.522	22177
842.659	21876
842.796	21785
842.933	21751
843.069	21701
843.206	21747
843.343	21895
843.479	21892
843.616	21812
843.752	21549
843.889	21648
844.025	21755
844.162	21591
844.298	21694
844.435	21568
844.571	21355
844.708	21618
844.844	21686
844.98	21534
845.117	21652
845.253	21515
845.389	21507
845.525	21466
845.661	21386
845.798	21241
845.934	21405
846.07	21249
846.206	21408
846.342	21412
846.478	21382
846.614	21100
846.75	21017
846.886	20990
847.022	21116
847.158	20967
847.294	21093
847.429	21062
847.565	21036
847.701	21268
847.837	20842
847.972	20701
848.108	20861
848.244	20925
848.379	20632
848.515	20571
848.65	20488
848.786	20533
848.921	20708
849.057	20693
849.192	20724
849.328	20648
849.463	20602
849.598	20507
849.734	20465
849.869	20389
850.004	20518
850.14	20374
850.275	20431
850.41	20320
850.545	20347
850.68	20339
850.815	20415
850.95	20377
851.085	20511
851.22	20434
851.355	20309
851.49	20415
851.625	20328
851.76	20332
851.895	20298
852.03	20396
852.165	20377
852.299	20488
852.434	20476
852.569	20415
852.703	20389
852.838	20427
852.973	20484
853.107	20328
853.242	20294
853.376	20271
853.511	20221
853.645	20317
853.78	20358
853.914	20248
854.048	20168
854.183	20229
854.317	20233
854.451	20454
854.585	20294
854.72	20164
854.854	20374
854.988	20073
855.122	20252
855.256	20084
855.39	20191
855.524	20324
855.658	20240
855.792	20157
855.926	20191
856.06	20229
856.194	20263
856.327	20168
856.461	20126
856.595	20233
856.729	20252
856.862	20362
856.996	20313
857.13	20210
857.263	20336
857.397	20278
857.53	20142
857.664	20278
857.797	20343
857.931	20237
858.064	20256
858.197	20351
858.331	20206
858.464	20183
858.597	20180
858.731	20149
858.864	20183
858.997	20248
859.13	20187
859.263	20172
859.396	20202
859.529	20286
859.662	20084
859.795	20191
859.928	20290
860.061	20317
860.194	20408
860.327	20240
860.46	20278
860.592	20263
860.725	20495
860.858	20431
860.99	20256
861.123	20142
861.256	20111
861.388	20199
861.521	20762
861.653	20180
861.786	20096
861.918	20122
862.05	20218
862.183	20176
862.315	20248
862.447	20275
862.58	20164
862.712	19906
862.844	19814
862.976	20062
863.108	20100
863.24	20442
863.372	19814
863.504	20012
863.636	19974
863.768	19902
863.9	19898
864.032	19818
864.164	19936
864.296	20031
864.428	20058
864.559	20050
864.691	20027
864.823	19936
864.954	20031
865.086	19890
865.217	19894
865.349	19757
865.48	19909
865.612	19879
865.743	20016
865.875	19970
866.006	19887
866.137	19890
866.269	19750
866.4	19811
866.531	19776
866.662	19780
866.793	19791
866.924	19742
867.055	19864
867.186	19727
867.317	19704
867.448	19666
867.579	19677
867.71	19704
867.841	19757
867.972	19750
868.103	19852
868.233	19769
868.364	19830
868.495	19807
868.625	20005
868.756	20206
868.886	20054
869.017	20043
869.147	20157
869.278	20092
869.408	20149
869.539	20046
869.669	20016
869.799	20092
869.929	20176
870.06	20092
870.19	20267
870.32	20244
870.45	20412
870.58	20457
870.71	20408
870.84	20625
870.97	20355
871.1	20484
871.23	20564
871.36	20682
871.489	20469
871.619	20655
871.749	20727
871.879	20689
872.008	20670
872.138	20629
872.267	20655
872.397	20396
872.526	20461
872.656	20465
872.785	20480
872.915	20636
873.044	20765
873.173	20697
873.303	20655
873.432	20750
873.561	20720
873.69	20651
873.819	20720
873.948	20743
874.077	20693
874.206	20655
874.335	20648
874.464	20716
874.593	20838
874.722	20819
874.851	20899
874.979	20887
875.108	20933
875.237	20857
875.365	20921
875.494	20876
875.623	21024
875.751	20857
875.88	20941
876.008	20941
876.136	21051
876.265	21336
876.393	21431
876.521	21351
876.65	21336
876.778	21230
876.906	21279
877.034	21203
877.162	21211
877.29	21127
877.418	21230
877.546	21291
877.674	21332
877.802	21332
877.93	21233
878.058	21188
878.185	21211
878.313	21150
878.441	21233
878.568	21119
878.696	21180
878.824	21313
878.951	21268
879.079	21538
879.206	21462
879.333	21340
879.461	21424
879.588	21416
879.715	21363
879.842	21447
879.97	21367
880.097	21070
880.224	21226
880.351	21081
880.478	21135
880.605	21020
880.732	21135
880.859	21294
880.986	21089
881.112	21104
881.239	20914
881.366	20663
881.493	20739
881.619	20632
881.746	20743
881.872	20697
881.999	20629
882.125	20670
882.252	20762
882.378	20720
882.505	20773
882.631	20526
882.757	20415
882.883	20492
883.01	20389
883.136	20431
883.262	20240
883.388	20161
883.514	20404
883.64	20336
883.766	20286
883.892	20221
884.018	20210
884.143	20415
884.269	20396
884.395	20286
884.52	19993
884.646	20008
884.772	20008
884.897	19986
885.023	20096
885.148	20096
885.274	20138
885.399	20218
885.524	20005
885.65	20054
885.775	20031
885.9	20062
886.025	20172
886.15	20168
886.275	19925
886.4	19902
886.525	20039
886.65	19982
886.775	20035
886.9	20073
887.025	20122
887.149	20020
887.274	19822
887.399	19826
887.523	19738
887.648	19670
887.773	19860
887.897	19814
888.021	19795
888.146	19841
888.27	19936
888.395	19974
888.519	19871
888.643	19807
888.767	19803
888.891	19776
889.015	19700
889.139	19666
889.263	19575
889.387	19734
889.511	19769
889.635	19704
889.759	19491
889.883	19658
890.006	19693
890.13	19670
890.254	19575
890.377	19506
890.501	19460
890.624	19407
890.748	19434
890.871	19213
890.995	19187
891.118	19206
891.241	19202
891.364	19183
891.488	19259
891.611	19236
891.734	19255
891.857	19339
891.98	19126
892.103	19259
892.226	19221
892.349	19141
892.471	19084
892.594	19069
892.717	19217
892.839	19103
892.962	19069
893.085	19255
893.207	19164
893.33	19042
893.452	19012
893.575	19251
893.697	19164
893.819	19312
893.941	19331
894.064	19324
894.186	19027
894.308	19019
894.43	19312
894.552	19266
894.674	19225
894.796	18996
894.918	19129
895.04	19152
895.161	19168
895.283	19266
895.405	19103
895.526	19240
895.648	19148
895.769	19137
895.891	19247
896.012	19266
896.134	19228
896.255	19145
896.376	19072
896.498	19209
896.619	19217
896.74	19209
896.861	19346
896.982	19358
897.103	19662
897.224	19487
897.345	19358
897.466	19335
897.587	19419
897.708	19563
897.828	19434
897.949	19297
898.07	19373
898.19	19255
898.311	19472
898.431	19259
898.552	19510
898.672	19502
898.792	19518
898.913	19506
899.033	19441
899.153	19187
899.273	19221
899.393	19217
899.513	19194
899.633	19282
899.753	19118
899.873	19133
899.993	19266
900.113	19088
900.232	19236
900.352	18970
900.472	19012
900.591	18905
900.711	18947
900.83	18863
900.95	19072
901.069	19095
901.189	18882
901.308	18791
901.427	18555
901.546	18715
901.665	18570
901.784	18654
901.904	18536
902.023	18315
902.141	18114
902.26	18125
902.379	18235
902.498	18083
902.617	18019
902.735	18167
902.854	18049
902.973	18072
903.091	17813
903.21	17756
903.328	17798
903.446	17699
903.565	17585
903.683	17634
903.801	17440
903.919	17604
904.038	17585
904.156	17448
904.274	17372
904.392	17311
904.51	17288
904.627	17433
904.745	17414
904.863	17395
904.981	17162
905.098	17067
905.216	17083
905.334	16987
905.451	17113
905.569	17014
905.686	17117
905.803	16923
905.921	16812
906.038	16980
906.155	16869
906.272	16771
906.389	16694
906.506	16573
906.623	16573
906.74	16554
906.857	16546
906.974	16421
907.091	16588
907.208	16668
907.324	16489
907.441	16462
907.557	16318
907.674	16421
907.79	16303
907.907	16226
908.023	16257
908.139	16348
908.256	16230
908.372	16226
908.488	16188
908.604	16097
908.72	15983
908.836	16063
908.952	15968
909.068	16029
909.184	16150
909.3	16025
909.415	16112
909.531	15972
909.647	15736
909.762	15808
909.878	15701
909.993	15698
910.108	15717
910.224	15686
910.339	15675
910.454	15603
910.57	15549
910.685	15473
910.8	15759
910.915	15675
911.03	15538
911.145	15291
911.259	15317
911.374	15317
911.489	15321
911.604	15275
911.718	15112
911.833	15165
911.947	15074
912.062	14971
912.176	15169
912.291	15180
912.405	15138
912.519	15325
912.633	15268
912.748	15135
912.862	14990
912.976	14971
913.09	14849
913.204	14811
913.318	14864
913.431	15100
913.545	15085
913.659	14990
913.772	14845
913.886	14705
914	14724
914.113	14762
914.226	14792
914.34	14880
914.453	14575
914.566	14788
914.68	14636
914.793	14629
914.906	14355
915.019	14419
915.132	14396
915.245	14282
915.358	14339
915.47	14259
915.583	14400
915.696	14427
915.809	14419
915.921	14476
916.034	14358
916.146	14267
916.259	14237
916.371	14301
916.483	14248
916.595	14298
916.708	14149
916.82	14199
916.932	14180
917.044	14145
917.156	14161
917.268	14077
917.38	14077
917.491	14035
917.603	14027
917.715	14164
917.826	14084
917.938	13951
918.049	13837
918.161	13997
918.272	14073
918.384	14134
918.495	13967
918.606	13811
918.717	13795
918.828	13833
918.939	13780
919.05	13750
919.161	13753
919.272	13609
919.383	13597
919.494	13864
919.604	14046
919.715	13818
919.826	13700
919.936	13753
920.047	13955
920.157	13803
920.267	13947
920.378	13803
920.488	13845
920.598	13925
920.708	14050
920.818	13917
920.928	13974
921.038	14107
921.148	14001
921.258	13811
921.368	13674
921.477	13670
921.587	13571
921.697	13441
921.806	13529
921.916	13457
922.025	13213
922.134	13293
922.244	13137
922.353	13324
922.462	13118
922.571	13053
922.68	12894
922.789	12833
922.898	12856
923.007	12783
923.116	12913
923.224	12817
923.333	12802
923.442	12730
923.55	12722
923.659	12684
923.767	12814
923.876	12570
923.984	12745
924.092	12582
924.201	12646
924.309	12665
924.417	12620
924.525	12540
924.633	12460
924.741	13270
924.849	12311
924.956	12536
925.064	12403
925.172	12175
925.279	12281
925.387	12353
925.494	12342
925.602	12467
925.709	12380
925.816	12167
925.924	12247
926.031	12426
926.138	12270
926.245	12365
926.352	12152
926.459	12281
926.566	12338
926.673	12144
926.779	12106
926.886	12079
926.993	11958
927.099	11920
927.206	11802
927.312	11802
927.419	11920
927.525	11939
927.631	11942
927.737	11813
927.843	11665
927.95	11589
928.056	11688
928.162	11760
928.267	11710
928.373	12327
928.479	11817
928.585	11516
928.69	11642
928.796	11756
928.901	11611
929.007	11414
929.112	11619
929.218	11551
929.323	11512
929.428	11463
929.533	11699
929.638	11490
929.743	11421
929.848	11478
929.953	11455
930.058	11322
930.163	11174
930.267	11242
930.372	11265
930.477	11037
930.581	11391
930.685	11246
930.79	11075
930.894	11064
930.998	11010
931.103	11151
931.207	10908
931.311	10809
931.415	10596
931.519	10485
931.623	10470
