Data from test_V78500241_3136.txt Node
Date: Fri Mar 25 15:31:41 CST 2022
User: usil
Spectrometer: V785-0024
Trigger mode: 0
Integration Time (sec): 4.000000E-1
Scans to average: 1
Nonlinearity correction enabled: false
Boxcar width: 0
Storing dark spectrum: false
XAxis mode: Wavelengths
Number of Pixels in Spectrum: 1024
>>>>>Begin Spectral Data<<<<<
801.071	27233
801.214	27028
801.356	26762
801.499	26735
801.641	26697
801.783	26651
801.926	26765
802.068	26488
802.211	26632
802.353	26473
802.496	26320
802.638	26347
802.78	26259
802.923	26172
803.065	26130
803.208	26157
803.35	26107
803.492	26480
803.635	26465
803.777	26267
803.919	26377
804.061	26765
804.204	26571
804.346	26499
804.488	26377
804.63	26374
804.773	26077
804.915	26431
805.057	26533
805.199	26370
805.341	26488
805.483	26617
805.626	26526
805.768	26438
805.91	26362
806.052	26655
806.194	26431
806.336	26693
806.478	26640
806.62	26385
806.762	26667
806.904	26674
807.046	27039
807.188	26952
807.33	26971
807.472	27032
807.614	26842
807.756	26830
807.898	26815
808.04	26716
808.182	26720
808.324	26655
808.465	26743
808.607	27108
808.749	27013
808.891	27233
809.033	27096
809.174	27184
809.316	27142
809.458	27135
809.6	27108
809.741	27119
809.883	27222
810.025	27389
810.166	27443
810.308	27424
810.45	27325
810.591	27199
810.733	26971
810.875	27055
811.016	27028
811.158	27009
811.299	27256
811.441	27340
811.582	27302
811.724	27199
811.865	27013
812.007	27028
812.148	27112
812.29	27192
812.431	27272
812.573	27241
812.714	27321
812.855	27542
812.997	27720
813.138	27720
813.279	27762
813.421	27614
813.562	27530
813.703	27374
813.845	27298
813.986	27024
814.127	26769
814.268	26674
814.41	26849
814.551	26686
814.692	26762
814.833	26743
814.974	26743
815.115	26773
815.256	26609
815.397	26530
815.539	26625
815.68	26503
815.821	26446
815.962	26560
816.103	26469
816.244	26419
816.385	26168
816.526	26210
816.666	26138
816.807	25986
816.948	26126
817.089	26176
817.23	26107
817.371	26024
817.512	26016
817.653	25917
817.793	26031
817.934	25970
818.075	25970
818.216	26054
818.356	25982
818.497	25883
818.638	25696
818.778	25765
818.919	25647
819.06	25887
819.2	25921
819.341	25966
819.481	25970
819.622	26225
819.762	26305
819.903	26130
820.043	26229
820.184	26134
820.324	26199
820.465	26161
820.605	26138
820.746	25970
820.886	26005
821.026	25947
821.167	25932
821.307	26142
821.447	26001
821.588	25928
821.728	25795
821.868	25472
822.008	25479
822.149	25468
822.289	25487
822.429	25285
822.569	25251
822.709	25129
822.849	24996
822.99	24951
823.13	24905
823.27	25012
823.41	24867
823.55	24525
823.69	24722
823.83	24856
823.97	24795
824.11	24555
824.25	24566
824.389	24703
824.529	24589
824.669	24563
824.809	24612
824.949	24646
825.089	24692
825.228	24673
825.368	24467
825.508	24369
825.648	24441
825.787	24464
825.927	24540
826.067	24471
826.206	24498
826.346	24620
826.485	24505
826.625	24422
826.765	24505
826.904	24372
827.044	24224
827.183	24235
827.323	24121
827.462	24129
827.601	24205
827.741	24201
827.88	24098
828.02	24045
828.159	24083
828.298	24087
828.437	24155
828.577	24201
828.716	24216
828.855	24038
828.994	23866
829.134	23840
829.273	23958
829.412	23737
829.551	23969
829.69	23836
829.829	23984
829.968	23931
830.107	23992
830.246	23737
830.385	23866
830.524	23760
830.663	23767
830.802	23646
830.941	23478
831.08	23501
831.219	23493
831.357	23581
831.496	23840
831.635	23516
831.774	23337
831.913	23315
832.051	23223
832.19	23265
832.329	23299
832.467	23220
832.606	23090
832.744	23197
832.883	23254
833.022	22991
833.16	23189
833.299	23220
833.437	23284
833.576	23273
833.714	23265
833.852	23273
833.991	23269
834.129	23318
834.267	23337
834.406	23220
834.544	23273
834.682	23277
834.821	23151
834.959	23318
835.097	23178
835.235	23193
835.373	23166
835.511	23239
835.65	23041
835.788	23109
835.926	23048
836.064	22729
836.202	22835
836.34	23071
836.478	23067
836.615	23006
836.753	23079
836.891	23254
837.029	23052
837.167	22927
837.305	23029
837.443	22961
837.58	22911
837.718	22972
837.856	22927
837.993	22946
838.131	22938
838.269	22858
838.406	22847
838.544	22740
838.681	22641
838.819	22554
838.956	22470
839.094	22287
839.231	22409
839.369	22664
839.506	22733
839.643	22691
839.781	22348
839.918	22390
840.055	22360
840.193	22318
840.33	22352
840.467	22295
840.604	22470
840.742	22683
840.879	22265
841.016	22276
841.153	22223
841.29	22379
841.427	22314
841.564	22356
841.701	22284
841.838	22169
841.975	22379
842.112	22295
842.249	22238
842.385	22166
842.522	22246
842.659	22219
842.796	22097
842.933	22116
843.069	22021
843.206	22131
843.343	22128
843.479	22032
843.616	22070
843.752	21926
843.889	22010
844.025	21949
844.162	21888
844.298	21994
844.435	21911
844.571	21857
844.708	21895
844.844	22131
844.98	22097
845.117	21915
845.253	21846
845.389	21694
845.525	21873
845.661	21846
845.798	21614
845.934	21652
846.07	21690
846.206	21705
846.342	21603
846.478	21698
846.614	21397
846.75	21447
846.886	21329
847.022	21526
847.158	21450
847.294	21340
847.429	21530
847.565	21393
847.701	21656
847.837	21207
847.972	21028
848.108	21188
848.244	21135
848.379	21085
848.515	21013
848.65	20910
848.786	21051
848.921	21051
849.057	21138
849.192	21135
849.328	20998
849.463	20944
849.598	20914
849.734	20914
849.869	20868
850.004	20765
850.14	20697
850.275	20716
850.41	20636
850.545	20796
850.68	20769
850.815	20727
850.95	20708
851.085	20834
851.22	20864
851.355	20697
851.49	20765
851.625	20716
851.76	20773
851.895	20693
852.03	20701
852.165	20758
852.299	20807
852.434	20857
852.569	20682
852.703	20678
852.838	20804
852.973	20975
853.107	20849
853.242	20720
853.376	20609
853.511	20377
853.645	20507
853.78	20773
853.914	20537
854.048	20442
854.183	20530
854.317	20598
854.451	20845
854.585	20651
854.72	20625
854.854	20667
854.988	20503
855.122	20537
855.256	20438
855.39	20579
855.524	20629
855.658	20644
855.792	20594
855.926	20625
856.06	20689
856.194	20629
856.327	20556
856.461	20461
856.595	20476
856.729	20552
856.862	20617
856.996	20632
857.13	20743
857.263	20530
857.397	20674
857.53	20556
857.664	20773
857.797	20590
857.931	20682
858.064	20549
858.197	20788
858.331	20518
858.464	20450
858.597	20431
858.731	20514
858.864	20625
858.997	20503
859.13	20545
859.263	20552
859.396	20632
859.529	20526
859.662	20518
859.795	20533
859.928	20583
860.061	20609
860.194	20674
860.327	20564
860.46	20560
860.592	20754
860.725	20815
860.858	20743
860.99	20609
861.123	20552
861.256	20404
861.388	20537
861.521	21112
861.653	20324
861.786	20336
861.918	20309
862.05	20412
862.183	20507
862.315	20431
862.447	20617
862.58	20423
862.712	20332
862.844	20271
862.976	20355
863.108	20237
863.24	20655
863.372	20161
863.504	20286
863.636	20282
863.768	20275
863.9	20366
864.032	20195
864.164	20195
864.296	20385
864.428	20370
864.559	20450
864.691	20332
864.823	20362
864.954	20290
865.086	20233
865.217	20256
865.349	20092
865.48	20199
865.612	20122
865.743	20313
865.875	20199
866.006	20115
866.137	20210
866.269	20119
866.4	20229
866.531	20161
866.662	20077
866.793	20058
866.924	20122
867.055	20252
867.186	20111
867.317	20092
867.448	20142
867.579	20111
867.71	20115
867.841	20100
867.972	20107
868.103	20103
868.233	20126
868.364	20065
868.495	20210
868.625	20374
868.756	20454
868.886	20233
869.017	20370
869.147	20434
869.278	20450
869.408	20305
869.539	20275
869.669	20423
869.799	20419
869.929	20541
870.06	20446
870.19	20621
870.32	20640
870.45	20758
870.58	20716
870.71	20891
870.84	20971
870.97	20807
871.1	20701
871.23	20921
871.36	21036
871.489	20868
871.619	20982
871.749	20944
871.879	21009
872.008	21051
872.138	21028
872.267	21070
872.397	20849
872.526	20758
872.656	20861
872.785	20849
872.915	20910
873.044	21058
873.173	21066
873.303	21112
873.432	21028
873.561	21039
873.69	20933
873.819	20960
873.948	21077
874.077	20872
874.206	21047
874.335	21024
874.464	21176
874.593	21256
874.722	21180
874.851	21329
874.979	21249
875.108	21294
875.237	21051
875.365	21211
875.494	21203
875.623	21298
875.751	21096
875.88	21340
876.008	21412
876.136	21462
876.265	21686
876.393	21633
876.521	21694
876.65	21766
876.778	21641
876.906	21690
877.034	21580
877.162	21606
877.29	21561
877.418	21720
877.546	21587
877.674	21450
877.802	21538
877.93	21599
878.058	21557
878.185	21538
878.313	21622
878.441	21504
878.568	21348
878.696	21557
878.824	21652
878.951	21686
879.079	21789
879.206	21956
879.333	21827
879.461	21637
879.588	21625
879.715	21770
879.842	21857
879.97	21701
880.097	21568
880.224	21370
880.351	21435
880.478	21408
880.605	21351
880.732	21443
880.859	21671
880.986	21386
881.112	21515
881.239	21279
881.366	21192
881.493	21123
881.619	21127
881.746	20948
881.872	20883
881.999	20921
882.125	20944
882.252	21039
882.378	20982
882.505	21009
882.631	20918
882.757	20693
882.883	20788
883.01	20708
883.136	20701
883.262	20609
883.388	20533
883.514	20750
883.64	20682
883.766	20693
883.892	20499
884.018	20594
884.143	20568
884.269	20743
884.395	20522
884.52	20396
884.646	20351
884.772	20362
884.897	20282
885.023	20374
885.148	20454
885.274	20549
885.399	20408
885.524	20210
885.65	20385
885.775	20332
885.9	20347
886.025	20419
886.15	20427
886.275	20374
886.4	20267
886.525	20370
886.65	20275
886.775	20290
886.9	20446
887.025	20579
887.149	20328
887.274	20225
887.399	20164
887.523	20111
887.648	19940
887.773	20046
887.897	20202
888.021	20218
888.146	20088
888.27	20149
888.395	20298
888.519	20119
888.643	20256
888.767	20115
888.891	20001
889.015	19974
889.139	20005
889.263	20001
889.387	19997
889.511	20088
889.635	20058
889.759	19852
889.883	19803
890.006	19906
890.13	20012
890.254	19826
890.377	19826
890.501	19628
890.624	19662
890.748	19712
890.871	19658
890.995	19483
891.118	19521
891.241	19544
891.364	19548
891.488	19696
891.611	19658
891.734	19559
891.857	19563
891.98	19495
892.103	19670
892.226	19510
892.349	19487
892.471	19369
892.594	19407
892.717	19510
892.839	19407
892.962	19491
893.085	19514
893.207	19476
893.33	19384
893.452	19403
893.575	19476
893.697	19388
893.819	19567
893.941	19655
894.064	19514
894.186	19525
894.308	19365
894.43	19434
894.552	19533
894.674	19514
894.796	19419
894.918	19426
895.04	19369
895.161	19537
895.283	19571
895.405	19369
895.526	19491
895.648	19426
895.769	19438
895.891	19384
896.012	19537
896.134	19434
896.255	19438
896.376	19358
896.498	19438
896.619	19460
896.74	19415
896.861	19518
896.982	19837
897.103	19883
897.224	19769
897.345	19753
897.466	19635
897.587	19670
897.708	19791
897.828	19700
897.949	19708
898.07	19468
898.19	19537
898.311	19708
898.431	19624
898.552	19578
898.672	19632
898.792	19791
898.913	19594
899.033	19624
899.153	19567
899.273	19457
899.393	19480
899.513	19449
899.633	19525
899.753	19403
899.873	19362
899.993	19514
900.113	19415
900.232	19373
900.352	19373
900.472	19270
900.591	19289
900.711	19225
900.83	19263
900.95	19453
901.069	19293
901.189	19225
901.308	18840
901.427	18772
901.546	18764
901.665	18909
901.784	18863
901.904	18639
902.023	18658
902.141	18391
902.26	18380
902.379	18380
902.498	18319
902.617	18357
902.735	18315
902.854	18319
902.973	18319
903.091	17969
903.21	18152
903.328	18053
903.446	17847
903.565	17859
903.683	17813
903.801	17707
903.919	17775
904.038	17737
904.156	17592
904.274	17642
904.392	17547
904.51	17676
904.627	17653
904.745	17600
904.863	17608
904.981	17421
905.098	17288
905.216	17341
905.334	17269
905.451	17235
905.569	17299
905.686	17242
905.803	17174
905.921	17090
906.038	17216
906.155	17117
906.272	16999
906.389	17022
906.506	16828
906.623	16930
906.74	16755
906.857	16771
906.974	16748
907.091	16896
907.208	16961
907.324	16866
907.441	16691
907.557	16561
907.674	16462
907.79	16519
907.907	16508
908.023	16508
908.139	16538
908.256	16512
908.372	16348
908.488	16462
908.604	16310
908.72	16303
908.836	16295
908.952	16249
909.068	16272
909.184	16356
909.3	16272
909.415	16226
909.531	16329
909.647	15987
909.762	15903
909.878	16002
909.993	15983
910.108	15888
910.224	15888
910.339	15930
910.454	15781
910.57	15800
910.685	15679
910.8	15968
910.915	15899
911.03	15736
911.145	15576
911.259	15580
911.374	15545
911.489	15507
911.604	15462
911.718	15359
911.833	15386
911.947	15374
912.062	15252
912.176	15378
912.291	15382
912.405	15275
912.519	15587
912.633	15610
912.748	15355
912.862	15287
912.976	15089
913.09	15005
913.204	15089
913.318	15123
913.431	15298
913.545	15359
913.659	15230
913.772	15055
913.886	15070
914	15013
914.113	15100
914.226	15195
914.34	15089
914.453	14910
914.566	15047
914.68	14883
914.793	14792
914.906	14716
915.019	14621
915.132	14499
915.245	14606
915.358	14560
915.47	14511
915.583	14610
915.696	14606
915.809	14785
915.921	14644
916.034	14655
916.146	14484
916.259	14355
916.371	14488
916.483	14522
916.595	14396
916.708	14370
916.82	14552
916.932	14438
917.044	14374
917.156	14385
917.268	14142
917.38	14221
917.491	14320
917.603	14271
917.715	14301
917.826	14355
917.938	14214
918.049	14084
918.161	14278
918.272	14313
918.384	14290
918.495	14221
918.606	14081
918.717	14027
918.828	14100
918.939	14103
919.05	13898
919.161	13864
919.272	13776
919.383	13811
919.494	13993
919.604	14161
919.715	14027
919.826	13978
919.936	13986
920.047	14096
920.157	13997
920.267	14199
920.378	14039
920.488	13887
920.598	14240
920.708	14263
920.818	14115
920.928	14191
921.038	14309
921.148	14161
921.258	13970
921.368	13898
921.477	13791
921.587	13670
921.697	13605
921.806	13757
921.916	13548
922.025	13495
922.134	13457
922.244	13426
922.353	13445
922.462	13377
922.571	13259
922.68	13008
922.789	13080
922.898	13103
923.007	13008
923.116	13080
923.224	13023
923.333	13012
923.442	12935
923.55	12867
923.659	12973
923.767	12852
923.876	12806
923.984	12856
924.092	12783
924.201	12806
924.309	12795
924.417	12734
924.525	12692
924.633	12795
924.741	13651
924.849	12585
924.956	12730
925.064	12521
925.172	12506
925.279	12509
925.387	12471
925.494	12471
925.602	12646
925.709	12551
925.816	12376
925.924	12410
926.031	12601
926.138	12441
926.245	12506
926.352	12296
926.459	12517
926.566	12525
926.673	12372
926.779	12380
926.886	12190
926.993	12224
927.099	12083
927.206	11999
927.312	12057
927.419	12171
927.525	12102
927.631	12053
927.737	11939
927.843	11912
927.95	11786
928.056	11870
928.162	11870
928.267	11889
928.373	12517
928.479	11923
928.585	11699
928.69	11859
928.796	11897
928.901	11714
929.007	11802
929.112	11741
929.218	11695
929.323	11649
929.428	11600
929.533	11775
929.638	11566
929.743	11551
929.848	11638
929.953	11611
930.058	11455
930.163	11326
930.267	11299
930.372	11516
930.477	11387
930.581	11577
930.685	11368
930.79	11193
930.894	11250
930.998	11216
931.103	11315
931.207	10991
931.311	10976
931.415	10854
931.519	10615
931.623	10664
