Data from test_V78500241_1555.txt Node
Date: Fri Mar 25 15:20:41 CST 2022
User: usil
Spectrometer: V785-0024
Trigger mode: 0
Integration Time (sec): 4.000000E-1
Scans to average: 1
Nonlinearity correction enabled: false
Boxcar width: 0
Storing dark spectrum: false
XAxis mode: Wavelengths
Number of Pixels in Spectrum: 1024
>>>>>Begin Spectral Data<<<<<
801.071	27964
801.214	27774
801.356	27713
801.499	27583
801.641	27412
801.783	27416
801.926	27519
802.068	27447
802.211	27416
802.353	27408
802.496	27138
802.638	27127
802.78	27195
802.923	27043
803.065	26967
803.208	27039
803.35	27058
803.492	27302
803.635	27317
803.777	27176
803.919	27325
804.061	27747
804.204	27534
804.346	27382
804.488	27047
804.63	27336
804.773	27192
804.915	27306
805.057	27367
805.199	27283
805.341	27325
805.483	27553
805.626	27416
805.768	27351
805.91	27363
806.052	27488
806.194	27367
806.336	27591
806.478	27435
806.62	27519
806.762	27530
806.904	27728
807.046	27804
807.188	27945
807.33	27861
807.472	27800
807.614	27793
807.756	27781
807.898	27842
808.04	27698
808.182	27846
808.324	27694
808.465	27774
808.607	27998
808.749	28044
808.891	28211
809.033	28348
809.174	28192
809.316	28246
809.458	28143
809.6	28051
809.741	28147
809.883	28284
810.025	28386
810.166	28325
810.308	28470
810.45	28226
810.591	28367
810.733	28181
810.875	28006
811.016	28059
811.158	28032
811.299	28139
811.441	28280
811.582	28226
811.724	28162
811.865	28086
812.007	28082
812.148	27998
812.29	28284
812.431	28242
812.573	28382
812.714	28546
812.855	28630
812.997	28873
813.138	28816
813.279	28679
813.421	28599
813.562	28694
813.703	28436
813.845	28375
813.986	28025
814.127	27892
814.268	27800
814.41	27823
814.551	27747
814.692	28017
814.833	27625
814.974	27781
815.115	27816
815.256	27618
815.397	27743
815.539	27751
815.68	27542
815.821	27359
815.962	27580
816.103	27504
816.244	27435
816.385	27374
816.526	27359
816.666	27192
816.807	27146
816.948	27138
817.089	27100
817.23	27112
817.371	27100
817.512	27108
817.653	27116
817.793	27039
817.934	27074
818.075	27081
818.216	27184
818.356	27077
818.497	27036
818.638	26823
818.778	26811
818.919	26902
819.06	26906
819.2	27009
819.341	27032
819.481	27028
819.622	27131
819.762	27351
819.903	27294
820.043	27165
820.184	27199
820.324	27032
820.465	27329
820.605	27180
820.746	27176
820.886	27066
821.026	27192
821.167	27142
821.307	27032
821.447	27085
821.588	26990
821.728	26914
821.868	26678
822.008	26495
822.149	26518
822.289	26590
822.429	26286
822.569	26282
822.709	26252
822.849	26130
822.99	25993
823.13	26092
823.27	25989
823.41	25700
823.55	25753
823.69	25898
823.83	25879
823.97	25833
824.11	25658
824.25	25696
824.389	25613
824.529	25784
824.669	25662
824.809	25902
824.949	25708
825.089	25833
825.228	25609
825.368	25681
825.508	25597
825.648	25464
825.787	25655
825.927	25548
826.067	25544
826.206	25445
826.346	25575
826.485	25624
826.625	25590
826.765	25635
826.904	25590
827.044	25312
827.183	25362
827.323	25308
827.462	25297
827.601	25206
827.741	25365
827.88	25426
828.02	25137
828.159	25228
828.298	25236
828.437	25278
828.577	25293
828.716	25441
828.855	25179
828.994	25072
829.134	24897
829.273	25129
829.412	24939
829.551	24939
829.69	24970
829.829	25042
829.968	25034
830.107	25034
830.246	24992
830.385	24867
830.524	24802
830.663	24551
830.802	24646
830.941	24494
831.08	24464
831.219	24620
831.357	24703
831.496	24848
831.635	24631
831.774	24578
831.913	24509
832.051	24273
832.19	24407
832.329	24353
832.467	24311
832.606	24178
832.744	24239
832.883	24133
833.022	24338
833.16	24209
833.299	24311
833.437	24235
833.576	24361
833.714	24327
833.852	24311
833.991	24357
834.129	24350
834.267	24296
834.406	24380
834.544	24464
834.682	24403
834.821	24285
834.959	24585
835.097	24224
835.235	24414
835.373	24410
835.511	24365
835.65	24254
835.788	24209
835.926	24015
836.064	24041
836.202	23965
836.34	24144
836.478	24178
836.615	24098
836.753	24087
836.891	24277
837.029	24121
837.167	24022
837.305	24064
837.443	23950
837.58	23992
837.718	24015
837.856	23939
837.993	23927
838.131	24026
838.269	23863
838.406	23840
838.544	23863
838.681	23653
838.819	23668
838.956	23490
839.094	23376
839.231	23501
839.369	23539
839.506	23798
839.643	23653
839.781	23433
839.918	23261
840.055	23482
840.193	23398
840.33	23345
840.467	23353
840.604	23459
840.742	23581
840.879	23204
841.016	23326
841.153	23311
841.29	23440
841.427	23311
841.564	23383
841.701	23421
841.838	23402
841.975	23113
842.112	23136
842.249	23056
842.385	23102
842.522	23387
842.659	23174
842.796	23098
842.933	23025
843.069	22900
843.206	23018
843.343	23208
843.479	23174
843.616	23231
843.752	23010
843.889	22927
844.025	23003
844.162	22710
844.298	23044
844.435	22862
844.571	22820
844.708	22866
844.844	23006
844.98	23029
845.117	23003
845.253	22934
845.389	22748
845.525	22809
845.661	22786
845.798	22565
845.934	22630
846.07	22592
846.206	22755
846.342	22736
846.478	22596
846.614	22337
846.75	22291
846.886	22428
847.022	22424
847.158	22306
847.294	22382
847.429	22382
847.565	22265
847.701	22630
847.837	22124
847.972	22002
848.108	22196
848.244	22185
848.379	22074
848.515	21854
848.65	21861
848.786	22044
848.921	21953
849.057	22044
849.192	22044
849.328	21991
849.463	21949
849.598	21945
849.734	21770
849.869	21789
850.004	21701
850.14	21861
850.275	21667
850.41	21663
850.545	21610
850.68	21679
850.815	21713
850.95	21629
851.085	21660
851.22	21842
851.355	21679
851.49	21694
851.625	21568
851.76	21587
851.895	21549
852.03	21705
852.165	21618
852.299	21736
852.434	21888
852.569	21713
852.703	21728
852.838	21762
852.973	21816
853.107	21793
853.242	21675
853.376	21542
853.511	21374
853.645	21580
853.78	21625
853.914	21553
854.048	21336
854.183	21435
854.317	21557
854.451	21667
854.585	21542
854.72	21564
854.854	21591
854.988	21473
855.122	21507
855.256	21329
855.39	21473
855.524	21557
855.658	21610
855.792	21549
855.926	21519
856.06	21591
856.194	21576
856.327	21511
856.461	21412
856.595	21458
856.729	21583
856.862	21610
856.996	21587
857.13	21614
857.263	21637
857.397	21614
857.53	21504
857.664	21568
857.797	21618
857.931	21496
858.064	21557
858.197	21511
858.331	21511
858.464	21458
858.597	21431
858.731	21538
858.864	21416
858.997	21561
859.13	21587
859.263	21515
859.396	21557
859.529	21428
859.662	21382
859.795	21431
859.928	21603
860.061	21728
860.194	21717
860.327	21686
860.46	21553
860.592	21576
860.725	21648
860.858	21606
860.99	21549
861.123	21549
861.256	21428
861.388	21428
861.521	22265
861.653	21344
861.786	21313
861.918	21428
862.05	21367
862.183	21542
862.315	21412
862.447	21526
862.58	21405
862.712	21165
862.844	21123
862.976	21401
863.108	21386
863.24	21583
863.372	21226
863.504	21135
863.636	21180
863.768	21279
863.9	21294
864.032	21222
864.164	21173
864.296	21264
864.428	21454
864.559	21306
864.691	21283
864.823	21237
864.954	21207
865.086	21241
865.217	21093
865.349	20967
865.48	21180
865.612	21093
865.743	21256
865.875	21100
866.006	20944
866.137	21024
866.269	21165
866.4	21104
866.531	21032
866.662	21039
866.793	20982
866.924	21104
867.055	20982
867.186	20963
867.317	21074
867.448	20868
867.579	20975
867.71	21024
867.841	20937
867.972	21047
868.103	20982
868.233	21127
868.364	21077
868.495	21112
868.625	21207
868.756	21348
868.886	21108
869.017	21161
869.147	21412
869.278	21416
869.408	21207
869.539	21355
869.669	21199
869.799	21291
869.929	21435
870.06	21310
870.19	21549
870.32	21485
870.45	21614
870.58	21698
870.71	21793
870.84	21720
870.97	21759
871.1	21682
871.23	21983
871.36	21873
871.489	21846
871.619	21827
871.749	21895
871.879	21880
872.008	21972
872.138	21869
872.267	21850
872.397	21694
872.526	21690
872.656	21800
872.785	21637
872.915	21911
873.044	21956
873.173	21880
873.303	21880
873.432	21934
873.561	22074
873.69	21926
873.819	21922
873.948	21937
874.077	21953
874.206	21899
874.335	22036
874.464	22078
874.593	22063
874.722	21972
874.851	22029
874.979	22025
875.108	22131
875.237	22124
875.365	22070
875.494	22139
875.623	22177
875.751	22086
875.88	22169
876.008	22265
876.136	22306
876.265	22580
876.393	22573
876.521	22588
876.65	22538
876.778	22440
876.906	22436
877.034	22542
877.162	22424
877.29	22478
877.418	22459
877.546	22497
877.674	22504
877.802	22485
877.93	22363
878.058	22360
878.185	22257
878.313	22489
878.441	22382
878.568	22188
878.696	22459
878.824	22527
878.951	22687
879.079	22584
879.206	22748
879.333	22569
879.461	22519
879.588	22687
879.715	22637
879.842	22698
879.97	22375
880.097	22219
880.224	22272
880.351	22253
880.478	22268
880.605	22226
880.732	22417
880.859	22512
880.986	22246
881.112	22314
881.239	22185
881.366	22051
881.493	21804
881.619	21926
881.746	21968
881.872	21812
881.999	21751
882.125	21789
882.252	21941
882.378	21888
882.505	21945
882.631	21614
882.757	21564
882.883	21656
883.01	21519
883.136	21572
883.262	21485
883.388	21500
883.514	21606
883.64	21473
883.766	21450
883.892	21256
884.018	21355
884.143	21572
884.269	21561
884.395	21291
884.52	21188
884.646	21302
884.772	21131
884.897	21062
885.023	21298
885.148	21256
885.274	21401
885.399	21317
885.524	21207
885.65	21203
885.775	21241
885.9	21116
886.025	21230
886.15	21252
886.275	21260
886.4	21077
886.525	21218
886.65	21085
886.775	21207
886.9	21260
887.025	21469
887.149	21188
887.274	21066
887.399	20998
887.523	20982
887.648	20933
887.773	20807
887.897	21081
888.021	20929
888.146	20948
888.27	21001
888.395	20998
888.519	20963
888.643	20921
888.767	21058
888.891	20834
889.015	20773
889.139	20708
889.263	20819
889.387	20819
889.511	21070
889.635	20906
889.759	20663
889.883	20762
890.006	20773
890.13	20788
890.254	20705
890.377	20575
890.501	20457
890.624	20518
890.748	20568
890.871	20457
890.995	20233
891.118	20237
891.241	20370
891.364	20362
891.488	20385
891.611	20351
891.734	20377
891.857	20393
891.98	20282
892.103	20343
892.226	20324
892.349	20214
892.471	20111
892.594	20290
892.717	20328
892.839	20290
892.962	20263
893.085	20412
893.207	20237
893.33	20035
893.452	20130
893.575	20244
893.697	20096
893.819	20431
893.941	20339
894.064	20309
894.186	20134
894.308	20084
894.43	20263
894.552	20370
894.674	20377
894.796	20046
894.918	20126
895.04	20244
895.161	20320
895.283	20252
895.405	20149
895.526	20218
895.648	20294
895.769	20202
895.891	20290
896.012	20290
896.134	20282
896.255	20282
896.376	20172
896.498	20195
896.619	20191
896.74	20142
896.861	20294
896.982	20518
897.103	20750
897.224	20473
897.345	20393
897.466	20358
897.587	20484
897.708	20568
897.828	20533
897.949	20454
898.07	20286
898.19	20370
898.311	20518
898.431	20415
898.552	20393
898.672	20419
898.792	20480
898.913	20381
899.033	20237
899.153	20244
899.273	20149
899.393	20271
899.513	20252
899.633	20161
899.753	20187
899.873	20145
899.993	20180
900.113	20157
900.232	20107
900.352	20164
900.472	19906
900.591	19898
900.711	20020
900.83	19890
900.95	19989
901.069	20069
901.189	19909
901.308	19662
901.427	19552
901.546	19514
901.665	19605
901.784	19468
901.904	19396
902.023	19259
902.141	19187
902.26	19061
902.379	19072
902.498	18966
902.617	19065
902.735	19175
902.854	19031
902.973	18852
903.091	18726
903.21	18844
903.328	18730
903.446	18604
903.565	18604
903.683	18525
903.801	18399
903.919	18498
904.038	18467
904.156	18391
904.274	18369
904.392	18380
904.51	18209
904.627	18201
904.745	18258
904.863	18429
904.981	18098
905.098	18003
905.216	18015
905.334	18011
905.451	17965
905.569	17920
905.686	17969
905.803	17889
905.921	17843
906.038	17843
906.155	17691
906.272	17596
906.389	17691
906.506	17615
906.623	17524
906.74	17455
906.857	17395
906.974	17486
907.091	17558
907.208	17592
907.324	17512
907.441	17383
907.557	17280
907.674	17140
907.79	17121
907.907	17064
908.023	17261
908.139	17235
908.256	17189
908.372	17185
908.488	17025
908.604	16965
908.72	16938
908.836	16934
908.952	16900
909.068	16908
909.184	17014
909.3	16946
909.415	16984
909.531	16927
909.647	16660
909.762	16679
909.878	16615
909.993	16618
910.108	16592
910.224	16679
910.339	16599
910.454	16523
910.57	16428
910.685	16398
910.8	16626
910.915	16538
911.03	16565
911.145	16272
911.259	16242
911.374	16280
911.489	16268
911.604	16059
911.718	15937
911.833	15987
911.947	15838
912.062	15800
912.176	15884
912.291	15991
912.405	15987
912.519	16112
912.633	16082
912.748	16074
912.862	15922
912.976	15785
913.09	15682
913.204	15728
913.318	15747
913.431	15880
913.545	15850
913.659	15823
913.772	15793
913.886	15584
914	15519
914.113	15656
914.226	15720
914.34	15587
914.453	15595
914.566	15568
914.68	15462
914.793	15523
914.906	15184
915.019	15199
915.132	15135
915.245	15252
915.358	15154
915.47	15131
915.583	15207
915.696	15203
915.809	15214
915.921	15344
916.034	15142
916.146	15146
916.259	15066
916.371	15214
916.483	15112
916.595	15089
916.708	15032
916.82	15017
916.932	15017
917.044	14975
917.156	14921
917.268	14800
917.38	14788
917.491	14811
917.603	14880
917.715	14823
917.826	14883
917.938	14750
918.049	14621
918.161	14762
918.272	15001
918.384	14815
918.495	14781
918.606	14640
918.717	14644
918.828	14674
918.939	14670
919.05	14419
919.161	14503
919.272	14412
919.383	14442
919.494	14606
919.604	14823
919.715	14587
919.826	14545
919.936	14465
920.047	14621
920.157	14522
920.267	14777
920.378	14499
920.488	14431
920.598	14796
920.708	14880
920.818	14705
920.928	14682
921.038	14815
921.148	14838
921.258	14484
921.368	14438
921.477	14343
921.587	14362
921.697	14252
921.806	14347
921.916	14126
922.025	13925
922.134	13925
922.244	13856
922.353	13921
922.462	13833
922.571	13712
922.68	13700
922.789	13655
922.898	13514
923.007	13616
923.116	13495
923.224	13563
923.333	13559
923.442	13472
923.55	13419
923.659	13499
923.767	13480
923.876	13297
923.984	13487
924.092	13285
924.201	13278
924.309	13316
924.417	13400
924.525	13228
924.633	13327
924.741	14012
924.849	13004
924.956	13149
925.064	13072
925.172	12947
925.279	13050
925.387	13019
925.494	13015
925.602	13126
925.709	12985
925.816	12943
925.924	12844
926.031	13057
926.138	12920
926.245	12989
926.352	12779
926.459	12916
926.566	12973
926.673	12825
926.779	12684
926.886	12783
926.993	12585
927.099	12658
927.206	12433
927.312	12517
927.419	12570
927.525	12509
927.631	12604
927.737	12502
927.843	12357
927.95	12266
928.056	12342
928.162	12422
928.267	12388
928.373	13050
928.479	12486
928.585	12098
928.69	12346
928.796	12426
928.901	12216
929.007	12079
929.112	12273
929.218	12228
929.323	12155
929.428	12041
929.533	12194
929.638	11996
929.743	12003
929.848	12095
929.953	12011
930.058	11863
930.163	11767
930.267	11752
930.372	11927
930.477	11729
930.581	11965
930.685	11840
930.79	11752
930.894	11699
930.998	11672
931.103	11684
931.207	11364
931.311	11307
931.415	11212
931.519	11003
931.623	11010
