Data from test_V78500241_2116.txt Node
Date: Fri Mar 25 15:24:35 CST 2022
User: usil
Spectrometer: V785-0024
Trigger mode: 0
Integration Time (sec): 4.000000E-1
Scans to average: 1
Nonlinearity correction enabled: false
Boxcar width: 0
Storing dark spectrum: false
XAxis mode: Wavelengths
Number of Pixels in Spectrum: 1024
>>>>>Begin Spectral Data<<<<<
801.071	27793
801.214	27880
801.356	27530
801.499	27515
801.641	27275
801.783	27241
801.926	27462
802.068	27340
802.211	27108
802.353	27268
802.496	26971
802.638	26952
802.78	26925
802.923	26940
803.065	26952
803.208	26849
803.35	26918
803.492	27074
803.635	27127
803.777	26960
803.919	27233
804.061	27504
804.204	27100
804.346	27116
804.488	27024
804.63	27256
804.773	27085
804.915	27218
805.057	27222
805.199	27154
805.341	27211
805.483	27359
805.626	27252
805.768	27150
805.91	27279
806.052	27378
806.194	27176
806.336	27431
806.478	27302
806.62	27306
806.762	27367
806.904	27717
807.046	27759
807.188	27842
807.33	27720
807.472	27823
807.614	27644
807.756	27686
807.898	27458
808.04	27458
808.182	27633
808.324	27679
808.465	27690
808.607	27781
808.749	27991
808.891	27956
809.033	28010
809.174	28097
809.316	27876
809.458	27895
809.6	27968
809.741	27922
809.883	28036
810.025	28109
810.166	28291
810.308	28200
810.45	28063
810.591	27945
810.733	27857
810.875	27827
811.016	27774
811.158	27728
811.299	27998
811.441	28109
811.582	28006
811.724	27827
811.865	27846
812.007	27861
812.148	27827
812.29	27934
812.431	28025
812.573	28093
812.714	28333
812.855	28405
812.997	28531
813.138	28649
813.279	28554
813.421	28478
813.562	28382
813.703	28131
813.845	28112
813.986	27903
814.127	27751
814.268	27572
814.41	27690
814.551	27625
814.692	27686
814.833	27504
814.974	27561
815.115	27759
815.256	27473
815.397	27549
815.539	27500
815.68	27329
815.821	27359
815.962	27344
816.103	27431
816.244	27173
816.385	27188
816.526	27146
816.666	27089
816.807	26842
816.948	26918
817.089	26998
817.23	26925
817.371	26834
817.512	26902
817.653	26762
817.793	26853
817.934	26720
818.075	26971
818.216	26971
818.356	26838
818.497	26796
818.638	26644
818.778	26602
818.919	26613
819.06	26682
819.2	26739
819.341	26895
819.481	27039
819.622	26982
819.762	27112
819.903	27138
820.043	27051
820.184	27009
820.324	26960
820.465	27005
820.605	26891
820.746	27013
820.886	26872
821.026	26937
821.167	26910
821.307	26948
821.447	26979
821.588	26705
821.728	26598
821.868	26305
822.008	26324
822.149	26313
822.289	26221
822.429	26153
822.569	26115
822.709	26153
822.849	25849
822.99	25940
823.13	25875
823.27	25757
823.41	25620
823.55	25632
823.69	25563
823.83	25556
823.97	25601
824.11	25354
824.25	25304
824.389	25567
824.529	25521
824.669	25434
824.809	25700
824.949	25658
825.089	25567
825.228	25533
825.368	25411
825.508	25187
825.648	25362
825.787	25331
825.927	25270
826.067	25316
826.206	25308
826.346	25479
826.485	25358
826.625	25308
826.765	25411
826.904	25384
827.044	25137
827.183	25103
827.323	25008
827.462	25156
827.601	25072
827.741	25038
827.88	25065
828.02	24886
828.159	24992
828.298	24935
828.437	25072
828.577	24894
828.716	24924
828.855	24981
828.994	24760
829.134	24825
829.273	24795
829.412	24730
829.551	24654
829.69	24840
829.829	24738
829.968	24798
830.107	24734
830.246	24715
830.385	24650
830.524	24639
830.663	24661
830.802	24399
830.941	24353
831.08	24239
831.219	24452
831.357	24407
831.496	24525
831.635	24361
831.774	24376
831.913	24273
832.051	23999
832.19	24121
832.329	24163
832.467	24076
832.606	23889
832.744	23950
832.883	24072
833.022	23824
833.16	23935
833.299	24072
833.437	23965
833.576	24140
833.714	23988
833.852	24144
833.991	24106
834.129	24098
834.267	24098
834.406	24102
834.544	24129
834.682	24178
834.821	24045
834.959	24300
835.097	24045
835.235	24087
835.373	24095
835.511	24057
835.65	24011
835.788	23935
835.926	23733
836.064	23687
836.202	23684
836.34	23893
836.478	23973
836.615	23927
836.753	23946
836.891	23897
837.029	23840
837.167	23893
837.305	23836
837.443	23836
837.58	23802
837.718	23741
837.856	23813
837.993	23726
838.131	23653
838.269	23547
838.406	23649
838.544	23577
838.681	23448
838.819	23318
838.956	23303
839.094	23212
839.231	23330
839.369	23296
839.506	23611
839.643	23402
839.781	23303
839.918	23162
840.055	23086
840.193	23258
840.33	23189
840.467	23246
840.604	23235
840.742	23299
840.879	22949
841.016	22995
841.153	23029
841.29	23189
841.427	23079
841.564	23143
841.701	23086
841.838	23105
841.975	23056
842.112	23010
842.249	23006
842.385	22927
842.522	23060
842.659	22953
842.796	22835
842.933	22999
843.069	22961
843.206	22763
843.343	23003
843.479	22968
843.616	23010
843.752	22706
843.889	22797
844.025	22748
844.162	22584
844.298	22759
844.435	22596
844.571	22580
844.708	22713
844.844	22847
844.98	22831
845.117	22679
845.253	22603
845.389	22584
845.525	22584
845.661	22577
845.798	22382
845.934	22379
846.07	22402
846.206	22276
846.342	22527
846.478	22322
846.614	22234
846.75	22082
846.886	22055
847.022	22078
847.158	22120
847.294	22051
847.429	22226
847.565	22067
847.701	22287
847.837	21861
847.972	21751
848.108	21949
848.244	21983
848.379	21660
848.515	21747
848.65	21747
848.786	21762
848.921	21808
849.057	21667
849.192	21698
849.328	21743
849.463	21686
849.598	21679
849.734	21610
849.869	21485
850.004	21515
850.14	21488
850.275	21530
850.41	21405
850.545	21393
850.68	21450
850.815	21389
850.95	21424
851.085	21660
851.22	21515
851.355	21458
851.49	21667
851.625	21435
851.76	21408
851.895	21275
852.03	21401
852.165	21519
852.299	21523
852.434	21564
852.569	21515
852.703	21443
852.838	21515
852.973	21648
853.107	21473
853.242	21393
853.376	21313
853.511	21260
853.645	21233
853.78	21378
853.914	21370
854.048	21226
854.183	21127
854.317	21245
854.451	21473
854.585	21291
854.72	21428
854.854	21431
854.988	21222
855.122	21340
855.256	21123
855.39	21306
855.524	21401
855.658	21291
855.792	21283
855.926	21450
856.06	21336
856.194	21348
856.327	21298
856.461	21150
856.595	21325
856.729	21222
856.862	21310
856.996	21355
857.13	21279
857.263	21336
857.397	21367
857.53	21321
857.664	21363
857.797	21340
857.931	21332
858.064	21287
858.197	21359
858.331	21176
858.464	21275
858.597	21188
858.731	21256
858.864	21291
858.997	21359
859.13	21233
859.263	21268
859.396	21424
859.529	21230
859.662	21192
859.795	21184
859.928	21279
860.061	21393
860.194	21477
860.327	21454
860.46	21332
860.592	21405
860.725	21511
860.858	21382
860.99	21241
861.123	21249
861.256	21378
861.388	21306
861.521	21949
861.653	21146
861.786	21127
861.918	21138
862.05	21252
862.183	21104
862.315	21275
862.447	21237
862.58	21199
862.712	21005
862.844	20906
862.976	21089
863.108	21081
863.24	21523
863.372	20982
863.504	20963
863.636	21032
863.768	21028
863.9	20925
864.032	21001
864.164	21001
864.296	20979
864.428	21135
864.559	21100
864.691	21161
864.823	20994
864.954	20963
865.086	20975
865.217	21001
865.349	20864
865.48	20956
865.612	20876
865.743	20990
865.875	20918
866.006	20785
866.137	20941
866.269	20845
866.4	20838
866.531	20857
866.662	20807
866.793	20830
866.924	20830
867.055	20842
867.186	20887
867.317	20815
867.448	20735
867.579	20868
867.71	20765
867.841	20796
867.972	20975
868.103	20811
868.233	20864
868.364	20845
868.495	20998
868.625	21020
868.756	21165
868.886	21036
869.017	21043
869.147	21173
869.278	21214
869.408	21169
869.539	21112
869.669	21283
869.799	21127
869.929	21272
870.06	21252
870.19	21435
870.32	21439
870.45	21329
870.58	21572
870.71	21519
870.84	21583
870.97	21523
871.1	21481
871.23	21701
871.36	21637
871.489	21576
871.619	21686
871.749	21724
871.879	21766
872.008	21739
872.138	21701
872.267	21629
872.397	21545
872.526	21637
872.656	21420
872.785	21485
872.915	21614
873.044	21751
873.173	21625
873.303	21622
873.432	21705
873.561	21793
873.69	21827
873.819	21679
873.948	21679
874.077	21633
874.206	21641
874.335	21652
874.464	21774
874.593	21907
874.722	21926
874.851	22067
874.979	21960
875.108	22048
875.237	21835
875.365	21850
875.494	21907
875.623	21842
875.751	21861
875.88	22010
876.008	22017
876.136	22051
876.265	22356
876.393	22512
876.521	22542
876.65	22398
876.778	22379
876.906	22211
877.034	22272
877.162	22325
877.29	22272
877.418	22348
877.546	22284
877.674	22333
877.802	22306
877.93	22341
878.058	22265
878.185	22219
878.313	22196
878.441	22253
878.568	22143
878.696	22192
878.824	22280
878.951	22348
879.079	22344
879.206	22485
879.333	22466
879.461	22306
879.588	22402
879.715	22352
879.842	22527
879.97	22226
880.097	22090
880.224	22051
880.351	22101
880.478	22032
880.605	21975
880.732	22105
880.859	22295
880.986	22070
881.112	22078
881.239	21953
881.366	21915
881.493	21720
881.619	21739
881.746	21663
881.872	21644
881.999	21599
882.125	21519
882.252	21732
882.378	21648
882.505	21857
882.631	21538
882.757	21363
882.883	21431
883.01	21294
883.136	21275
883.262	21112
883.388	21207
883.514	21287
883.64	21428
883.766	21389
883.892	21150
884.018	21066
884.143	21367
884.269	21408
884.395	21081
884.52	21032
884.646	21119
884.772	20986
884.897	20952
885.023	20971
885.148	21036
885.274	21173
885.399	21058
885.524	21066
885.65	21036
885.775	20998
885.9	20979
886.025	21116
886.15	21013
886.275	20948
886.4	20944
886.525	21089
886.65	20918
886.775	20872
886.9	21017
887.025	21184
887.149	20952
887.274	20853
887.399	20785
887.523	20792
887.648	20678
887.773	20594
887.897	20876
888.021	20765
888.146	20659
888.27	20906
888.395	20914
888.519	20834
888.643	20788
888.767	20826
888.891	20686
889.015	20587
889.139	20609
889.263	20518
889.387	20697
889.511	20796
889.635	20731
889.759	20568
889.883	20511
890.006	20518
890.13	20716
890.254	20522
890.377	20438
890.501	20412
890.624	20324
890.748	20233
890.871	20199
890.995	20191
891.118	20043
891.241	20298
891.364	20248
891.488	20206
891.611	20149
891.734	20130
891.857	20210
891.98	20058
892.103	20267
892.226	20183
892.349	20111
892.471	19902
892.594	20046
892.717	20005
892.839	20012
892.962	20119
893.085	20153
893.207	20005
893.33	19932
893.452	19944
893.575	20138
893.697	20100
893.819	20145
893.941	20320
894.064	20218
894.186	20073
894.308	19974
894.43	20138
894.552	20206
894.674	20050
894.796	20008
894.918	20039
895.04	19989
895.161	20012
895.283	20100
895.405	19845
895.526	20016
895.648	20012
895.769	20062
895.891	20020
896.012	20073
896.134	20008
896.255	20016
896.376	20043
896.498	19997
896.619	20077
896.74	20069
896.861	20027
896.982	20259
897.103	20431
897.224	20271
897.345	20069
897.466	20172
897.587	20130
897.708	20374
897.828	20389
897.949	20183
898.07	20115
898.19	20134
898.311	20305
898.431	20153
898.552	20180
898.672	20332
898.792	20263
898.913	20336
899.033	20107
899.153	20096
899.273	19951
899.393	20084
899.513	19989
899.633	19967
899.753	20027
899.873	19917
899.993	20142
900.113	19963
900.232	20088
900.352	19944
900.472	19852
900.591	19746
900.711	19757
900.83	19753
900.95	19890
901.069	19902
901.189	19791
901.308	19510
901.427	19369
901.546	19438
901.665	19304
901.784	19445
901.904	19255
902.023	19141
902.141	18970
902.26	18913
902.379	19031
902.498	18951
902.617	18863
902.735	18962
902.854	18798
902.973	18821
903.091	18490
903.21	18532
903.328	18509
903.446	18456
903.565	18308
903.683	18334
903.801	18357
903.919	18426
904.038	18270
904.156	18171
904.274	18266
904.392	18106
904.51	18083
904.627	18026
904.745	18228
904.863	18277
904.981	17859
905.098	17764
905.216	17851
905.334	17939
905.451	17798
905.569	17752
905.686	17798
905.803	17722
905.921	17592
906.038	17623
906.155	17623
906.272	17478
906.389	17452
906.506	17303
906.623	17391
906.74	17311
906.857	17231
906.974	17307
907.091	17341
907.208	17440
907.324	17368
907.441	17189
907.557	17174
907.674	17151
907.79	17033
907.907	17041
908.023	17128
908.139	17094
908.256	17048
908.372	16938
908.488	16908
908.604	16877
908.72	16687
908.836	16816
908.952	16763
909.068	16774
909.184	16881
909.3	16702
909.415	16793
909.531	16858
909.647	16485
909.762	16413
909.878	16459
909.993	16436
910.108	16516
910.224	16424
910.339	16409
910.454	16261
910.57	16272
910.685	16150
910.8	16523
910.915	16462
911.03	16246
911.145	16059
911.259	16006
911.374	16109
911.489	16051
911.604	16074
911.718	15785
911.833	15922
911.947	15625
912.062	15652
912.176	15739
912.291	15850
912.405	15865
912.519	15880
912.633	15991
912.748	15861
912.862	15850
912.976	15720
913.09	15496
913.204	15568
913.318	15595
913.431	15819
913.545	15690
913.659	15671
913.772	15591
913.886	15466
914	15401
914.113	15496
914.226	15584
914.34	15447
914.453	15336
914.566	15450
914.68	15332
914.793	15310
914.906	15131
915.019	14998
915.132	15024
915.245	15093
915.358	15135
915.47	15085
915.583	14948
915.696	15146
915.809	15173
915.921	15142
916.034	15077
916.146	14948
916.259	14990
916.371	14990
916.483	15017
916.595	14853
916.708	14857
916.82	14788
916.932	14853
917.044	14830
917.156	14785
917.268	14693
917.38	14811
917.491	14667
917.603	14773
917.715	14727
917.826	14655
917.938	14724
918.049	14621
918.161	14670
918.272	14819
918.384	14807
918.495	14610
918.606	14503
918.717	14442
918.828	14446
918.939	14476
919.05	14347
919.161	14427
919.272	14275
919.383	14366
919.494	14419
919.604	14537
919.715	14412
919.826	14385
919.936	14400
920.047	14492
920.157	14400
920.267	14583
920.378	14431
920.488	14355
920.598	14530
920.708	14701
920.818	14606
920.928	14457
921.038	14708
921.148	14670
921.258	14396
921.368	14298
921.477	14240
921.587	14145
921.697	13947
921.806	14183
921.916	13974
922.025	13830
922.134	13776
922.244	13738
922.353	13814
922.462	13636
922.571	13624
922.68	13514
922.789	13426
922.898	13483
923.007	13422
923.116	13384
923.224	13419
923.333	13301
923.442	13270
923.55	13293
923.659	13320
923.767	13327
923.876	13255
923.984	13327
924.092	13175
924.201	13198
924.309	13187
924.417	13244
924.525	13206
924.633	12993
924.741	13845
924.849	12928
924.956	13015
925.064	12924
925.172	12878
925.279	12886
925.387	12844
925.494	12840
925.602	13023
925.709	12981
925.816	12825
925.924	12875
926.031	12894
926.138	12821
926.245	12913
926.352	12764
926.459	12897
926.566	12825
926.673	12840
926.779	12650
926.886	12578
926.993	12513
927.099	12490
927.206	12346
927.312	12380
927.419	12475
927.525	12357
927.631	12456
927.737	12300
927.843	12262
927.95	12171
928.056	12163
928.162	12235
928.267	12323
928.373	12909
928.479	12277
928.585	12140
928.69	12235
928.796	12254
928.901	12064
929.007	12034
929.112	12091
929.218	12083
929.323	12095
929.428	11973
929.533	12095
929.638	11885
929.743	11977
929.848	12007
929.953	11889
930.058	11821
930.163	11703
930.267	11714
930.372	11805
930.477	11611
930.581	11863
930.685	11733
930.79	11627
930.894	11573
930.998	11592
931.103	11684
931.207	11326
931.311	11239
931.415	11178
931.519	10972
931.623	10972
