Data from test_V78500241_2357.txt Node
Date: Fri Mar 25 15:26:16 CST 2022
User: usil
Spectrometer: V785-0024
Trigger mode: 0
Integration Time (sec): 4.000000E-1
Scans to average: 1
Nonlinearity correction enabled: false
Boxcar width: 0
Storing dark spectrum: false
XAxis mode: Wavelengths
Number of Pixels in Spectrum: 1024
>>>>>Begin Spectral Data<<<<<
801.071	27427
801.214	27351
801.356	27199
801.499	27146
801.641	27085
801.783	27005
801.926	27017
802.068	27005
802.211	26792
802.353	26887
802.496	26644
802.638	26686
802.78	26667
802.923	26541
803.065	26583
803.208	26511
803.35	26590
803.492	26804
803.635	26754
803.777	26708
803.919	26906
804.061	27131
804.204	26861
804.346	26651
804.488	26712
804.63	26724
804.773	26796
804.915	26788
805.057	26876
805.199	26815
805.341	26750
805.483	26906
805.626	26975
805.768	26853
805.91	26952
806.052	26826
806.194	26876
806.336	26971
806.478	26925
806.62	26990
806.762	26895
806.904	27157
807.046	27401
807.188	27211
807.33	27469
807.472	27401
807.614	27420
807.756	27230
807.898	27291
808.04	27165
808.182	27154
808.324	27055
808.465	27203
808.607	27504
808.749	27511
808.891	27622
809.033	27724
809.174	27694
809.316	27477
809.458	27599
809.6	27549
809.741	27599
809.883	27762
810.025	27850
810.166	27671
810.308	27766
810.45	27580
810.591	27701
810.733	27580
810.875	27538
811.016	27329
811.158	27252
811.299	27458
811.441	27587
811.582	27667
811.724	27424
811.865	27386
812.007	27523
812.148	27393
812.29	27511
812.431	27679
812.573	27835
812.714	27865
812.855	27907
812.997	28154
813.138	28295
813.279	28204
813.421	28055
813.562	28040
813.703	27747
813.845	27644
813.986	27325
814.127	27329
814.268	27138
814.41	27218
814.551	27188
814.692	27180
814.833	27188
814.974	27070
815.115	27070
815.256	27127
815.397	27180
815.539	26914
815.68	26994
815.821	26921
815.962	27020
816.103	27028
816.244	26868
816.385	26731
816.526	26693
816.666	26476
816.807	26408
816.948	26629
817.089	26682
817.23	26492
817.371	26492
817.512	26301
817.653	26419
817.793	26351
817.934	26366
818.075	26453
818.216	26465
818.356	26461
818.497	26393
818.638	26191
818.778	26225
818.919	26062
819.06	26332
819.2	26183
819.341	26461
819.481	26370
819.622	26484
819.762	26754
819.903	26731
820.043	26617
820.184	26533
820.324	26579
820.465	26663
820.605	26461
820.746	26457
820.886	26465
821.026	26511
821.167	26526
821.307	26484
821.447	26533
821.588	26309
821.728	26218
821.868	26024
822.008	25970
822.149	25871
822.289	25875
822.429	25666
822.569	25624
822.709	25674
822.849	25335
822.99	25491
823.13	25388
823.27	25510
823.41	25278
823.55	25183
823.69	25221
823.83	25244
823.97	25202
824.11	24992
824.25	25000
824.389	25084
824.529	25202
824.669	25012
824.809	25259
824.949	25160
825.089	25145
825.228	25251
825.368	24913
825.508	24867
825.648	24928
825.787	24943
825.927	24981
826.067	24928
826.206	25000
826.346	24958
826.485	25008
826.625	24875
826.765	24985
826.904	24958
827.044	24661
827.183	24665
827.323	24688
827.462	24646
827.601	24601
827.741	24673
827.88	24673
828.02	24403
828.159	24654
828.298	24722
828.437	24665
828.577	24620
828.716	24787
828.855	24635
828.994	24403
829.134	24467
829.273	24338
829.412	24403
829.551	24289
829.69	24277
829.829	24445
829.968	24471
830.107	24338
830.246	24311
830.385	24350
830.524	24334
830.663	24190
830.802	24121
830.941	23931
831.08	23939
831.219	24102
831.357	23992
831.496	24178
831.635	24011
831.774	23992
831.913	23859
832.051	23726
832.19	23642
832.329	23748
832.467	23585
832.606	23562
832.744	23581
832.883	23619
833.022	23596
833.16	23600
833.299	23615
833.437	23783
833.576	23760
833.714	23649
833.852	23737
833.991	23615
834.129	23813
834.267	23851
834.406	23722
834.544	23687
834.682	23756
834.821	23668
834.959	23832
835.097	23665
835.235	23680
835.373	23657
835.511	23596
835.65	23493
835.788	23600
835.926	23535
836.064	23376
836.202	23383
836.34	23512
836.478	23535
836.615	23554
836.753	23463
836.891	23649
837.029	23589
837.167	23345
837.305	23414
837.443	23448
837.58	23322
837.718	23414
837.856	23372
837.993	23356
838.131	23406
838.269	23231
838.406	23345
838.544	23235
838.681	22999
838.819	22972
838.956	22949
839.094	22889
839.231	22778
839.369	22991
839.506	23204
839.643	23075
839.781	22824
839.918	22869
840.055	22850
840.193	22828
840.33	22706
840.467	22771
840.604	22679
840.742	22987
840.879	22637
841.016	22801
841.153	22607
841.29	22873
841.427	22774
841.564	22752
841.701	22656
841.838	22649
841.975	22641
842.112	22672
842.249	22702
842.385	22516
842.522	22656
842.659	22466
842.796	22409
842.933	22489
843.069	22542
843.206	22527
843.343	22466
843.479	22573
843.616	22565
843.752	22219
843.889	22314
844.025	22306
844.162	22386
844.298	22356
844.435	22352
844.571	22306
844.708	22417
844.844	22421
844.98	22527
845.117	22379
845.253	22215
845.389	22192
845.525	22242
845.661	22188
845.798	22120
845.934	22074
846.07	21937
846.206	22067
846.342	22139
846.478	21998
846.614	21842
846.75	21808
846.886	21861
847.022	21899
847.158	21762
847.294	21808
847.429	21854
847.565	21781
847.701	22067
847.837	21488
847.972	21454
848.108	21583
848.244	21428
848.379	21348
848.515	21428
848.65	21370
848.786	21462
848.921	21332
849.057	21488
849.192	21530
849.328	21348
849.463	21363
849.598	21291
849.734	21195
849.869	21150
850.004	21169
850.14	21195
850.275	21226
850.41	21020
850.545	20971
850.68	21028
850.815	21020
850.95	21150
851.085	21321
851.22	21142
851.355	21230
851.49	21173
851.625	21085
851.76	21157
851.895	20918
852.03	21055
852.165	21043
852.299	21165
852.434	21157
852.569	21173
852.703	21165
852.838	21260
852.973	21272
853.107	21245
853.242	21119
853.376	21047
853.511	20823
853.645	20845
853.78	21157
853.914	20956
854.048	21017
854.183	20929
854.317	20998
854.451	21142
854.585	20872
854.72	20895
854.854	21184
854.988	20895
855.122	20967
855.256	20796
855.39	20902
855.524	20956
855.658	21009
855.792	20864
855.926	20963
856.06	21089
856.194	20937
856.327	20937
856.461	20872
856.595	20952
856.729	20925
856.862	21039
856.996	21112
857.13	21058
857.263	21036
857.397	21013
857.53	20754
857.664	21005
857.797	21062
857.931	21135
858.064	21001
858.197	21108
858.331	21047
858.464	20872
858.597	20914
858.731	20956
858.864	20960
858.997	20986
859.13	20994
859.263	21001
859.396	20948
859.529	20956
859.662	20990
859.795	20921
859.928	21036
860.061	21024
860.194	21192
860.327	20998
860.46	21036
860.592	21036
860.725	21135
860.858	21157
860.99	20967
861.123	20925
861.256	20921
861.388	20929
861.521	21462
861.653	20864
861.786	20762
861.918	20849
862.05	20933
862.183	20914
862.315	20804
862.447	20895
862.58	20819
862.712	20697
862.844	20712
862.976	20663
863.108	20693
863.24	21154
863.372	20773
863.504	20682
863.636	20663
863.768	20621
863.9	20689
864.032	20701
864.164	20575
864.296	20701
864.428	20788
864.559	20758
864.691	20735
864.823	20769
864.954	20629
865.086	20602
865.217	20590
865.349	20450
865.48	20655
865.612	20579
865.743	20659
865.875	20659
866.006	20507
866.137	20583
866.269	20518
866.4	20503
866.531	20457
866.662	20476
866.793	20587
866.924	20442
867.055	20606
867.186	20587
867.317	20457
867.448	20355
867.579	20385
867.71	20518
867.841	20355
867.972	20488
868.103	20492
868.233	20488
868.364	20438
868.495	20587
868.625	20739
868.756	20853
868.886	20773
869.017	20754
869.147	20750
869.278	20868
869.408	20807
869.539	20762
869.669	20773
869.799	20788
869.929	21017
870.06	20872
870.19	21108
870.32	21005
870.45	21001
870.58	21123
870.71	21283
870.84	21283
870.97	21169
871.1	21116
871.23	21401
871.36	21412
871.489	21180
871.619	21199
871.749	21310
871.879	21344
872.008	21378
872.138	21252
872.267	21256
872.397	21211
872.526	21264
872.656	21169
872.785	21173
872.915	21279
873.044	21477
873.173	21351
873.303	21488
873.432	21412
873.561	21443
873.69	21405
873.819	21466
873.948	21500
874.077	21325
874.206	21233
874.335	21336
874.464	21462
874.593	21507
874.722	21504
874.851	21679
874.979	21720
875.108	21622
875.237	21511
875.365	21515
875.494	21466
875.623	21564
875.751	21694
875.88	21667
876.008	21755
876.136	21717
876.265	21937
876.393	22112
876.521	22086
876.65	22097
876.778	22090
876.906	21953
877.034	21861
877.162	21975
877.29	21907
877.418	21922
877.546	21880
877.674	21918
877.802	21873
877.93	21869
878.058	21915
878.185	21899
878.313	21934
878.441	21903
878.568	21808
878.696	21880
878.824	21926
878.951	22086
879.079	22154
879.206	22363
879.333	22021
879.461	21888
879.588	22044
879.715	22105
879.842	22105
879.97	22040
880.097	21838
880.224	21675
880.351	21766
880.478	21842
880.605	21717
880.732	21686
880.859	21926
880.986	21671
881.112	21762
881.239	21690
881.366	21420
881.493	21412
881.619	21313
881.746	21348
881.872	21408
881.999	21393
882.125	21310
882.252	21488
882.378	21287
882.505	21428
882.631	21268
882.757	21001
882.883	21036
883.01	21005
883.136	20982
883.262	20910
883.388	20826
883.514	21081
883.64	21161
883.766	20952
883.892	20868
884.018	20682
884.143	20948
884.269	21066
884.395	20750
884.52	20686
884.646	20697
884.772	20579
884.897	20644
885.023	20792
885.148	20682
885.274	20891
885.399	20880
885.524	20697
885.65	20754
885.775	20625
885.9	20617
886.025	20750
886.15	20640
886.275	20743
886.4	20617
886.525	20636
886.65	20503
886.775	20629
886.9	20777
887.025	20849
887.149	20594
887.274	20480
887.399	20419
887.523	20454
887.648	20389
887.773	20431
887.897	20480
888.021	20530
888.146	20389
888.27	20667
888.395	20499
888.519	20454
888.643	20469
888.767	20526
888.891	20442
889.015	20362
889.139	20370
889.263	20176
889.387	20381
889.511	20465
889.635	20317
889.759	20290
889.883	20355
890.006	20347
890.13	20370
890.254	20168
890.377	20218
890.501	20096
890.624	19974
890.748	20035
890.871	19955
890.995	19826
891.118	19822
891.241	19837
891.364	19845
891.488	19974
891.611	19799
891.734	19784
891.857	19849
891.98	19811
892.103	19860
892.226	19849
892.349	19666
892.471	19594
892.594	19769
892.717	19776
892.839	19807
892.962	19708
893.085	19788
893.207	19814
893.33	19616
893.452	19715
893.575	19837
893.697	19620
893.819	19902
893.941	19902
894.064	19917
894.186	19681
894.308	19639
894.43	19788
894.552	20005
894.674	19944
894.796	19651
894.918	19647
895.04	19734
895.161	19856
895.283	19879
895.405	19681
895.526	19685
895.648	19693
895.769	19750
895.891	19795
896.012	19784
896.134	19833
896.255	19742
896.376	19689
896.498	19807
896.619	19856
896.74	19696
896.861	19769
896.982	20035
897.103	20073
897.224	20111
897.345	20024
897.466	19947
897.587	19890
897.708	20218
897.828	19993
897.949	19947
898.07	19818
898.19	19997
898.311	20012
898.431	19997
898.552	19951
898.672	20058
898.792	19978
898.913	19932
899.033	19898
899.153	19833
899.273	19742
899.393	19746
899.513	19769
899.633	19761
899.753	19719
899.873	19708
899.993	19860
900.113	19662
900.232	19655
900.352	19662
900.472	19575
900.591	19514
900.711	19594
900.83	19495
900.95	19575
901.069	19734
901.189	19457
901.308	19198
901.427	19084
901.546	19118
901.665	19152
901.784	19129
901.904	18985
902.023	18719
902.141	18642
902.26	18604
902.379	18711
902.498	18658
902.617	18612
902.735	18612
902.854	18734
902.973	18582
903.091	18292
903.21	18323
903.328	18228
903.446	18270
903.565	18098
903.683	18087
903.801	18095
903.919	18083
904.038	18011
904.156	17904
904.274	17954
904.392	17794
904.51	17817
904.627	17832
904.745	18038
904.863	17961
904.981	17741
905.098	17551
905.216	17566
905.334	17543
905.451	17600
905.569	17482
905.686	17589
905.803	17554
905.921	17307
906.038	17376
906.155	17315
906.272	17208
906.389	17258
906.506	16991
906.623	17143
906.74	17136
906.857	17018
906.974	17052
907.091	17136
907.208	17155
907.324	17102
907.441	16923
907.557	16797
907.674	16805
907.79	16752
907.907	16653
908.023	16835
908.139	16771
908.256	16691
908.372	16618
908.488	16691
908.604	16573
908.72	16527
908.836	16481
908.952	16478
909.068	16550
909.184	16588
909.3	16531
909.415	16519
909.531	16535
909.647	16333
909.762	16257
909.878	16253
909.993	16242
910.108	16166
910.224	16173
910.339	16230
910.454	15994
910.57	15922
910.685	16002
910.8	16181
910.915	16074
911.03	16013
911.145	15880
911.259	15732
911.374	15861
911.489	15690
911.604	15789
911.718	15614
911.833	15534
911.947	15515
912.062	15412
912.176	15515
912.291	15530
912.405	15538
912.519	15762
912.633	15739
912.748	15523
912.862	15584
912.976	15420
913.09	15348
913.204	15336
913.318	15466
913.431	15580
913.545	15454
913.659	15393
913.772	15447
913.886	15264
914	15123
914.113	15298
914.226	15321
914.34	15245
914.453	15077
914.566	15150
914.68	15116
914.793	15043
914.906	14887
915.019	14769
915.132	14845
915.245	14914
915.358	14880
915.47	14891
915.583	14838
915.696	14864
915.809	14899
915.921	14937
916.034	14724
916.146	14701
916.259	14697
916.371	14876
916.483	14819
916.595	14655
916.708	14663
916.82	14716
916.932	14731
917.044	14590
917.156	14537
917.268	14575
917.38	14499
917.491	14533
917.603	14469
917.715	14526
917.826	14686
917.938	14446
918.049	14275
918.161	14343
918.272	14590
918.384	14545
918.495	14374
918.606	14225
918.717	14221
918.828	14271
918.939	14317
919.05	14157
919.161	14168
919.272	14020
919.383	14092
919.494	14286
919.604	14556
919.715	14256
919.826	14084
919.936	14191
920.047	14374
920.157	14206
920.267	14457
920.378	14244
920.488	14168
920.598	14351
920.708	14549
920.818	14252
920.928	14351
921.038	14545
921.148	14362
921.258	14187
921.368	14138
921.477	14008
921.587	13951
921.697	13841
921.806	13944
921.916	13772
922.025	13616
922.134	13571
922.244	13624
922.353	13609
922.462	13537
922.571	13377
922.68	13339
922.789	13247
922.898	13228
923.007	13126
923.116	13289
923.224	13141
923.333	13171
923.442	13122
923.55	13034
923.659	13027
923.767	13160
923.876	12989
923.984	13038
924.092	13031
924.201	13069
924.309	13004
924.417	12947
924.525	12890
924.633	12871
924.741	13902
924.849	12749
924.956	12791
925.064	12715
925.172	12582
925.279	12692
925.387	12646
925.494	12703
925.602	12753
925.709	12749
925.816	12627
925.924	12612
926.031	12646
926.138	12585
926.245	12662
926.352	12536
926.459	12631
926.566	12677
926.673	12608
926.779	12380
926.886	12448
926.993	12281
927.099	12247
927.206	12285
927.312	12235
927.419	12296
927.525	12304
927.631	12285
927.737	12155
927.843	12117
927.95	12053
928.056	12083
928.162	12102
928.267	12152
928.373	12635
928.479	12148
928.585	11939
928.69	12079
928.796	12117
928.901	11912
929.007	11783
929.112	12003
929.218	11920
929.323	11859
929.428	11904
929.533	11984
929.638	11726
929.743	11794
929.848	11821
929.953	11767
930.058	11634
930.163	11501
930.267	11532
930.372	11623
930.477	11493
930.581	11726
930.685	11581
930.79	11467
930.894	11444
930.998	11452
931.103	11448
931.207	11220
931.311	10999
931.415	11010
931.519	10790
931.623	10748
