Data from test_V78500241_2109.txt Node
Date: Fri Mar 25 15:24:32 CST 2022
User: usil
Spectrometer: V785-0024
Trigger mode: 0
Integration Time (sec): 4.000000E-1
Scans to average: 1
Nonlinearity correction enabled: false
Boxcar width: 0
Storing dark spectrum: false
XAxis mode: Wavelengths
Number of Pixels in Spectrum: 1024
>>>>>Begin Spectral Data<<<<<
801.071	27800
801.214	27857
801.356	27477
801.499	27408
801.641	27416
801.783	27397
801.926	27420
802.068	27325
802.211	27135
802.353	27272
802.496	27039
802.638	27089
802.78	27017
802.923	26880
803.065	26750
803.208	26899
803.35	26986
803.492	27058
803.635	27203
803.777	27173
803.919	27279
804.061	27557
804.204	27272
804.346	27230
804.488	27142
804.63	27173
804.773	27028
804.915	27218
805.057	27389
805.199	27294
805.341	27222
805.483	27233
805.626	27393
805.768	27211
805.91	27291
806.052	27378
806.194	27351
806.336	27515
806.478	27237
806.62	27306
806.762	27450
806.904	27576
807.046	27876
807.188	27781
807.33	27720
807.472	27857
807.614	27686
807.756	27698
807.898	27549
808.04	27397
808.182	27458
808.324	27698
808.465	27595
808.607	27827
808.749	27956
808.891	28090
809.033	28120
809.174	27934
809.316	27899
809.458	27983
809.6	27911
809.741	28029
809.883	28082
810.025	28185
810.166	28310
810.308	28226
810.45	28124
810.591	28169
810.733	28051
810.875	27899
811.016	27865
811.158	27888
811.299	28010
811.441	28032
811.582	28185
811.724	27865
811.865	27987
812.007	27850
812.148	27926
812.29	27930
812.431	28074
812.573	28230
812.714	28466
812.855	28428
812.997	28455
813.138	28660
813.279	28485
813.421	28535
813.562	28405
813.703	28314
813.845	28215
813.986	27922
814.127	27686
814.268	27656
814.41	27610
814.551	27682
814.692	27755
814.833	27576
814.974	27572
815.115	27671
815.256	27393
815.397	27443
815.539	27614
815.68	27378
815.821	27477
815.962	27454
816.103	27348
816.244	27264
816.385	27211
816.526	27165
816.666	27009
816.807	26929
816.948	27058
817.089	26944
817.23	27017
817.371	26902
817.512	26887
817.653	26925
817.793	26940
817.934	26834
818.075	26960
818.216	26914
818.356	26830
818.497	26708
818.638	26560
818.778	26667
818.919	26560
819.06	26609
819.2	26872
819.341	26883
819.481	26902
819.622	27032
819.762	27195
819.903	27119
820.043	27131
820.184	26906
820.324	27039
820.465	27180
820.605	27009
820.746	26929
820.886	26895
821.026	26960
821.167	26921
821.307	27108
821.447	27009
821.588	26883
821.728	26682
821.868	26473
822.008	26366
822.149	26415
822.289	26267
822.429	26039
822.569	26084
822.709	26073
822.849	25966
822.99	25753
823.13	26008
823.27	25902
823.41	25811
823.55	25670
823.69	25780
823.83	25643
823.97	25708
824.11	25529
824.25	25552
824.389	25392
824.529	25685
824.669	25533
824.809	25559
824.949	25575
825.089	25635
825.228	25597
825.368	25506
825.508	25400
825.648	25407
825.787	25476
825.927	25525
826.067	25247
826.206	25350
826.346	25388
826.485	25388
826.625	25373
826.765	25396
826.904	25460
827.044	25110
827.183	25247
827.323	25099
827.462	25126
827.601	25129
827.741	25114
827.88	25175
828.02	24992
828.159	25038
828.298	25012
828.437	25137
828.577	25031
828.716	25304
828.855	25057
828.994	24840
829.134	24810
829.273	25004
829.412	24871
829.551	24677
829.69	24871
829.829	24772
829.968	24772
830.107	24951
830.246	24772
830.385	24639
830.524	24734
830.663	24604
830.802	24570
830.941	24418
831.08	24433
831.219	24570
831.357	24525
831.496	24711
831.635	24437
831.774	24395
831.913	24277
832.051	24273
832.19	24190
832.329	24228
832.467	24159
832.606	23984
832.744	24030
832.883	24049
833.022	24220
833.16	24114
833.299	24140
833.437	24136
833.576	24224
833.714	24270
833.852	24190
833.991	24205
834.129	24197
834.267	24201
834.406	24148
834.544	24224
834.682	24258
834.821	24091
834.959	24258
835.097	24068
835.235	24167
835.373	24140
835.511	24117
835.65	24186
835.788	24057
835.926	23973
836.064	23840
836.202	23745
836.34	23965
836.478	24117
836.615	23863
836.753	23939
836.891	24159
837.029	24011
837.167	23878
837.305	23904
837.443	23908
837.58	23767
837.718	23828
837.856	23745
837.993	23775
838.131	23870
838.269	23752
838.406	23821
838.544	23619
838.681	23543
838.819	23402
838.956	23330
839.094	23349
839.231	23383
839.369	23452
839.506	23684
839.643	23528
839.781	23261
839.918	23223
840.055	23326
840.193	23280
840.33	23143
840.467	23254
840.604	23261
840.742	23516
840.879	23140
841.016	23052
841.153	22968
841.29	23349
841.427	23200
841.564	23299
841.701	23143
841.838	23155
841.975	23128
842.112	23315
842.249	23037
842.385	22927
842.522	23193
842.659	23003
842.796	22976
842.933	22881
843.069	22908
843.206	22961
843.343	23014
843.479	22911
843.616	22824
843.752	22759
843.889	22702
844.025	22866
844.162	22824
844.298	22869
844.435	22710
844.571	22755
844.708	22866
844.844	22854
844.98	22854
845.117	22930
845.253	22713
845.389	22538
845.525	22618
845.661	22497
845.798	22348
845.934	22485
846.07	22459
846.206	22546
846.342	22679
846.478	22440
846.614	22257
846.75	22173
846.886	22367
847.022	22310
847.158	22379
847.294	22211
847.429	22215
847.565	22147
847.701	22417
847.837	21975
847.972	21835
848.108	22021
848.244	22013
848.379	21800
848.515	21785
848.65	21778
848.786	21884
848.921	21842
849.057	21831
849.192	21819
849.328	21903
849.463	21903
849.598	21827
849.734	21679
849.869	21663
850.004	21580
850.14	21637
850.275	21450
850.41	21500
850.545	21519
850.68	21507
850.815	21576
850.95	21580
851.085	21629
851.22	21682
851.355	21633
851.49	21549
851.625	21568
851.76	21488
851.895	21526
852.03	21504
852.165	21504
852.299	21458
852.434	21591
852.569	21595
852.703	21549
852.838	21690
852.973	21667
853.107	21675
853.242	21435
853.376	21363
853.511	21279
853.645	21298
853.78	21431
853.914	21405
854.048	21283
854.183	21389
854.317	21526
854.451	21633
854.585	21397
854.72	21325
854.854	21393
854.988	21340
855.122	21378
855.256	21287
855.39	21272
855.524	21485
855.658	21450
855.792	21382
855.926	21443
856.06	21492
856.194	21469
856.327	21272
856.461	21256
856.595	21313
856.729	21321
856.862	21606
856.996	21443
857.13	21450
857.263	21447
857.397	21469
857.53	21416
857.664	21279
857.797	21477
857.931	21443
858.064	21374
858.197	21485
858.331	21401
858.464	21317
858.597	21176
858.731	21397
858.864	21317
858.997	21408
859.13	21279
859.263	21401
859.396	21431
859.529	21344
859.662	21424
859.795	21241
859.928	21443
860.061	21466
860.194	21545
860.327	21420
860.46	21389
860.592	21534
860.725	21564
860.858	21530
860.99	21454
861.123	21275
861.256	21340
861.388	21355
861.521	22162
861.653	21249
861.786	21135
861.918	21211
862.05	21195
862.183	21294
862.315	21382
862.447	21294
862.58	21260
862.712	21260
862.844	21081
862.976	21176
863.108	21104
863.24	21644
863.372	21081
863.504	21058
863.636	21077
863.768	20963
863.9	21100
864.032	21108
864.164	21085
864.296	21203
864.428	21169
864.559	21222
864.691	20986
864.823	21169
864.954	21169
865.086	20975
865.217	21070
865.349	21043
865.48	21062
865.612	21089
865.743	21123
865.875	20929
866.006	20853
866.137	20929
866.269	20956
866.4	20944
866.531	20853
866.662	21051
866.793	20765
866.924	20918
867.055	20899
867.186	20880
867.317	20944
867.448	20762
867.579	20910
867.71	20750
867.841	20857
867.972	20967
868.103	20944
868.233	21013
868.364	20952
868.495	21028
868.625	21180
868.756	21306
868.886	21074
869.017	21230
869.147	21154
869.278	21306
869.408	21135
869.539	21135
869.669	21157
869.799	21108
869.929	21279
870.06	21298
870.19	21340
870.32	21500
870.45	21519
870.58	21568
870.71	21652
870.84	21701
870.97	21576
871.1	21507
871.23	21720
871.36	21766
871.489	21637
871.619	21633
871.749	21682
871.879	21724
872.008	21869
872.138	21785
872.267	21709
872.397	21610
872.526	21599
872.656	21595
872.785	21511
872.915	21876
873.044	21854
873.173	21854
873.303	21816
873.432	21766
873.561	21876
873.69	21736
873.819	21781
873.948	21724
874.077	21823
874.206	21778
874.335	21739
874.464	21880
874.593	21915
874.722	21991
874.851	21998
874.979	22036
875.108	21979
875.237	21949
875.365	21808
875.494	21888
875.623	22025
875.751	21987
875.88	22002
876.008	22048
876.136	22207
876.265	22413
876.393	22599
876.521	22546
876.65	22360
876.778	22413
876.906	22265
877.034	22382
877.162	22379
877.29	22257
877.418	22421
877.546	22333
877.674	22268
877.802	22253
877.93	22272
878.058	22261
878.185	22253
878.313	22226
878.441	22379
878.568	22128
878.696	22246
878.824	22223
878.951	22322
879.079	22428
879.206	22626
879.333	22481
879.461	22272
879.588	22428
879.715	22493
879.842	22584
879.97	22413
880.097	22219
880.224	22162
880.351	22318
880.478	22177
880.605	22097
880.732	22257
880.859	22379
880.986	22249
881.112	22124
881.239	21960
881.366	21781
881.493	21831
881.619	21667
881.746	21759
881.872	21701
881.999	21804
882.125	21690
882.252	21736
882.378	21743
882.505	21785
882.631	21629
882.757	21443
882.883	21507
883.01	21507
883.136	21332
883.262	21294
883.388	21389
883.514	21504
883.64	21504
883.766	21332
883.892	21344
884.018	21180
884.143	21329
884.269	21466
884.395	21192
884.52	21093
884.646	21062
884.772	21028
884.897	20883
885.023	21070
885.148	21108
885.274	21180
885.399	21104
885.524	21108
885.65	21161
885.775	21096
885.9	21024
886.025	21192
886.15	21173
886.275	20994
886.4	21051
886.525	20925
886.65	20979
886.775	20956
886.9	21154
887.025	21157
887.149	20948
887.274	20727
887.399	20838
887.523	20773
887.648	20819
887.773	20781
887.897	20895
888.021	20819
888.146	20750
888.27	20918
888.395	20918
888.519	20739
888.643	20880
888.767	20876
888.891	20754
889.015	20514
889.139	20689
889.263	20606
889.387	20838
889.511	20792
889.635	20769
889.759	20678
889.883	20579
890.006	20613
890.13	20746
890.254	20579
890.377	20602
890.501	20450
890.624	20366
890.748	20469
890.871	20377
890.995	20149
891.118	20210
891.241	20271
891.364	20157
891.488	20305
891.611	20229
891.734	20229
891.857	20233
891.98	20180
892.103	20301
892.226	20122
892.349	20092
892.471	19921
892.594	20020
892.717	20084
892.839	20039
892.962	20046
893.085	20237
893.207	20100
893.33	19993
893.452	19993
893.575	20214
893.697	20027
893.819	20221
893.941	20294
894.064	20290
894.186	20008
894.308	19890
894.43	20263
894.552	20313
894.674	20187
894.796	20031
894.918	20149
895.04	20031
895.161	20092
895.283	20088
895.405	19951
895.526	20077
895.648	20062
895.769	20142
895.891	20100
896.012	20153
896.134	20180
896.255	20138
896.376	20062
896.498	20126
896.619	20206
896.74	20130
896.861	20282
896.982	20526
897.103	20545
897.224	20324
897.345	20328
897.466	20343
897.587	20180
897.708	20457
897.828	20404
897.949	20248
898.07	20199
898.19	20199
898.311	20393
898.431	20248
898.552	20320
898.672	20343
898.792	20484
898.913	20294
899.033	20210
899.153	20130
899.273	20016
899.393	20126
899.513	20111
899.633	20035
899.753	20107
899.873	20008
899.993	19997
900.113	19890
900.232	20081
900.352	20012
900.472	19879
900.591	19871
900.711	19947
900.83	19818
900.95	19864
901.069	19944
901.189	19571
901.308	19400
901.427	19388
901.546	19468
901.665	19438
901.784	19472
901.904	19426
902.023	19289
902.141	18943
902.26	18962
902.379	19080
902.498	19038
902.617	18886
902.735	19023
902.854	19008
902.973	18871
903.091	18574
903.21	18661
903.328	18604
903.446	18536
903.565	18399
903.683	18429
903.801	18311
903.919	18475
904.038	18414
904.156	18243
904.274	18243
904.392	18136
904.51	18121
904.627	18144
904.745	18327
904.863	18254
904.981	17961
905.098	17885
905.216	17855
905.334	17840
905.451	17870
905.569	17821
905.686	17805
905.803	17851
905.921	17592
906.038	17790
906.155	17707
906.272	17554
906.389	17592
906.506	17356
906.623	17406
906.74	17414
906.857	17273
906.974	17284
907.091	17512
907.208	17589
907.324	17421
907.441	17197
907.557	17094
907.674	17140
907.79	17143
907.907	17086
908.023	17170
908.139	17117
908.256	17025
908.372	17041
908.488	16987
908.604	16873
908.72	16793
908.836	16873
908.952	16809
909.068	16869
909.184	17010
909.3	16801
909.415	16793
909.531	16858
909.647	16599
909.762	16573
909.878	16561
909.993	16516
910.108	16455
910.224	16512
910.339	16550
910.454	16424
910.57	16276
910.685	16242
910.8	16443
910.915	16459
911.03	16398
911.145	16192
911.259	16166
911.374	16143
911.489	16086
911.604	16006
911.718	15857
911.833	15907
911.947	15816
912.062	15751
912.176	15869
912.291	15922
912.405	15781
912.519	15964
912.633	16025
912.748	15838
912.862	15823
912.976	15778
913.09	15576
913.204	15538
913.318	15656
913.431	15755
913.545	15743
913.659	15804
913.772	15603
913.886	15477
914	15477
914.113	15557
914.226	15561
914.34	15534
914.453	15458
914.566	15545
914.68	15485
914.793	15252
914.906	15199
915.019	15142
915.132	14979
915.245	15051
915.358	15085
915.47	15081
915.583	15062
915.696	15157
915.809	15214
915.921	15222
916.034	15032
916.146	14876
916.259	14910
916.371	14982
916.483	15005
916.595	14933
916.708	14895
916.82	14929
916.932	14918
917.044	14838
917.156	14853
917.268	14750
917.38	14743
917.491	14701
917.603	14758
917.715	14819
917.826	14792
917.938	14655
918.049	14583
918.161	14705
918.272	14785
918.384	14880
918.495	14575
918.606	14499
918.717	14465
918.828	14476
918.939	14526
919.05	14495
919.161	14457
919.272	14298
919.383	14393
919.494	14530
919.604	14708
919.715	14507
919.826	14355
919.936	14457
920.047	14522
920.157	14438
920.267	14659
920.378	14526
920.488	14465
920.598	14598
920.708	14689
920.818	14606
920.928	14613
921.038	14769
921.148	14724
921.258	14358
921.368	14324
921.477	14256
921.587	14309
921.697	14005
921.806	14275
921.916	14031
922.025	13913
922.134	13849
922.244	13822
922.353	13898
922.462	13677
922.571	13712
922.68	13563
922.789	13521
922.898	13457
923.007	13525
923.116	13521
923.224	13373
923.333	13552
923.442	13274
923.55	13430
923.659	13339
923.767	13407
923.876	13274
923.984	13297
924.092	13160
924.201	13270
924.309	13240
924.417	13221
924.525	13114
924.633	13137
924.741	13887
924.849	13000
924.956	13091
925.064	12905
925.172	12787
925.279	12901
925.387	12928
925.494	12844
925.602	13042
925.709	12962
925.816	12878
925.924	12821
926.031	12977
926.138	12867
926.245	12837
926.352	12768
926.459	12886
926.566	12970
926.673	12768
926.779	12703
926.886	12563
926.993	12452
927.099	12486
927.206	12418
927.312	12437
927.419	12486
927.525	12502
927.631	12479
927.737	12330
927.843	12308
927.95	12258
928.056	12197
928.162	12319
928.267	12376
928.373	12951
928.479	12399
928.585	12163
928.69	12300
928.796	12315
928.901	12175
929.007	11954
929.112	12144
929.218	12114
929.323	12102
929.428	12019
929.533	12136
929.638	11870
929.743	11958
929.848	11996
929.953	12019
930.058	11901
930.163	11714
930.267	11729
930.372	11882
930.477	11653
930.581	11961
930.685	11714
930.79	11585
930.894	11615
930.998	11551
931.103	11703
931.207	11322
931.311	11185
931.415	11212
931.519	10949
931.623	10965
