Data from test_V78500241_2489.txt Node
Date: Fri Mar 25 15:27:11 CST 2022
User: usil
Spectrometer: V785-0024
Trigger mode: 0
Integration Time (sec): 4.000000E-1
Scans to average: 1
Nonlinearity correction enabled: false
Boxcar width: 0
Storing dark spectrum: false
XAxis mode: Wavelengths
Number of Pixels in Spectrum: 1024
>>>>>Begin Spectral Data<<<<<
801.071	27062
801.214	26960
801.356	26739
801.499	26800
801.641	26575
801.783	26659
801.926	26629
802.068	26564
802.211	26568
802.353	26492
802.496	26453
802.638	26263
802.78	26168
802.923	26225
803.065	26183
803.208	26176
803.35	26282
803.492	26446
803.635	26583
803.777	26301
803.919	26492
804.061	26724
804.204	26537
804.346	26568
804.488	26237
804.63	26495
804.773	26389
804.915	26351
805.057	26530
805.199	26381
805.341	26434
805.483	26507
805.626	26579
805.768	26453
805.91	26556
806.052	26590
806.194	26419
806.336	26727
806.478	26484
806.62	26602
806.762	26621
806.904	26754
807.046	27077
807.188	26948
807.33	26918
807.472	26975
807.614	26785
807.756	26883
807.898	26815
808.04	26743
808.182	26762
808.324	26758
808.465	26785
808.607	27024
808.749	27131
808.891	27199
809.033	27287
809.174	27066
809.316	27047
809.458	27036
809.6	27001
809.741	27199
809.883	27287
810.025	27355
810.166	27561
810.308	27378
810.45	27397
810.591	27268
810.733	27146
810.875	27005
811.016	27184
811.158	27032
811.299	27199
811.441	27302
811.582	27401
811.724	27241
811.865	27104
812.007	27024
812.148	27051
812.29	27112
812.431	27195
812.573	27272
812.714	27496
812.855	27633
812.997	27625
813.138	27766
813.279	27633
813.421	27667
813.562	27561
813.703	27473
813.845	27393
813.986	26956
814.127	26956
814.268	26720
814.41	26899
814.551	26746
814.692	26781
814.833	26750
814.974	26785
815.115	26872
815.256	26746
815.397	26560
815.539	26655
815.68	26480
815.821	26438
815.962	26571
816.103	26644
816.244	26347
816.385	26450
816.526	26358
816.666	26084
816.807	26115
816.948	26024
817.089	26134
817.23	26122
817.371	25963
817.512	26024
817.653	25959
817.793	25917
817.934	25864
818.075	26081
818.216	25963
818.356	25951
818.497	25883
818.638	25769
818.778	25727
818.919	25609
819.06	25780
819.2	25890
819.341	25982
819.481	26046
819.622	26145
819.762	26301
819.903	26161
820.043	26088
820.184	26183
820.324	26210
820.465	26176
820.605	26195
820.746	25993
820.886	25951
821.026	26142
821.167	25959
821.307	26172
821.447	26134
821.588	25925
821.728	25727
821.868	25662
822.008	25548
822.149	25594
822.289	25590
822.429	25343
822.569	25225
822.709	25266
822.849	24958
822.99	25008
823.13	24924
823.27	24882
823.41	25019
823.55	24688
823.69	24875
823.83	24897
823.97	24711
824.11	24646
824.25	24623
824.389	24707
824.529	24726
824.669	24593
824.809	24760
824.949	24711
825.089	24787
825.228	24627
825.368	24642
825.508	24563
825.648	24452
825.787	24578
825.927	24631
826.067	24566
826.206	24467
826.346	24650
826.485	24532
826.625	24486
826.765	24654
826.904	24627
827.044	24235
827.183	24407
827.323	24277
827.462	24285
827.601	24281
827.741	24121
827.88	24311
828.02	24045
828.159	24148
828.298	24144
828.437	24266
828.577	24110
828.716	24174
828.855	24186
828.994	23870
829.134	23992
829.273	23996
829.412	23939
829.551	23859
829.69	23901
829.829	24003
829.968	24060
830.107	24034
830.246	24018
830.385	23935
830.524	23958
830.663	23745
830.802	23676
830.941	23589
831.08	23509
831.219	23589
831.357	23649
831.496	23882
831.635	23520
831.774	23452
831.913	23440
832.051	23345
832.19	23303
832.329	23334
832.467	23311
832.606	23269
832.744	23048
832.883	23136
833.022	23261
833.16	23292
833.299	23178
833.437	23391
833.576	23296
833.714	23265
833.852	23501
833.991	23364
834.129	23315
834.267	23383
834.406	23265
834.544	23372
834.682	23292
834.821	23315
834.959	23478
835.097	23330
835.235	23341
835.373	23246
835.511	23231
835.65	23159
835.788	23250
835.926	23083
836.064	22869
836.202	22847
836.34	23208
836.478	23197
836.615	23071
836.753	23181
836.891	23200
837.029	23124
837.167	23121
837.305	23064
837.443	23113
837.58	22968
837.718	23029
837.856	22961
837.993	23003
838.131	22987
838.269	22938
838.406	22892
838.544	22816
838.681	22630
838.819	22580
838.956	22512
839.094	22550
839.231	22519
839.369	22679
839.506	22946
839.643	22793
839.781	22424
839.918	22440
840.055	22512
840.193	22284
840.33	22348
840.467	22481
840.604	22542
840.742	22786
840.879	22276
841.016	22303
841.153	22337
841.29	22542
841.427	22470
841.564	22421
841.701	22234
841.838	22265
841.975	22314
842.112	22402
842.249	22272
842.385	22223
842.522	22436
842.659	22314
842.796	22257
842.933	22131
843.069	22093
843.206	22131
843.343	22238
843.479	22177
843.616	22101
843.752	21899
843.889	22006
844.025	22143
844.162	21880
844.298	21915
844.435	21876
844.571	21876
844.708	21991
844.844	22192
844.98	22040
845.117	21964
845.253	21915
845.389	21850
845.525	21835
845.661	21800
845.798	21652
845.934	21667
846.07	21568
846.206	21667
846.342	21823
846.478	21606
846.614	21351
846.75	21344
846.886	21374
847.022	21443
847.158	21523
847.294	21481
847.429	21389
847.565	21313
847.701	21751
847.837	21275
847.972	21032
848.108	21256
848.244	21233
848.379	21211
848.515	21009
848.65	21047
848.786	20998
848.921	21009
849.057	21089
849.192	20975
849.328	21047
849.463	21013
849.598	20975
849.734	20937
849.869	20750
850.004	20731
850.14	20849
850.275	20811
850.41	20804
850.545	20670
850.68	20815
850.815	20872
850.95	20754
851.085	20853
851.22	20891
851.355	20777
851.49	20785
851.625	20834
851.76	20876
851.895	20739
852.03	20792
852.165	20788
852.299	20864
852.434	20849
852.569	20765
852.703	20845
852.838	20937
852.973	20864
853.107	20838
853.242	20754
853.376	20632
853.511	20503
853.645	20617
853.78	20667
853.914	20640
854.048	20606
854.183	20552
854.317	20754
854.451	20792
854.585	20609
854.72	20659
854.854	20746
854.988	20621
855.122	20632
855.256	20469
855.39	20560
855.524	20670
855.658	20636
855.792	20583
855.926	20625
856.06	20583
856.194	20632
856.327	20667
856.461	20651
856.595	20568
856.729	20632
856.862	20625
856.996	20678
857.13	20686
857.263	20792
857.397	20537
857.53	20598
857.664	20594
857.797	20667
857.931	20735
858.064	20575
858.197	20746
858.331	20594
858.464	20560
858.597	20579
858.731	20606
858.864	20556
858.997	20507
859.13	20609
859.263	20537
859.396	20667
859.529	20541
859.662	20492
859.795	20678
859.928	20571
860.061	20815
860.194	20826
860.327	20644
860.46	20579
860.592	20613
860.725	20754
860.858	20765
860.99	20609
861.123	20423
861.256	20533
861.388	20613
861.521	21207
861.653	20674
861.786	20385
861.918	20530
862.05	20480
862.183	20568
862.315	20507
862.447	20495
862.58	20457
862.712	20446
862.844	20442
862.976	20461
863.108	20396
863.24	20864
863.372	20309
863.504	20358
863.636	20347
863.768	20438
863.9	20343
864.032	20259
864.164	20294
864.296	20381
864.428	20461
864.559	20457
864.691	20366
864.823	20317
864.954	20210
865.086	20164
865.217	20176
865.349	20305
865.48	20206
865.612	20199
865.743	20377
865.875	20339
866.006	20290
866.137	20256
866.269	20206
866.4	20225
866.531	20237
866.662	20138
866.793	20054
866.924	20199
867.055	20183
867.186	20237
867.317	20111
867.448	20122
867.579	20134
867.71	19989
867.841	20119
867.972	20290
868.103	20221
868.233	20134
868.364	20134
868.495	20309
868.625	20313
868.756	20518
868.886	20339
869.017	20377
869.147	20537
869.278	20530
869.408	20419
869.539	20465
869.669	20526
869.799	20351
869.929	20541
870.06	20511
870.19	20743
870.32	20674
870.45	20769
870.58	20708
870.71	20918
870.84	20956
870.97	20842
871.1	20914
871.23	21085
871.36	21024
871.489	20838
871.619	21039
871.749	20971
871.879	21146
872.008	21100
872.138	21062
872.267	21055
872.397	20883
872.526	20887
872.656	20861
872.785	20849
872.915	21032
873.044	21074
873.173	21039
873.303	21077
873.432	21020
873.561	21157
873.69	21032
873.819	21055
873.948	21233
874.077	21074
874.206	20971
874.335	20918
874.464	21169
874.593	21431
874.722	21313
874.851	21272
874.979	21348
875.108	21313
875.237	21279
875.365	21165
875.494	21272
875.623	21325
875.751	21321
875.88	21370
876.008	21481
876.136	21416
876.265	21606
876.393	21857
876.521	21918
876.65	21762
876.778	21671
876.906	21644
877.034	21599
877.162	21606
877.29	21488
877.418	21671
877.546	21705
877.674	21755
877.802	21698
877.93	21648
878.058	21713
878.185	21526
878.313	21633
878.441	21595
878.568	21473
878.696	21564
878.824	21618
878.951	21652
879.079	21694
879.206	21949
879.333	21819
879.461	21686
879.588	21675
879.715	21831
879.842	21930
879.97	21755
880.097	21439
880.224	21507
880.351	21488
880.478	21443
880.605	21393
880.732	21374
880.859	21736
880.986	21523
881.112	21386
881.239	21264
881.366	21256
881.493	21112
881.619	21005
881.746	21070
881.872	21089
881.999	21036
882.125	20902
882.252	21039
882.378	21036
882.505	21150
882.631	20864
882.757	20834
882.883	20933
883.01	20735
883.136	20689
883.262	20648
883.388	20625
883.514	20727
883.64	20762
883.766	20678
883.892	20560
884.018	20590
884.143	20705
884.269	20788
884.395	20442
884.52	20305
884.646	20370
884.772	20465
884.897	20317
885.023	20385
885.148	20545
885.274	20556
885.399	20492
885.524	20419
885.65	20438
885.775	20495
885.9	20469
886.025	20381
886.15	20446
886.275	20457
886.4	20290
886.525	20419
886.65	20358
886.775	20362
886.9	20533
887.025	20609
887.149	20396
887.274	20191
887.399	20149
887.523	20126
887.648	20035
887.773	20054
887.897	20221
888.021	20282
888.146	20020
888.27	20206
888.395	20240
888.519	20202
888.643	20191
888.767	20294
888.891	20058
889.015	19947
889.139	20012
889.263	19974
889.387	20081
889.511	20244
889.635	20069
889.759	20008
889.883	19925
890.006	20005
890.13	20191
890.254	19902
890.377	19879
890.501	19715
890.624	19731
890.748	19811
890.871	19594
890.995	19540
891.118	19472
891.241	19525
891.364	19719
891.488	19674
891.611	19594
891.734	19548
891.857	19693
891.98	19601
892.103	19556
892.226	19597
892.349	19590
892.471	19472
892.594	19506
892.717	19495
892.839	19415
892.962	19537
893.085	19605
893.207	19533
893.33	19247
893.452	19438
893.575	19609
893.697	19373
893.819	19647
893.941	19647
894.064	19677
894.186	19392
894.308	19430
894.43	19514
894.552	19559
894.674	19499
894.796	19384
894.918	19514
895.04	19407
895.161	19537
895.283	19487
895.405	19411
895.526	19476
895.648	19381
895.769	19510
895.891	19495
896.012	19601
896.134	19552
896.255	19525
896.376	19472
896.498	19422
896.619	19590
896.74	19499
896.861	19495
896.982	19742
897.103	19845
897.224	19738
897.345	19738
897.466	19556
897.587	19742
897.708	19864
897.828	19830
897.949	19609
898.07	19468
898.19	19723
898.311	19799
898.431	19628
898.552	19799
898.672	19830
898.792	19750
898.913	19731
899.033	19666
899.153	19487
899.273	19544
899.393	19525
899.513	19506
899.633	19537
899.753	19396
899.873	19457
899.993	19434
900.113	19403
900.232	19457
900.352	19327
900.472	19312
900.591	19285
900.711	19266
900.83	19308
900.95	19327
901.069	19400
901.189	19217
901.308	18973
901.427	18901
901.546	18859
901.665	18768
901.784	18814
901.904	18673
902.023	18654
902.141	18448
902.26	18414
902.379	18441
902.498	18414
902.617	18315
902.735	18304
902.854	18281
902.973	18300
903.091	18053
903.21	18007
903.328	18015
903.446	17946
903.565	17817
903.683	17847
903.801	17752
903.919	17847
904.038	17802
904.156	17680
904.274	17668
904.392	17608
904.51	17596
904.627	17596
904.745	17623
904.863	17642
904.981	17448
905.098	17337
905.216	17372
905.334	17322
905.451	17311
905.569	17200
905.686	17250
905.803	17269
905.921	17128
906.038	17159
906.155	17151
906.272	16980
906.389	17083
906.506	16820
906.623	16919
906.74	16831
906.857	16839
906.974	16740
907.091	16854
907.208	17025
907.324	16953
907.441	16759
907.557	16687
907.674	16550
907.79	16474
907.907	16573
908.023	16588
908.139	16478
908.256	16596
908.372	16489
908.488	16413
908.604	16280
908.72	16291
908.836	16356
908.952	16329
909.068	16238
909.184	16405
909.3	16272
909.415	16356
909.531	16234
909.647	15998
909.762	16078
909.878	16032
909.993	15964
910.108	15994
910.224	16013
910.339	15964
910.454	15953
910.57	15850
910.685	15728
910.8	16032
910.915	16013
911.03	15899
911.145	15747
911.259	15663
911.374	15629
911.489	15580
911.604	15485
911.718	15344
911.833	15545
911.947	15397
912.062	15378
912.176	15481
912.291	15367
912.405	15500
912.519	15622
912.633	15439
912.748	15458
912.862	15340
912.976	15218
913.09	15062
913.204	15138
913.318	15165
913.431	15313
913.545	15214
913.659	15161
913.772	15176
913.886	14971
914	14982
914.113	14971
914.226	15119
914.34	15055
914.453	14880
914.566	14982
914.68	14834
914.793	14781
914.906	14724
915.019	14621
915.132	14594
915.245	14571
915.358	14686
915.47	14686
915.583	14583
915.696	14575
915.809	14781
915.921	14743
916.034	14598
916.146	14514
916.259	14419
916.371	14636
916.483	14522
916.595	14419
916.708	14461
916.82	14469
916.932	14408
917.044	14400
917.156	14355
917.268	14282
917.38	14355
917.491	14339
917.603	14313
917.715	14370
917.826	14339
917.938	14119
918.049	14183
918.161	14275
918.272	14396
918.384	14317
918.495	14168
918.606	14058
918.717	14016
918.828	13986
918.939	14157
919.05	13932
919.161	14043
919.272	13822
919.383	13822
919.494	14115
919.604	14229
919.715	14096
919.826	13875
919.936	14065
920.047	14020
920.157	14157
920.267	14225
920.378	14100
920.488	13963
920.598	14225
920.708	14309
920.818	14096
920.928	14221
921.038	14271
921.148	14324
921.258	13993
921.368	13898
921.477	13765
921.587	13757
921.697	13575
921.806	13708
921.916	13658
922.025	13518
922.134	13464
922.244	13472
922.353	13460
922.462	13392
922.571	13247
922.68	13145
922.789	13095
922.898	13164
923.007	13118
923.116	13152
923.224	13046
923.333	13042
923.442	12989
923.55	12939
923.659	12966
923.767	12920
923.876	12802
923.984	12913
924.092	12825
924.201	12814
924.309	12848
924.417	12905
924.525	12798
924.633	12844
924.741	13666
924.849	12574
924.956	12654
925.064	12540
925.172	12403
925.279	12460
925.387	12540
925.494	12525
925.602	12688
925.709	12585
925.816	12445
925.924	12509
926.031	12635
926.138	12414
926.245	12532
926.352	12391
926.459	12502
926.566	12578
926.673	12369
926.779	12258
926.886	12197
926.993	12110
927.099	12098
927.206	12091
927.312	12060
927.419	12140
927.525	12019
927.631	12121
927.737	12053
927.843	11958
927.95	11824
928.056	11931
928.162	11954
928.267	11965
928.373	12631
928.479	11969
928.585	11748
928.69	11954
928.796	12011
928.901	11737
929.007	11623
929.112	11802
929.218	11798
929.323	11703
929.428	11649
929.533	11783
929.638	11604
929.743	11585
929.848	11672
929.953	11668
930.058	11478
930.163	11383
930.267	11330
930.372	11497
930.477	11349
930.581	11627
930.685	11391
930.79	11239
930.894	11296
930.998	11239
931.103	11368
931.207	11025
931.311	10942
931.415	10831
931.519	10618
931.623	10641
