Data from test_V78500241_1886.txt Node
Date: Fri Mar 25 15:22:59 CST 2022
User: usil
Spectrometer: V785-0024
Trigger mode: 0
Integration Time (sec): 4.000000E-1
Scans to average: 1
Nonlinearity correction enabled: false
Boxcar width: 0
Storing dark spectrum: false
XAxis mode: Wavelengths
Number of Pixels in Spectrum: 1024
>>>>>Begin Spectral Data<<<<<
801.071	27922
801.214	27671
801.356	27603
801.499	27701
801.641	27355
801.783	27272
801.926	27420
802.068	27420
802.211	27268
802.353	27188
802.496	27104
802.638	27096
802.78	26956
802.923	26906
803.065	26876
803.208	26975
803.35	26861
803.492	27020
803.635	27329
803.777	27135
803.919	27138
804.061	27526
804.204	27264
804.346	27272
804.488	27062
804.63	27332
804.773	27199
804.915	27237
805.057	27329
805.199	27279
805.341	27382
805.483	27348
805.626	27317
805.768	27230
805.91	27374
806.052	27325
806.194	27283
806.336	27485
806.478	27332
806.62	27348
806.762	27408
806.904	27644
807.046	27812
807.188	27793
807.33	27876
807.472	27876
807.614	27576
807.756	27888
807.898	27496
808.04	27549
808.182	27408
808.324	27720
808.465	27717
808.607	27835
808.749	28021
808.891	27941
809.033	28154
809.174	28051
809.316	27964
809.458	27983
809.6	28063
809.741	28029
809.883	28166
810.025	28257
810.166	28295
810.308	28344
810.45	28314
810.591	28242
810.733	28017
810.875	27914
811.016	27861
811.158	27785
811.299	27979
811.441	28162
811.582	28154
811.724	27979
811.865	27987
812.007	27930
812.148	27854
812.29	27983
812.431	28101
812.573	28276
812.714	28367
812.855	28512
812.997	28618
813.138	28607
813.279	28656
813.421	28519
813.562	28531
813.703	28360
813.845	28154
813.986	28086
814.127	27797
814.268	27671
814.41	27633
814.551	27526
814.692	27762
814.833	27656
814.974	27637
815.115	27770
815.256	27625
815.397	27675
815.539	27523
815.68	27553
815.821	27344
815.962	27401
816.103	27439
816.244	27306
816.385	27211
816.526	27275
816.666	27051
816.807	27013
816.948	26956
817.089	27085
817.23	26990
817.371	26872
817.512	26998
817.653	27020
817.793	26902
817.934	26952
818.075	26861
818.216	27066
818.356	26914
818.497	26861
818.638	26621
818.778	26773
818.919	26674
819.06	26792
819.2	26735
819.341	26960
819.481	26925
819.622	27211
819.762	27252
819.903	27260
820.043	27112
820.184	27157
820.324	27047
820.465	27150
820.605	26971
820.746	27062
820.886	27066
821.026	27017
821.167	27096
821.307	27036
821.447	26998
821.588	26872
821.728	26701
821.868	26488
822.008	26514
822.149	26385
822.289	26492
822.429	26240
822.569	26111
822.709	26084
822.849	26058
822.99	26005
823.13	25932
823.27	25875
823.41	25822
823.55	25738
823.69	25833
823.83	25731
823.97	25746
824.11	25635
824.25	25518
824.389	25548
824.529	25674
824.669	25609
824.809	25746
824.949	25643
825.089	25776
825.228	25708
825.368	25316
825.508	25400
825.648	25491
825.787	25495
825.927	25464
826.067	25449
826.206	25403
826.346	25415
826.485	25381
826.625	25537
826.765	25575
826.904	25575
827.044	25244
827.183	25285
827.323	25225
827.462	25141
827.601	25168
827.741	25126
827.88	25217
828.02	25050
828.159	25122
828.298	25278
828.437	25263
828.577	25008
828.716	25278
828.855	25057
828.994	24924
829.134	24935
829.273	24905
829.412	24764
829.551	24867
829.69	24802
829.829	25012
829.968	24981
830.107	25031
830.246	24962
830.385	24783
830.524	24821
830.663	24566
830.802	24563
830.941	24422
831.08	24513
831.219	24521
831.357	24551
831.496	24722
831.635	24467
831.774	24414
831.913	24365
832.051	24365
832.19	24334
832.329	24346
832.467	24190
832.606	24079
832.744	24068
832.883	24243
833.022	24083
833.16	24323
833.299	24216
833.437	24292
833.576	24171
833.714	24311
833.852	24251
833.991	24174
834.129	24403
834.267	24300
834.406	24254
834.544	24232
834.682	24323
834.821	24251
834.959	24441
835.097	24144
835.235	24338
835.373	24300
835.511	24197
835.65	24285
835.788	24114
835.926	23927
836.064	24018
836.202	23973
836.34	24083
836.478	24163
836.615	24117
836.753	24015
836.891	24186
837.029	24125
837.167	24007
837.305	23939
837.443	23916
837.58	23912
837.718	24003
837.856	24003
837.993	23916
838.131	23927
838.269	23745
838.406	23748
838.544	23665
838.681	23608
838.819	23554
838.956	23486
839.094	23482
839.231	23528
839.369	23566
839.506	23745
839.643	23699
839.781	23345
839.918	23345
840.055	23440
840.193	23402
840.33	23303
840.467	23360
840.604	23398
840.742	23653
840.879	23223
841.016	23341
841.153	23178
841.29	23277
841.427	23246
841.564	23326
841.701	23421
841.838	23334
841.975	23155
842.112	23121
842.249	23105
842.385	23124
842.522	23299
842.659	23189
842.796	23117
842.933	23102
843.069	23018
843.206	23041
843.343	23121
843.479	23102
843.616	23200
843.752	22831
843.889	22877
844.025	23083
844.162	22839
844.298	22942
844.435	22755
844.571	22869
844.708	22877
844.844	23071
844.98	22991
845.117	22900
845.253	22812
845.389	22744
845.525	22755
845.661	22748
845.798	22535
845.934	22599
846.07	22569
846.206	22615
846.342	22637
846.478	22588
846.614	22474
846.75	22299
846.886	22230
847.022	22268
847.158	22352
847.294	22360
847.429	22341
847.565	22306
847.701	22546
847.837	22013
847.972	21915
848.108	22101
848.244	22086
848.379	21930
848.515	21789
848.65	21800
848.786	21884
848.921	21876
849.057	21922
849.192	21884
849.328	21987
849.463	21899
849.598	21949
849.734	21739
849.869	21709
850.004	21713
850.14	21736
850.275	21641
850.41	21698
850.545	21519
850.68	21633
850.815	21553
850.95	21671
851.085	21819
851.22	21850
851.355	21690
851.49	21686
851.625	21637
851.76	21606
851.895	21526
852.03	21481
852.165	21644
852.299	21606
852.434	21736
852.569	21705
852.703	21774
852.838	21686
852.973	21827
853.107	21656
853.242	21637
853.376	21671
853.511	21481
853.645	21462
853.78	21667
853.914	21496
854.048	21485
854.183	21408
854.317	21412
854.451	21618
854.585	21519
854.72	21542
854.854	21743
854.988	21454
855.122	21515
855.256	21355
855.39	21469
855.524	21557
855.658	21580
855.792	21572
855.926	21549
856.06	21564
856.194	21511
856.327	21454
856.461	21313
856.595	21370
856.729	21488
856.862	21549
856.996	21610
857.13	21519
857.263	21652
857.397	21599
857.53	21485
857.664	21492
857.797	21519
857.931	21610
858.064	21652
858.197	21679
858.331	21485
858.464	21405
858.597	21420
858.731	21473
858.864	21431
858.997	21428
859.13	21443
859.263	21397
859.396	21648
859.529	21450
859.662	21389
859.795	21519
859.928	21515
860.061	21682
860.194	21709
860.327	21500
860.46	21511
860.592	21511
860.725	21614
860.858	21595
860.99	21485
861.123	21431
861.256	21477
861.388	21447
861.521	22116
861.653	21291
861.786	21313
861.918	21332
862.05	21321
862.183	21477
862.315	21408
862.447	21557
862.58	21412
862.712	21310
862.844	21241
862.976	21363
863.108	21245
863.24	21561
863.372	21214
863.504	21150
863.636	21127
863.768	21169
863.9	21123
864.032	21138
864.164	21199
864.296	21230
864.428	21313
864.559	21469
864.691	21325
864.823	21230
864.954	21138
865.086	21176
865.217	21173
865.349	21123
865.48	21116
865.612	21157
865.743	21283
865.875	21032
866.006	21062
866.137	21081
866.269	21013
866.4	21005
866.531	21024
866.662	21123
866.793	20952
866.924	20944
867.055	21032
867.186	21070
867.317	20929
867.448	20933
867.579	21020
867.71	20929
867.841	21001
867.972	20971
868.103	21043
868.233	20933
868.364	21043
868.495	21176
868.625	21233
868.756	21313
868.886	21203
869.017	21313
869.147	21321
869.278	21351
869.408	21294
869.539	21142
869.669	21321
869.799	21321
869.929	21256
870.06	21298
870.19	21595
870.32	21549
870.45	21622
870.58	21648
870.71	21812
870.84	21675
870.97	21614
871.1	21599
871.23	21857
871.36	21964
871.489	21732
871.619	21762
871.749	21831
871.879	21850
872.008	21869
872.138	21857
872.267	21819
872.397	21724
872.526	21759
872.656	21606
872.785	21679
872.915	21827
873.044	21842
873.173	21823
873.303	21926
873.432	21922
873.561	22010
873.69	22002
873.819	21823
873.948	21979
874.077	21926
874.206	21857
874.335	21876
874.464	22078
874.593	22120
874.722	22067
874.851	22025
874.979	22059
875.108	22181
875.237	22078
875.365	21968
875.494	22215
875.623	22188
875.751	21953
875.88	22223
876.008	22306
876.136	22318
876.265	22413
876.393	22557
876.521	22481
876.65	22531
876.778	22440
876.906	22382
877.034	22352
877.162	22542
877.29	22424
877.418	22489
877.546	22504
877.674	22523
877.802	22489
877.93	22432
878.058	22337
878.185	22226
878.313	22489
878.441	22394
878.568	22363
878.696	22428
878.824	22531
878.951	22519
879.079	22713
879.206	22713
879.333	22615
879.461	22348
879.588	22535
879.715	22596
879.842	22839
879.97	22550
880.097	22257
880.224	22196
880.351	22341
880.478	22291
880.605	22318
880.732	22234
880.859	22466
880.986	22242
881.112	22314
881.239	22116
881.366	22051
881.493	21968
881.619	21785
881.746	21892
881.872	21922
881.999	21785
882.125	21800
882.252	21915
882.378	21895
882.505	21831
882.631	21793
882.757	21500
882.883	21625
883.01	21507
883.136	21485
883.262	21355
883.388	21397
883.514	21557
883.64	21561
883.766	21530
883.892	21359
884.018	21230
884.143	21519
884.269	21603
884.395	21283
884.52	21135
884.646	21161
884.772	21230
884.897	21123
885.023	21272
885.148	21348
885.274	21329
885.399	21367
885.524	21195
885.65	21047
885.775	21154
885.9	21310
886.025	21283
886.15	21192
886.275	21264
886.4	21100
886.525	21195
886.65	21028
886.775	21096
886.9	21298
887.025	21272
887.149	21138
887.274	20990
887.399	20986
887.523	20876
887.648	20853
887.773	20815
887.897	20994
888.021	20910
888.146	20842
888.27	20925
888.395	21032
888.519	20853
888.643	21024
888.767	21009
888.891	20845
889.015	20712
889.139	20788
889.263	20686
889.387	20887
889.511	20880
889.635	20921
889.759	20712
889.883	20804
890.006	20727
890.13	20765
890.254	20625
890.377	20602
890.501	20526
890.624	20476
890.748	20587
890.871	20450
890.995	20343
891.118	20229
891.241	20313
891.364	20305
891.488	20442
891.611	20343
891.734	20305
891.857	20339
891.98	20332
892.103	20309
892.226	20320
892.349	20221
892.471	20088
892.594	20263
892.717	20336
892.839	20149
892.962	20233
893.085	20282
893.207	20168
893.33	20016
893.452	20138
893.575	20195
893.697	20278
893.819	20343
893.941	20328
894.064	20290
894.186	20122
894.308	20206
894.43	20351
894.552	20377
894.674	20206
894.796	20161
894.918	20259
895.04	20142
895.161	20221
895.283	20202
895.405	20237
895.526	20187
895.648	20214
895.769	20180
895.891	20168
896.012	20240
896.134	20202
896.255	20328
896.376	20126
896.498	20142
896.619	20149
896.74	20210
896.861	20256
896.982	20476
897.103	20663
897.224	20476
897.345	20355
897.466	20366
897.587	20393
897.708	20476
897.828	20393
897.949	20454
898.07	20259
898.19	20381
898.311	20438
898.431	20374
898.552	20343
898.672	20434
898.792	20499
898.913	20339
899.033	20305
899.153	20134
899.273	20145
899.393	20218
899.513	20214
899.633	20065
899.753	20054
899.873	20218
899.993	20233
900.113	20096
900.232	20187
900.352	19955
900.472	19959
900.591	19871
900.711	20054
900.83	19871
900.95	20027
901.069	20050
901.189	19845
901.308	19594
901.427	19426
901.546	19472
901.665	19567
901.784	19552
901.904	19327
902.023	19324
902.141	19103
902.26	19027
902.379	19122
902.498	19038
902.617	18935
902.735	19091
902.854	19084
902.973	18901
903.091	18681
903.21	18692
903.328	18673
903.446	18688
903.565	18551
903.683	18566
903.801	18407
903.919	18380
904.038	18494
904.156	18251
904.274	18467
904.392	18273
904.51	18296
904.627	18182
904.745	18277
904.863	18273
904.981	18057
905.098	17996
905.216	18079
905.334	18038
905.451	18083
905.569	17916
905.686	18007
905.803	17912
905.921	17813
906.038	17699
906.155	17805
906.272	17741
906.389	17604
906.506	17429
906.623	17497
906.74	17493
906.857	17516
906.974	17509
907.091	17535
907.208	17589
907.324	17509
907.441	17395
907.557	17239
907.674	17136
907.79	17018
907.907	17239
908.023	17387
908.139	17189
908.256	17109
908.372	17098
908.488	17025
908.604	16927
908.72	16995
908.836	16934
908.952	16930
909.068	16972
909.184	17052
909.3	16900
909.415	16904
909.531	16908
909.647	16653
909.762	16668
909.878	16622
909.993	16725
910.108	16668
910.224	16596
910.339	16675
910.454	16508
910.57	16421
910.685	16314
910.8	16542
910.915	16569
911.03	16310
911.145	16249
911.259	16200
911.374	16154
911.489	16173
911.604	16112
911.718	15983
911.833	15968
911.947	15789
912.062	15682
912.176	15911
912.291	15956
912.405	15968
912.519	16090
912.633	16109
912.748	15998
912.862	15869
912.976	15770
913.09	15686
913.204	15739
913.318	15751
913.431	15774
913.545	15941
913.659	15778
913.772	15808
913.886	15667
914	15553
914.113	15717
914.226	15675
914.34	15591
914.453	15538
914.566	15603
914.68	15523
914.793	15492
914.906	15214
915.019	15203
915.132	15039
915.245	15211
915.358	15218
915.47	15169
915.583	15188
915.696	15207
915.809	15260
915.921	15252
916.034	15097
916.146	15032
916.259	15135
916.371	15108
916.483	15085
916.595	14971
916.708	15001
916.82	14971
916.932	14910
917.044	15028
917.156	15005
917.268	14872
917.38	14887
917.491	14819
917.603	14781
917.715	14998
917.826	14960
917.938	14746
918.049	14682
918.161	14739
918.272	14845
918.384	14857
918.495	14765
918.606	14606
918.717	14518
918.828	14556
918.939	14632
919.05	14442
919.161	14613
919.272	14370
919.383	14442
919.494	14522
919.604	14712
919.715	14473
919.826	14499
919.936	14522
920.047	14560
920.157	14522
920.267	14720
920.378	14518
920.488	14446
920.598	14629
920.708	14842
920.818	14613
920.928	14659
921.038	14857
921.148	14773
921.258	14533
921.368	14389
921.477	14328
921.587	14244
921.697	14088
921.806	14267
921.916	14111
922.025	13879
922.134	14008
922.244	13909
922.353	13913
922.462	13890
922.571	13803
922.68	13616
922.789	13552
922.898	13582
923.007	13506
923.116	13655
923.224	13552
923.333	13537
923.442	13369
923.55	13506
923.659	13396
923.767	13483
923.876	13339
923.984	13343
924.092	13278
924.201	13320
924.309	13343
924.417	13301
924.525	13183
924.633	13164
924.741	14202
924.849	13065
924.956	13175
925.064	13046
925.172	12875
925.279	12932
925.387	13019
925.494	13008
925.602	13080
925.709	12924
925.816	12814
925.924	12920
926.031	13084
926.138	12932
926.245	13027
926.352	12867
926.459	12821
926.566	12970
926.673	12920
926.779	12745
926.886	12741
926.993	12631
927.099	12570
927.206	12498
927.312	12479
927.419	12513
927.525	12407
927.631	12578
927.737	12429
927.843	12330
927.95	12327
928.056	12346
928.162	12395
928.267	12380
928.373	12916
928.479	12346
928.585	12167
928.69	12357
928.796	12357
928.901	12292
929.007	12167
929.112	12273
929.218	12159
929.323	12194
929.428	12091
929.533	12330
929.638	12041
929.743	12057
929.848	12053
929.953	11984
930.058	11954
930.163	11783
930.267	11809
930.372	11912
930.477	11745
930.581	11897
930.685	11783
930.79	11722
930.894	11661
930.998	11611
931.103	11813
931.207	11425
931.311	11337
931.415	11201
931.519	11022
931.623	10957
