Data from test_V78500241_135.txt Node
Date: Fri Mar 25 15:10:48 CST 2022
User: usil
Spectrometer: V785-0024
Trigger mode: 0
Integration Time (sec): 4.000000E-1
Scans to average: 1
Nonlinearity correction enabled: false
Boxcar width: 0
Storing dark spectrum: false
XAxis mode: Wavelengths
Number of Pixels in Spectrum: 1024
>>>>>Begin Spectral Data<<<<<
801.071	28268
801.214	28284
801.356	27865
801.499	27770
801.641	27736
801.783	27793
801.926	27823
802.068	27591
802.211	27610
802.353	27614
802.496	27469
802.638	27329
802.78	27336
802.923	27310
803.065	27245
803.208	27226
803.35	27203
803.492	27374
803.635	27496
803.777	27245
803.919	27477
804.061	27724
804.204	27481
804.346	27386
804.488	27431
804.63	27363
804.773	27237
804.915	27389
805.057	27485
805.199	27237
805.341	27485
805.483	27530
805.626	27507
805.768	27427
805.91	27454
806.052	27542
806.194	27572
806.336	27656
806.478	27485
806.62	27462
806.762	27389
806.904	27633
807.046	27884
807.188	27869
807.33	27914
807.472	27945
807.614	27610
807.756	27797
807.898	27808
808.04	27682
808.182	27747
808.324	27690
808.465	27804
808.607	27945
808.749	28002
808.891	28059
809.033	28116
809.174	28055
809.316	28063
809.458	28143
809.6	27975
809.741	28166
809.883	27994
810.025	28333
810.166	28284
810.308	28272
810.45	28166
810.591	28284
810.733	27983
810.875	27888
811.016	27739
811.158	27831
811.299	28002
811.441	28040
811.582	28101
811.724	27949
811.865	27759
812.007	27937
812.148	27861
812.29	28006
812.431	28139
812.573	28356
812.714	28451
812.855	28542
812.997	28489
813.138	28691
813.279	28573
813.421	28459
813.562	28440
813.703	28272
813.845	28169
813.986	27850
814.127	27743
814.268	27587
814.41	27523
814.551	27675
814.692	27644
814.833	27416
814.974	27408
815.115	27629
815.256	27477
815.397	27454
815.539	27367
815.68	27268
815.821	27370
815.962	27264
816.103	27264
816.244	27077
816.385	27176
816.526	27020
816.666	26868
816.807	26902
816.948	26796
817.089	26731
817.23	26727
817.371	26800
817.512	26701
817.653	26731
817.793	26701
817.934	26686
818.075	26705
818.216	26686
818.356	26735
818.497	26678
818.638	26408
818.778	26278
818.919	26358
819.06	26484
819.2	26518
819.341	26670
819.481	26648
819.622	26826
819.762	26967
819.903	26937
820.043	26925
820.184	26648
820.324	26781
820.465	26807
820.605	26613
820.746	26636
820.886	26594
821.026	26781
821.167	26651
821.307	26701
821.447	26629
821.588	26560
821.728	26492
821.868	26355
822.008	26122
822.149	26062
822.289	26149
822.429	26088
822.569	25776
822.709	25795
822.849	25647
822.99	25518
823.13	25502
823.27	25495
823.41	25266
823.55	25369
823.69	25297
823.83	25259
823.97	25335
824.11	25133
824.25	25107
824.389	25095
824.529	25213
824.669	25072
824.809	25221
824.949	25126
825.089	25274
825.228	25312
825.368	24992
825.508	24951
825.648	24947
825.787	25175
825.927	25042
826.067	25012
826.206	25057
826.346	25023
826.485	25027
826.625	24951
826.765	25023
826.904	25076
827.044	24764
827.183	24608
827.323	24688
827.462	24749
827.601	24688
827.741	24677
827.88	24696
828.02	24570
828.159	24623
828.298	24650
828.437	24779
828.577	24608
828.716	24722
828.855	24433
828.994	24270
829.134	24289
829.273	24357
829.412	24384
829.551	24262
829.69	24292
829.829	24304
829.968	24357
830.107	24452
830.246	24388
830.385	24220
830.524	24254
830.663	24117
830.802	23984
830.941	23958
831.08	23958
831.219	23992
831.357	23874
831.496	24235
831.635	23809
831.774	23870
831.913	23767
832.051	23646
832.19	23649
832.329	23786
832.467	23520
832.606	23528
832.744	23520
832.883	23376
833.022	23482
833.16	23570
833.299	23581
833.437	23509
833.576	23619
833.714	23539
833.852	23642
833.991	23543
834.129	23779
834.267	23710
834.406	23516
834.544	23512
834.682	23608
834.821	23512
834.959	23687
835.097	23387
835.235	23554
835.373	23543
835.511	23478
835.65	23402
835.788	23341
835.926	23261
836.064	23090
836.202	23299
836.34	23356
836.478	23433
836.615	23406
836.753	23349
836.891	23372
837.029	23284
837.167	23254
837.305	23250
837.443	23269
837.58	23269
837.718	23277
837.856	23334
837.993	23170
838.131	23200
838.269	23060
838.406	23178
838.544	23090
838.681	22896
838.819	22782
838.956	22687
839.094	22672
839.231	22694
839.369	22835
839.506	22908
839.643	22949
839.781	22736
839.918	22615
840.055	22664
840.193	22592
840.33	22557
840.467	22653
840.604	22550
840.742	22759
840.879	22474
841.016	22531
841.153	22352
841.29	22713
841.427	22527
841.564	22557
841.701	22493
841.838	22478
841.975	22367
842.112	22462
842.249	22280
842.385	22325
842.522	22615
842.659	22303
842.796	22211
842.933	22143
843.069	22131
843.206	22177
843.343	22280
843.479	22078
843.616	22257
843.752	22032
843.889	22063
844.025	22154
844.162	22070
844.298	22029
844.435	21960
844.571	21857
844.708	21991
844.844	22139
844.98	22226
845.117	22112
845.253	21953
845.389	21850
845.525	21838
845.661	21816
845.798	21850
845.934	21861
846.07	21762
846.206	21755
846.342	21911
846.478	21622
846.614	21515
846.75	21340
846.886	21363
847.022	21580
847.158	21549
847.294	21435
847.429	21466
847.565	21538
847.701	21781
847.837	21203
847.972	21135
848.108	21420
848.244	21294
848.379	21123
848.515	21043
848.65	21142
848.786	21020
848.921	21039
849.057	21127
849.192	21112
849.328	21062
849.463	21119
849.598	20921
849.734	20842
849.869	20876
850.004	20724
850.14	20918
850.275	20815
850.41	20678
850.545	20609
850.68	20655
850.815	20823
850.95	20739
851.085	20963
851.22	20883
851.355	20716
851.49	20648
851.625	20636
851.76	20735
851.895	20579
852.03	20499
852.165	20720
852.299	20811
852.434	20815
852.569	20838
852.703	20678
852.838	20864
852.973	20956
853.107	20807
853.242	20625
853.376	20514
853.511	20503
853.645	20533
853.78	20708
853.914	20701
854.048	20488
854.183	20442
854.317	20632
854.451	20731
854.585	20556
854.72	20549
854.854	20549
854.988	20476
855.122	20579
855.256	20358
855.39	20625
855.524	20636
855.658	20537
855.792	20545
855.926	20621
856.06	20545
856.194	20629
856.327	20484
856.461	20427
856.595	20526
856.729	20518
856.862	20533
856.996	20484
857.13	20533
857.263	20568
857.397	20560
857.53	20518
857.664	20473
857.797	20682
857.931	20724
858.064	20480
858.197	20625
858.331	20530
858.464	20480
858.597	20355
858.731	20488
858.864	20503
858.997	20545
859.13	20598
859.263	20374
859.396	20552
859.529	20480
859.662	20442
859.795	20457
859.928	20484
860.061	20648
860.194	20727
860.327	20533
860.46	20465
860.592	20587
860.725	20693
860.858	20644
860.99	20370
861.123	20358
861.256	20362
861.388	20423
861.521	21203
861.653	20415
861.786	20244
861.918	20290
862.05	20393
862.183	20400
862.315	20419
862.447	20541
862.58	20484
862.712	20240
862.844	20191
862.976	20317
863.108	20309
863.24	20644
863.372	20172
863.504	20103
863.636	20191
863.768	20237
863.9	20256
864.032	20050
864.164	20065
864.296	20115
864.428	20328
864.559	20233
864.691	20233
864.823	20244
864.954	20218
865.086	20062
865.217	20119
865.349	20092
865.48	20058
865.612	20092
865.743	20164
865.875	20248
866.006	20069
866.137	20119
866.269	20161
866.4	19932
866.531	19951
866.662	20058
866.793	20031
866.924	20039
867.055	20069
867.186	20062
867.317	20073
867.448	19989
867.579	20069
867.71	20005
867.841	19967
867.972	20050
868.103	20084
868.233	19997
868.364	20005
868.495	20202
868.625	20336
868.756	20328
868.886	20202
869.017	20218
869.147	20301
869.278	20225
869.408	20320
869.539	20309
869.669	20271
869.799	20328
869.929	20431
870.06	20336
870.19	20488
870.32	20583
870.45	20659
870.58	20560
870.71	20777
870.84	20811
870.97	20552
871.1	20651
871.23	20842
871.36	20902
871.489	20743
871.619	20796
871.749	20811
871.879	20925
872.008	20933
872.138	20811
872.267	20838
872.397	20788
872.526	20701
872.656	20609
872.785	20556
872.915	20792
873.044	20868
873.173	20883
873.303	20921
873.432	20830
873.561	20956
873.69	20830
873.819	20864
873.948	20910
874.077	20838
874.206	20929
874.335	20819
874.464	20902
874.593	21077
874.722	21142
874.851	21089
874.979	21150
875.108	21169
875.237	21100
875.365	20948
875.494	21058
875.623	21131
875.751	21169
875.88	21138
876.008	21203
876.136	21374
876.265	21576
876.393	21663
876.521	21622
876.65	21557
876.778	21420
876.906	21382
877.034	21420
877.162	21553
877.29	21431
877.418	21462
877.546	21454
877.674	21534
877.802	21443
877.93	21477
878.058	21428
878.185	21443
878.313	21530
878.441	21454
878.568	21348
878.696	21405
878.824	21561
878.951	21561
879.079	21526
879.206	21808
879.333	21603
879.461	21591
879.588	21610
879.715	21686
879.842	21736
879.97	21500
880.097	21313
880.224	21321
880.351	21416
880.478	21382
880.605	21279
880.732	21370
880.859	21519
880.986	21424
881.112	21359
881.239	21230
881.366	20998
881.493	21066
881.619	20906
881.746	20921
881.872	21001
881.999	20891
882.125	20800
882.252	20849
882.378	20883
882.505	21032
882.631	20788
882.757	20659
882.883	20743
883.01	20632
883.136	20495
883.262	20556
883.388	20503
883.514	20655
883.64	20720
883.766	20549
883.892	20370
884.018	20568
884.143	20636
884.269	20792
884.395	20339
884.52	20233
884.646	20343
884.772	20233
884.897	20172
885.023	20370
885.148	20374
885.274	20412
885.399	20412
885.524	20286
885.65	20332
885.775	20396
885.9	20187
886.025	20381
886.15	20396
886.275	20248
886.4	20126
886.525	20130
886.65	20233
886.775	20183
886.9	20377
887.025	20552
887.149	20320
887.274	20134
887.399	19993
887.523	20077
887.648	19947
887.773	19788
887.897	20084
888.021	20130
888.146	19993
888.27	20062
888.395	20039
888.519	20058
888.643	20043
888.767	20054
888.891	19902
889.015	19921
889.139	19917
889.263	19807
889.387	19913
889.511	19997
889.635	19970
889.759	19746
889.883	19738
890.006	19837
890.13	19864
890.254	19628
890.377	19727
890.501	19643
890.624	19499
890.748	19544
890.871	19472
890.995	19278
891.118	19251
891.241	19441
891.364	19487
891.488	19403
891.611	19518
891.734	19464
891.857	19476
891.98	19445
892.103	19430
892.226	19388
892.349	19426
892.471	19202
892.594	19228
892.717	19434
892.839	19320
892.962	19362
893.085	19464
893.207	19312
893.33	19175
893.452	19285
893.575	19384
893.697	19293
893.819	19525
893.941	19540
894.064	19377
894.186	19327
894.308	19285
894.43	19537
894.552	19430
894.674	19335
894.796	19213
894.918	19221
895.04	19190
895.161	19396
895.283	19339
895.405	19274
895.526	19343
895.648	19198
895.769	19422
895.891	19400
896.012	19559
896.134	19392
896.255	19365
896.376	19365
896.498	19381
896.619	19460
896.74	19320
896.861	19434
896.982	19742
897.103	19731
897.224	19495
897.345	19651
897.466	19597
897.587	19552
897.708	19712
897.828	19609
897.949	19578
898.07	19434
898.19	19377
898.311	19742
898.431	19483
898.552	19480
898.672	19480
898.792	19674
898.913	19563
899.033	19525
899.153	19278
899.273	19304
899.393	19308
899.513	19369
899.633	19259
899.753	19278
899.873	19202
899.993	19232
900.113	19244
900.232	19217
900.352	19179
900.472	19095
900.591	19095
900.711	19209
900.83	19076
900.95	19152
901.069	19137
901.189	19038
901.308	18707
901.427	18623
901.546	18639
901.665	18631
901.784	18642
901.904	18589
902.023	18471
902.141	18353
902.26	18277
902.379	18445
902.498	18277
902.617	18026
902.735	18155
902.854	18209
902.973	18079
903.091	17779
903.21	17866
903.328	17824
903.446	17790
903.565	17745
903.683	17566
903.801	17455
903.919	17630
904.038	17649
904.156	17379
904.274	17516
904.392	17360
904.51	17448
904.627	17417
904.745	17520
904.863	17410
904.981	17189
905.098	17025
905.216	17113
905.334	17193
905.451	17083
905.569	17052
905.686	17208
905.803	17064
905.921	16854
906.038	16957
906.155	16839
906.272	16706
906.389	16869
906.506	16675
906.623	16706
906.74	16672
906.857	16603
906.974	16558
907.091	16634
907.208	16759
907.324	16755
907.441	16493
907.557	16409
907.674	16329
907.79	16207
907.907	16341
908.023	16417
908.139	16424
908.256	16318
908.372	16177
908.488	16207
908.604	16124
908.72	16017
908.836	16032
908.952	16029
909.068	16021
909.184	16177
909.3	16013
909.415	16120
909.531	16067
909.647	15785
909.762	15785
909.878	15690
909.993	15774
910.108	15842
910.224	15808
910.339	15797
910.454	15557
910.57	15568
910.685	15450
910.8	15793
910.915	15652
911.03	15549
911.145	15344
911.259	15389
911.374	15287
911.489	15287
911.604	15233
911.718	15157
911.833	15047
911.947	14986
912.062	14998
912.176	15047
912.291	15055
912.405	15043
912.519	15287
912.633	15245
912.748	15112
912.862	15051
912.976	14861
913.09	14834
913.204	14902
913.318	14891
913.431	14941
913.545	15017
913.659	15020
913.772	14921
913.886	14785
914	14708
914.113	14750
914.226	14838
914.34	14883
914.453	14610
914.566	14838
914.68	14705
914.793	14651
914.906	14427
915.019	14370
915.132	14214
915.245	14336
915.358	14389
915.47	14301
915.583	14389
915.696	14362
915.809	14423
915.921	14533
916.034	14267
916.146	14309
916.259	14183
916.371	14332
916.483	14332
916.595	14168
916.708	14252
916.82	14282
916.932	14259
917.044	14221
917.156	14107
917.268	14088
917.38	14020
917.491	13986
917.603	13887
917.715	14084
917.826	14142
917.938	14062
918.049	13852
918.161	14005
918.272	14096
918.384	14119
918.495	13925
918.606	13868
918.717	13811
918.828	13772
918.939	13849
919.05	13666
919.161	13731
919.272	13552
919.383	13597
919.494	13734
919.604	14020
919.715	13712
919.826	13651
919.936	13780
920.047	13791
920.157	13708
920.267	13917
920.378	13704
920.488	13674
920.598	13913
920.708	14043
920.818	13879
920.928	13917
921.038	13963
921.148	14043
921.258	13677
921.368	13609
921.477	13449
921.587	13487
921.697	13331
921.806	13559
921.916	13289
922.025	13202
922.134	13198
922.244	13107
922.353	13175
922.462	13095
922.571	12909
922.68	12825
922.789	12696
922.898	12806
923.007	12726
923.116	12776
923.224	12856
923.333	12684
923.442	12719
923.55	12601
923.659	12578
923.767	12749
923.876	12563
923.984	12741
924.092	12547
924.201	12517
924.309	12475
924.417	12517
924.525	12521
924.633	12441
924.741	13225
924.849	12300
924.956	12441
925.064	12232
925.172	12220
925.279	12178
925.387	12247
925.494	12216
925.602	12407
925.709	12304
925.816	12247
925.924	12190
926.031	12251
926.138	12167
926.245	12262
926.352	12114
926.459	12155
926.566	12285
926.673	12102
926.779	12064
926.886	12022
926.993	11935
927.099	11927
927.206	11855
927.312	11855
927.419	11847
927.525	11809
927.631	11878
927.737	11828
927.843	11661
927.95	11680
928.056	11672
928.162	11745
928.267	11771
928.373	12197
928.479	11790
928.585	11493
928.69	11665
928.796	11695
928.901	11619
929.007	11398
929.112	11592
929.218	11543
929.323	11478
929.428	11482
929.533	11497
929.638	11406
929.743	11334
929.848	11501
929.953	11414
930.058	11299
930.163	11166
930.267	11220
930.372	11303
930.477	11071
930.581	11345
930.685	11151
930.79	11071
930.894	11098
930.998	10923
931.103	11094
931.207	10786
931.311	10771
931.415	10653
931.519	10424
931.623	10443
