Data from test_V78500241_244.txt Node
Date: Fri Mar 25 15:11:33 CST 2022
User: usil
Spectrometer: V785-0024
Trigger mode: 0
Integration Time (sec): 4.000000E-1
Scans to average: 1
Nonlinearity correction enabled: false
Boxcar width: 0
Storing dark spectrum: false
XAxis mode: Wavelengths
Number of Pixels in Spectrum: 1024
>>>>>Begin Spectral Data<<<<<
801.071	28249
801.214	28013
801.356	27774
801.499	27899
801.641	27736
801.783	27770
801.926	27686
802.068	27591
802.211	27618
802.353	27622
802.496	27447
802.638	27458
802.78	27466
802.923	27260
803.065	27294
803.208	27279
803.35	27279
803.492	27583
803.635	27553
803.777	27302
803.919	27564
804.061	27914
804.204	27515
804.346	27481
804.488	27473
804.63	27427
804.773	27351
804.915	27462
805.057	27500
805.199	27466
805.341	27599
805.483	27595
805.626	27595
805.768	27420
805.91	27599
806.052	27599
806.194	27591
806.336	27679
806.478	27606
806.62	27557
806.762	27671
806.904	27755
807.046	27987
807.188	27899
807.33	27953
807.472	28185
807.614	27816
807.756	27857
807.898	27766
808.04	27701
808.182	27823
808.324	27808
808.465	27717
808.607	28040
808.749	28154
808.891	28158
809.033	28436
809.174	28204
809.316	28261
809.458	28135
809.6	28101
809.741	28215
809.883	28158
810.025	28459
810.166	28451
810.308	28394
810.45	28421
810.591	28394
810.733	28204
810.875	28219
811.016	28154
811.158	28204
811.299	28150
811.441	28177
811.582	28200
811.724	28082
811.865	28120
812.007	28059
812.148	28097
812.29	28169
812.431	28405
812.573	28489
812.714	28557
812.855	28656
812.997	28668
813.138	28919
813.279	28683
813.421	28634
813.562	28519
813.703	28485
813.845	28386
813.986	28135
814.127	28002
814.268	27865
814.41	27899
814.551	27842
814.692	27778
814.833	27603
814.974	27808
815.115	27831
815.256	27667
815.397	27583
815.539	27583
815.68	27515
815.821	27359
815.962	27439
816.103	27603
816.244	27359
816.385	27279
816.526	27226
816.666	27081
816.807	26956
816.948	27055
817.089	27287
817.23	27077
817.371	26971
817.512	26933
817.653	26834
817.793	26883
817.934	26902
818.075	27066
818.216	26921
818.356	26902
818.497	26819
818.638	26598
818.778	26594
818.919	26712
819.06	26708
819.2	26842
819.341	27001
819.481	26887
819.622	26998
819.762	27321
819.903	27176
820.043	27116
820.184	26990
820.324	26998
820.465	26998
820.605	26990
820.746	27116
820.886	26746
821.026	27077
821.167	26975
821.307	27039
821.447	26944
821.588	26705
821.728	26678
821.868	26541
822.008	26355
822.149	26461
822.289	26366
822.429	26225
822.569	25974
822.709	26092
822.849	25940
822.99	25917
823.13	25898
823.27	25814
823.41	25666
823.55	25544
823.69	25681
823.83	25552
823.97	25575
824.11	25479
824.25	25506
824.389	25472
824.529	25457
824.669	25586
824.809	25575
824.949	25628
825.089	25609
825.228	25415
825.368	25381
825.508	25377
825.648	25259
825.787	25362
825.927	25518
826.067	25327
826.206	25285
826.346	25335
826.485	25419
826.625	25263
826.765	25373
826.904	25373
827.044	24920
827.183	25027
827.323	25000
827.462	25114
827.601	24981
827.741	25126
827.88	25133
828.02	25004
828.159	24943
828.298	25015
828.437	25107
828.577	24890
828.716	25065
828.855	24958
828.994	24650
829.134	24673
829.273	24749
829.412	24711
829.551	24654
829.69	24684
829.829	24623
829.968	24798
830.107	24703
830.246	24715
830.385	24578
830.524	24612
830.663	24505
830.802	24334
830.941	24296
831.08	24167
831.219	24353
831.357	24243
831.496	24513
831.635	24308
831.774	24247
831.913	24167
832.051	24007
832.19	24076
832.329	24174
832.467	24110
832.606	24068
832.744	23824
832.883	23961
833.022	24060
833.16	24045
833.299	24015
833.437	23882
833.576	23946
833.714	24038
833.852	24087
833.991	23988
834.129	24144
834.267	24133
834.406	24041
834.544	24018
834.682	24041
834.821	23859
834.959	24247
835.097	23870
835.235	23939
835.373	24030
835.511	23950
835.65	23817
835.788	23760
835.926	23653
836.064	23547
836.202	23497
836.34	23817
836.478	23843
836.615	23809
836.753	23840
836.891	23889
837.029	23885
837.167	23756
837.305	23695
837.443	23737
837.58	23615
837.718	23718
837.856	23703
837.993	23608
838.131	23642
838.269	23604
838.406	23554
838.544	23531
838.681	23273
838.819	23326
838.956	23124
839.094	23083
839.231	23170
839.369	23254
839.506	23547
839.643	23372
839.781	23094
839.918	23041
840.055	23117
840.193	23052
840.33	23083
840.467	23067
840.604	22995
840.742	23288
840.879	22949
841.016	22984
841.153	22866
841.29	22984
841.427	23010
841.564	22938
841.701	22961
841.838	22949
841.975	22976
842.112	22866
842.249	22782
842.385	22641
842.522	22869
842.659	22706
842.796	22691
842.933	22843
843.069	22706
843.206	22634
843.343	22694
843.479	22744
843.616	22649
843.752	22421
843.889	22519
844.025	22584
844.162	22455
844.298	22557
844.435	22557
844.571	22394
844.708	22497
844.844	22664
844.98	22561
845.117	22618
845.253	22550
845.389	22337
845.525	22375
845.661	22398
845.798	22169
845.934	22234
846.07	22135
846.206	22143
846.342	22333
846.478	22181
846.614	21922
846.75	21903
846.886	21949
847.022	21941
847.158	21903
847.294	21983
847.429	22029
847.565	21842
847.701	22086
847.837	21701
847.972	21576
848.108	21759
848.244	21793
848.379	21561
848.515	21564
848.65	21545
848.786	21538
848.921	21473
849.057	21500
849.192	21618
849.328	21568
849.463	21549
849.598	21511
849.734	21424
849.869	21485
850.004	21169
850.14	21332
850.275	21252
850.41	21226
850.545	21192
850.68	21249
850.815	21252
850.95	21184
851.085	21389
851.22	21382
851.355	21184
851.49	21100
851.625	21283
851.76	21165
851.895	21165
852.03	21199
852.165	21313
852.299	21260
852.434	21340
852.569	21336
852.703	21093
852.838	21249
852.973	21272
853.107	21389
853.242	21283
853.376	21032
853.511	20963
853.645	20971
853.78	21138
853.914	21051
854.048	21051
854.183	21020
854.317	21119
854.451	21306
854.585	20971
854.72	20956
854.854	21199
854.988	21108
855.122	21024
855.256	20994
855.39	21112
855.524	21157
855.658	21066
855.792	20975
855.926	21123
856.06	21085
856.194	21192
856.327	21013
856.461	20902
856.595	21017
856.729	21096
856.862	21112
856.996	21062
857.13	21249
857.263	21138
857.397	21138
857.53	21036
857.664	21024
857.797	21192
857.931	21203
858.064	21100
858.197	21173
858.331	21074
858.464	20921
858.597	20963
858.731	21085
858.864	21062
858.997	21036
859.13	20990
859.263	21036
859.396	20994
859.529	21032
859.662	21013
859.795	21017
859.928	21081
860.061	21230
860.194	21245
860.327	21001
860.46	20990
860.592	21096
860.725	21165
860.858	21188
860.99	20921
861.123	20864
861.256	20990
861.388	21203
861.521	21724
861.653	20975
861.786	20689
861.918	20918
862.05	20994
862.183	20990
862.315	20986
862.447	21020
862.58	20902
862.712	20796
862.844	20724
862.976	20868
863.108	20834
863.24	21112
863.372	20655
863.504	20708
863.636	20716
863.768	20746
863.9	20769
864.032	20648
864.164	20769
864.296	20644
864.428	20765
864.559	20792
864.691	20705
864.823	20674
864.954	20754
865.086	20587
865.217	20686
865.349	20476
865.48	20629
865.612	20609
865.743	20758
865.875	20686
866.006	20663
866.137	20655
866.269	20644
866.4	20617
866.531	20564
866.662	20579
866.793	20629
866.924	20625
867.055	20621
867.186	20503
867.317	20454
867.448	20358
867.579	20568
867.71	20522
867.841	20347
867.972	20556
868.103	20537
868.233	20545
868.364	20651
868.495	20663
868.625	20933
868.756	20811
868.886	20781
869.017	20804
869.147	20876
869.278	20872
869.408	20845
869.539	20773
869.669	20838
869.799	20769
869.929	20960
870.06	20918
870.19	21135
870.32	21039
870.45	21047
870.58	21131
870.71	21359
870.84	21199
870.97	21165
871.1	21169
871.23	21363
871.36	21329
871.489	21192
871.619	21321
871.749	21332
871.879	21424
872.008	21545
872.138	21367
872.267	21291
872.397	21374
872.526	21058
872.656	21096
872.785	21291
872.915	21389
873.044	21458
873.173	21500
873.303	21496
873.432	21504
873.561	21519
873.69	21431
873.819	21348
873.948	21443
874.077	21443
874.206	21454
874.335	21412
874.464	21519
874.593	21717
874.722	21542
874.851	21591
874.979	21591
875.108	21690
875.237	21557
875.365	21629
875.494	21698
875.623	21694
875.751	21717
875.88	21622
876.008	21762
876.136	21747
876.265	21987
876.393	22158
876.521	22112
876.65	22207
876.778	22063
876.906	21865
877.034	21850
877.162	21835
877.29	21899
877.418	21987
877.546	22086
877.674	21972
877.802	21956
877.93	22055
878.058	21994
878.185	21838
878.313	22090
878.441	21968
878.568	21831
878.696	21945
878.824	21956
878.951	22006
879.079	22196
879.206	22207
879.333	22196
879.461	22131
879.588	22112
879.715	22211
879.842	22249
879.97	22032
880.097	21827
880.224	21739
880.351	21880
880.478	21854
880.605	21751
880.732	21808
880.859	21926
880.986	21869
881.112	21739
881.239	21682
881.366	21500
881.493	21545
881.619	21351
881.746	21515
881.872	21348
881.999	21252
882.125	21272
882.252	21542
882.378	21485
882.505	21538
882.631	21249
882.757	21039
882.883	21230
883.01	21245
883.136	21013
883.262	21017
883.388	20960
883.514	21146
883.64	21154
883.766	21005
883.892	20845
884.018	21028
884.143	21066
884.269	21142
884.395	20845
884.52	20674
884.646	20773
884.772	20686
884.897	20674
885.023	20811
885.148	20864
885.274	20895
885.399	20819
885.524	20883
885.65	20689
885.775	20708
885.9	20693
886.025	20921
886.15	20743
886.275	20644
886.4	20590
886.525	20754
886.65	20758
886.775	20708
886.9	20982
887.025	21013
887.149	20746
887.274	20568
887.399	20590
887.523	20526
887.648	20488
887.773	20438
887.897	20598
888.021	20545
888.146	20579
888.27	20575
888.395	20609
888.519	20526
888.643	20568
888.767	20465
888.891	20339
889.015	20252
889.139	20381
889.263	20237
889.387	20381
889.511	20522
889.635	20305
889.759	20263
889.883	20199
890.006	20278
890.13	20313
890.254	20134
890.377	20309
890.501	20126
890.624	20024
890.748	20073
890.871	19928
890.995	19909
891.118	19833
891.241	19898
891.364	19879
891.488	19978
891.611	19887
891.734	19982
891.857	19921
891.98	19936
892.103	19974
892.226	19902
892.349	19757
892.471	19799
892.594	19841
892.717	19871
892.839	19894
892.962	19750
893.085	19837
893.207	19700
893.33	19662
893.452	19742
893.575	19791
893.697	19742
893.819	19936
893.941	19997
894.064	19883
894.186	19712
894.308	19662
894.43	19913
894.552	19974
894.674	19784
894.796	19742
894.918	19807
895.04	19849
895.161	19822
895.283	19746
895.405	19742
895.526	19837
895.648	19772
895.769	19746
895.891	19731
896.012	19868
896.134	19879
896.255	19803
896.376	19826
896.498	19803
896.619	19868
896.74	19864
896.861	19811
896.982	20172
897.103	20221
897.224	20084
897.345	20058
897.466	19917
897.587	20084
897.708	20145
897.828	20046
897.949	19986
898.07	19921
898.19	20001
898.311	20206
898.431	19974
898.552	20043
898.672	20024
898.792	20164
898.913	19997
899.033	19928
899.153	19803
899.273	19700
899.393	19818
899.513	19715
899.633	19746
899.753	19715
899.873	19750
899.993	19761
900.113	19651
900.232	19685
900.352	19731
900.472	19601
900.591	19506
900.711	19582
900.83	19502
900.95	19601
901.069	19620
901.189	19525
901.308	19088
901.427	19244
901.546	19099
901.665	19042
901.784	19114
901.904	19053
902.023	19061
902.141	18692
902.26	18631
902.379	18798
902.498	18589
902.617	18540
902.735	18620
902.854	18650
902.973	18517
903.091	18376
903.21	18388
903.328	18357
903.446	18186
903.565	18053
903.683	18079
903.801	17946
903.919	18098
904.038	17950
904.156	17726
904.274	18007
904.392	17798
904.51	17741
904.627	17813
904.745	17980
904.863	17969
904.981	17630
905.098	17524
905.216	17551
905.334	17497
905.451	17474
905.569	17448
905.686	17524
905.803	17596
905.921	17261
906.038	17379
906.155	17337
906.272	17220
906.389	17193
906.506	17079
906.623	17185
906.74	17022
906.857	16839
906.974	17025
907.091	17121
907.208	17292
907.324	17117
907.441	16877
907.557	16809
907.674	16767
907.79	16694
907.907	16774
908.023	16733
908.139	16767
908.256	16694
908.372	16725
908.488	16721
908.604	16405
908.72	16542
908.836	16565
908.952	16493
909.068	16447
909.184	16565
909.3	16489
909.415	16531
909.531	16527
909.647	16143
909.762	16265
909.878	16238
909.993	16185
910.108	16242
910.224	16067
910.339	16200
910.454	16010
910.57	16025
910.685	15926
910.8	16272
910.915	16086
911.03	16101
911.145	15857
911.259	15720
911.374	15804
911.489	15705
911.604	15667
911.718	15454
911.833	15462
911.947	15450
912.062	15344
912.176	15466
912.291	15439
912.405	15481
912.519	15713
912.633	15686
912.748	15523
912.862	15447
912.976	15325
913.09	15272
913.204	15287
913.318	15359
913.431	15488
913.545	15428
913.659	15397
913.772	15386
913.886	15135
914	15176
914.113	15260
914.226	15317
914.34	15203
914.453	15085
914.566	15142
914.68	15051
914.793	14963
914.906	14857
915.019	14773
915.132	14598
915.245	14670
915.358	14823
915.47	14796
915.583	14769
915.696	14724
915.809	14819
915.921	14918
916.034	14727
916.146	14644
916.259	14644
916.371	14739
916.483	14689
916.595	14686
916.708	14610
916.82	14560
916.932	14667
917.044	14518
917.156	14602
917.268	14396
917.38	14461
917.491	14415
917.603	14423
917.715	14507
917.826	14492
917.938	14438
918.049	14324
918.161	14339
918.272	14423
918.384	14476
918.495	14400
918.606	14176
918.717	14153
918.828	14225
918.939	14130
919.05	14050
919.161	14191
919.272	13944
919.383	14073
919.494	14180
919.604	14389
919.715	14256
919.826	14111
919.936	14164
920.047	14191
920.157	14172
920.267	14343
920.378	14187
920.488	14103
920.598	14275
920.708	14450
920.818	14389
920.928	14313
921.038	14415
921.148	14415
921.258	14027
921.368	13997
921.477	13928
921.587	13879
921.697	13704
921.806	13951
921.916	13738
922.025	13582
922.134	13548
922.244	13544
922.353	13597
922.462	13407
922.571	13354
922.68	13251
922.789	13126
922.898	13202
923.007	13137
923.116	13171
923.224	13110
923.333	13156
923.442	13069
923.55	13076
923.659	13031
923.767	13183
923.876	12939
923.984	12996
924.092	12882
924.201	13008
924.309	12920
924.417	12977
924.525	12890
924.633	12894
924.741	13590
924.849	12642
924.956	12871
925.064	12696
925.172	12570
925.279	12597
925.387	12612
925.494	12627
925.602	12787
925.709	12654
925.816	12509
925.924	12559
926.031	12703
926.138	12513
926.245	12574
926.352	12574
926.459	12642
926.566	12684
926.673	12422
926.779	12418
926.886	12342
926.993	12136
927.099	12144
927.206	12091
927.312	12144
927.419	12251
927.525	12144
927.631	12216
927.737	12060
927.843	11927
927.95	11912
928.056	11920
928.162	12003
928.267	12114
928.373	12601
928.479	12007
928.585	11843
928.69	11980
928.796	11958
928.901	11863
929.007	11756
929.112	11866
929.218	11859
929.323	11646
929.428	11718
929.533	11893
929.638	11672
929.743	11710
929.848	11790
929.953	11676
930.058	11615
930.163	11501
930.267	11448
930.372	11608
930.477	11429
930.581	11691
930.685	11425
930.79	11395
930.894	11376
930.998	11288
931.103	11448
931.207	11056
931.311	10972
931.415	10892
931.519	10714
931.623	10668
