Data from test_V78500241_2671.txt Node
Date: Fri Mar 25 15:28:27 CST 2022
User: usil
Spectrometer: V785-0024
Trigger mode: 0
Integration Time (sec): 4.000000E-1
Scans to average: 1
Nonlinearity correction enabled: false
Boxcar width: 0
Storing dark spectrum: false
XAxis mode: Wavelengths
Number of Pixels in Spectrum: 1024
>>>>>Begin Spectral Data<<<<<
801.071	27188
801.214	27138
801.356	26773
801.499	26746
801.641	26739
801.783	26495
801.926	26587
802.068	26514
802.211	26701
802.353	26480
802.496	26415
802.638	26328
802.78	26191
802.923	26191
803.065	26054
803.208	26180
803.35	26195
803.492	26499
803.635	26309
803.777	26366
803.919	26412
804.061	26785
804.204	26434
804.346	26385
804.488	26126
804.63	26343
804.773	26339
804.915	26545
805.057	26560
805.199	26412
805.341	26442
805.483	26549
805.626	26499
805.768	26453
805.91	26541
806.052	26587
806.194	26427
806.336	26689
806.478	26552
806.62	26480
806.762	26621
806.904	26880
807.046	27009
807.188	26906
807.33	26880
807.472	26967
807.614	26940
807.756	26902
807.898	26788
808.04	26571
808.182	26682
808.324	26552
808.465	26883
808.607	26880
808.749	27173
808.891	27214
809.033	27329
809.174	27089
809.316	27081
809.458	27074
809.6	27077
809.741	27211
809.883	27123
810.025	27389
810.166	27450
810.308	27351
810.45	27317
810.591	27370
810.733	27169
810.875	27032
811.016	27013
811.158	27104
811.299	27165
811.441	27294
811.582	27275
811.724	27272
811.865	27032
812.007	26960
812.148	26967
812.29	27188
812.431	27264
812.573	27378
812.714	27447
812.855	27587
812.997	27485
813.138	27846
813.279	27656
813.421	27622
813.562	27458
813.703	27386
813.845	27192
813.986	26883
814.127	26762
814.268	26785
814.41	26754
814.551	26705
814.692	26765
814.833	26560
814.974	26701
815.115	26773
815.256	26762
815.397	26708
815.539	26541
815.68	26434
815.821	26446
815.962	26385
816.103	26446
816.244	26438
816.385	26256
816.526	26172
816.666	26073
816.807	25966
816.948	26073
817.089	26088
817.23	25860
817.371	25986
817.512	25917
817.653	26020
817.793	25864
817.934	25883
818.075	26027
818.216	26005
818.356	26024
818.497	25932
818.638	25845
818.778	25742
818.919	25750
819.06	25860
819.2	25993
819.341	25856
819.481	25940
819.622	26100
819.762	26240
819.903	26275
820.043	26183
820.184	26107
820.324	26168
820.465	26221
820.605	26126
820.746	26149
820.886	25970
821.026	25963
821.167	26081
821.307	26016
821.447	25978
821.588	25978
821.728	25818
821.868	25567
822.008	25434
822.149	25441
822.289	25449
822.429	25050
822.569	24981
822.709	25141
822.849	25038
822.99	24928
823.13	24787
823.27	24878
823.41	24821
823.55	24753
823.69	24661
823.83	24741
823.97	24768
824.11	24608
824.25	24422
824.389	24555
824.529	24635
824.669	24623
824.809	24658
824.949	24707
825.089	24601
825.228	24578
825.368	24376
825.508	24452
825.648	24369
825.787	24547
825.927	24521
826.067	24475
826.206	24448
826.346	24479
826.485	24513
826.625	24509
826.765	24513
826.904	24399
827.044	24121
827.183	24178
827.323	24258
827.462	24209
827.601	24049
827.741	24266
827.88	24174
828.02	24098
828.159	24178
828.298	24106
828.437	24152
828.577	24117
828.716	24315
828.855	23935
828.994	23756
829.134	23813
829.273	23912
829.412	23866
829.551	23805
829.69	23878
829.829	23950
829.968	23828
830.107	23927
830.246	23882
830.385	23828
830.524	23767
830.663	23733
830.802	23539
830.941	23410
831.08	23455
831.219	23539
831.357	23551
831.496	23581
831.635	23463
831.774	23383
831.913	23284
832.051	23273
832.19	23136
832.329	23364
832.467	23258
832.606	23056
832.744	23098
832.883	23231
833.022	23048
833.16	23117
833.299	23083
833.437	23128
833.576	23246
833.714	23284
833.852	23341
833.991	23258
834.129	23227
834.267	23326
834.406	23151
834.544	23212
834.682	23254
834.821	23090
834.959	23379
835.097	23353
835.235	23136
835.373	23227
835.511	23299
835.65	23083
835.788	23010
835.926	23014
836.064	22904
836.202	22930
836.34	22938
836.478	23242
836.615	22999
836.753	23117
836.891	23246
837.029	23060
837.167	23006
837.305	23060
837.443	23064
837.58	22828
837.718	22889
837.856	22949
837.993	22786
838.131	22866
838.269	22710
838.406	22835
838.544	22698
838.681	22519
838.819	22523
838.956	22447
839.094	22421
839.231	22493
839.369	22584
839.506	22831
839.643	22630
839.781	22379
839.918	22367
840.055	22413
840.193	22386
840.33	22432
840.467	22310
840.604	22504
840.742	22656
840.879	22246
841.016	22166
841.153	22333
841.29	22432
841.427	22291
841.564	22322
841.701	22249
841.838	22306
841.975	22238
842.112	22325
842.249	22059
842.385	22139
842.522	22249
842.659	22234
842.796	22078
842.933	21968
843.069	22040
843.206	22086
843.343	21998
843.479	22063
843.616	22040
843.752	21945
843.889	21880
844.025	21953
844.162	21934
844.298	21903
844.435	21937
844.571	21861
844.708	21766
844.844	22048
844.98	22025
845.117	21861
845.253	21838
845.389	21724
845.525	21793
845.661	21762
845.798	21686
845.934	21656
846.07	21614
846.206	21728
846.342	21816
846.478	21652
846.614	21317
846.75	21340
846.886	21351
847.022	21336
847.158	21317
847.294	21256
847.429	21340
847.565	21344
847.701	21549
847.837	21176
847.972	21150
848.108	21096
848.244	21222
848.379	21142
848.515	20830
848.65	20956
848.786	20937
848.921	20868
849.057	21096
849.192	21001
849.328	20971
849.463	20895
849.598	20956
849.734	20849
849.869	20792
850.004	20773
850.14	20758
850.275	20522
850.41	20613
850.545	20731
850.68	20625
850.815	20625
850.95	20735
851.085	20864
851.22	20842
851.355	20743
851.49	20613
851.625	20689
851.76	20670
851.895	20682
852.03	20727
852.165	20796
852.299	20659
852.434	20804
852.569	20727
852.703	20735
852.838	20712
852.973	20819
853.107	20792
853.242	20670
853.376	20602
853.511	20370
853.645	20446
853.78	20602
853.914	20408
854.048	20446
854.183	20613
854.317	20541
854.451	20659
854.585	20583
854.72	20537
854.854	20712
854.988	20377
855.122	20511
855.256	20423
855.39	20480
855.524	20537
855.658	20533
855.792	20552
855.926	20469
856.06	20602
856.194	20674
856.327	20602
856.461	20393
856.595	20454
856.729	20423
856.862	20617
856.996	20651
857.13	20579
857.263	20617
857.397	20526
857.53	20488
857.664	20518
857.797	20579
857.931	20777
858.064	20484
858.197	20609
858.331	20533
858.464	20484
858.597	20480
858.731	20461
858.864	20518
858.997	20495
859.13	20484
859.263	20499
859.396	20579
859.529	20518
859.662	20606
859.795	20541
859.928	20590
860.061	20609
860.194	20834
860.327	20625
860.46	20602
860.592	20613
860.725	20617
860.858	20655
860.99	20537
861.123	20393
861.256	20522
861.388	20575
861.521	21241
861.653	20393
861.786	20374
861.918	20301
862.05	20419
862.183	20328
862.315	20438
862.447	20686
862.58	20442
862.712	20412
862.844	20142
862.976	20298
863.108	20305
863.24	20868
863.372	20183
863.504	20290
863.636	20180
863.768	20221
863.9	20286
864.032	20149
864.164	20031
864.296	20278
864.428	20271
864.559	20381
864.691	20389
864.823	20320
864.954	20145
865.086	20218
865.217	20138
865.349	20088
865.48	20111
865.612	20233
865.743	20309
865.875	20111
866.006	20130
866.137	20092
866.269	20096
866.4	20157
866.531	20084
866.662	20027
866.793	19974
866.924	20077
867.055	20134
867.186	20065
867.317	20115
867.448	20065
867.579	20058
867.71	19986
867.841	20020
867.972	20020
868.103	20096
868.233	20138
868.364	20081
868.495	20210
868.625	20218
868.756	20332
868.886	20195
869.017	20218
869.147	20488
869.278	20404
869.408	20377
869.539	20317
869.669	20419
869.799	20275
869.929	20518
870.06	20533
870.19	20678
870.32	20549
870.45	20636
870.58	20682
870.71	20921
870.84	20952
870.97	20811
871.1	20815
871.23	20876
871.36	20823
871.489	20845
871.619	20944
871.749	20937
871.879	20998
872.008	21009
872.138	20937
872.267	20990
872.397	20804
872.526	20762
872.656	20765
872.785	20864
872.915	20918
873.044	21131
873.173	21001
873.303	21058
873.432	20944
873.561	21024
873.69	20880
873.819	20906
873.948	20895
874.077	20971
874.206	20929
874.335	21020
874.464	21066
874.593	21207
874.722	21074
874.851	21348
874.979	21085
875.108	21279
875.237	21112
875.365	21085
875.494	21249
875.623	21306
875.751	21127
875.88	21275
876.008	21443
876.136	21397
876.265	21587
876.393	21755
876.521	21622
876.65	21717
876.778	21663
876.906	21652
877.034	21530
877.162	21545
877.29	21568
877.418	21511
877.546	21606
877.674	21454
877.802	21435
877.93	21496
878.058	21450
878.185	21363
878.313	21488
878.441	21580
878.568	21325
878.696	21477
878.824	21542
878.951	21599
879.079	21797
879.206	21888
879.333	21614
879.461	21580
879.588	21595
879.715	21637
879.842	21663
879.97	21679
880.097	21435
880.224	21389
880.351	21557
880.478	21397
880.605	21374
880.732	21481
880.859	21561
880.986	21428
881.112	21386
881.239	21325
881.366	21214
881.493	21024
881.619	20990
881.746	20925
881.872	20895
881.999	20864
882.125	20906
882.252	21013
882.378	20952
882.505	21051
882.631	20769
882.757	20712
882.883	20712
883.01	20613
883.136	20552
883.262	20613
883.388	20465
883.514	20644
883.64	20686
883.766	20495
883.892	20332
884.018	20419
884.143	20613
884.269	20621
884.395	20404
884.52	20381
884.646	20290
884.772	20191
884.897	20115
885.023	20381
885.148	20298
885.274	20457
885.399	20381
885.524	20206
885.65	20396
885.775	20267
885.9	20294
886.025	20419
886.15	20412
886.275	20191
886.4	20195
886.525	20252
886.65	20229
886.775	20328
886.9	20343
887.025	20629
887.149	20259
887.274	20138
887.399	20168
887.523	20161
887.648	20031
887.773	19982
887.897	20016
888.021	20142
888.146	20199
888.27	20172
888.395	20339
888.519	20210
888.643	20130
888.767	20221
888.891	19970
889.015	19989
889.139	19925
889.263	19959
889.387	20027
889.511	20153
889.635	20024
889.759	20039
889.883	19856
890.006	19967
890.13	20043
890.254	19799
890.377	19723
890.501	19693
890.624	19674
890.748	19677
890.871	19586
890.995	19552
891.118	19441
891.241	19525
891.364	19525
891.488	19590
891.611	19487
891.734	19449
891.857	19559
891.98	19632
892.103	19586
892.226	19544
892.349	19441
892.471	19282
892.594	19377
892.717	19472
892.839	19533
892.962	19384
893.085	19502
893.207	19388
893.33	19480
893.452	19373
893.575	19468
893.697	19346
893.819	19635
893.941	19628
894.064	19575
894.186	19441
894.308	19350
894.43	19533
894.552	19525
894.674	19571
894.796	19377
894.918	19472
895.04	19346
895.161	19472
895.283	19384
895.405	19426
895.526	19586
895.648	19415
895.769	19369
895.891	19506
896.012	19575
896.134	19422
896.255	19491
896.376	19384
896.498	19392
896.619	19460
896.74	19274
896.861	19445
896.982	19753
897.103	19811
897.224	19693
897.345	19674
897.466	19468
897.587	19632
897.708	19837
897.828	19674
897.949	19624
898.07	19453
898.19	19666
898.311	19712
898.431	19685
898.552	19628
898.672	19795
898.792	19719
898.913	19723
899.033	19609
899.153	19411
899.273	19400
899.393	19480
899.513	19525
899.633	19472
899.753	19601
899.873	19346
899.993	19499
900.113	19392
900.232	19362
900.352	19396
900.472	19293
900.591	19228
900.711	19179
900.83	19046
900.95	19278
901.069	19327
901.189	19107
901.308	18947
901.427	18875
901.546	18871
901.665	18768
901.784	18833
901.904	18707
902.023	18559
902.141	18346
902.26	18403
902.379	18426
902.498	18247
902.617	18296
902.735	18323
902.854	18266
902.973	18304
903.091	18049
903.21	18011
903.328	17973
903.446	17992
903.565	17760
903.683	17866
903.801	17642
903.919	17760
904.038	17756
904.156	17589
904.274	17805
904.392	17509
904.51	17482
904.627	17638
904.745	17665
904.863	17649
904.981	17406
905.098	17220
905.216	17265
905.334	17307
905.451	17242
905.569	17231
905.686	17235
905.803	17318
905.921	17071
906.038	17189
906.155	16938
906.272	16980
906.389	17045
906.506	16839
906.623	16847
906.74	16847
906.857	16771
906.974	16660
907.091	16820
907.208	16995
907.324	16831
907.441	16702
907.557	16626
907.674	16561
907.79	16508
907.907	16504
908.023	16607
908.139	16603
908.256	16489
908.372	16455
908.488	16424
908.604	16299
908.72	16150
908.836	16280
908.952	16310
909.068	16314
909.184	16428
909.3	16344
909.415	16348
909.531	16215
909.647	15983
909.762	15956
909.878	15876
909.993	15865
910.108	15911
910.224	15915
910.339	15964
910.454	15903
910.57	15857
910.685	15717
910.8	16021
910.915	15960
911.03	15778
911.145	15637
911.259	15557
911.374	15648
911.489	15492
911.604	15488
911.718	15344
911.833	15359
911.947	15252
912.062	15252
912.176	15443
912.291	15428
912.405	15412
912.519	15568
912.633	15545
912.748	15310
912.862	15287
912.976	15154
913.09	15036
913.204	15108
913.318	15180
913.431	15283
913.545	15264
913.659	15199
913.772	15127
913.886	15043
914	14952
914.113	15089
914.226	15123
914.34	15001
914.453	14777
914.566	14990
914.68	14948
914.793	14902
914.906	14644
915.019	14594
915.132	14587
915.245	14541
915.358	14670
915.47	14587
915.583	14492
915.696	14590
915.809	14731
915.921	14712
916.034	14461
916.146	14545
916.259	14457
916.371	14568
916.483	14571
916.595	14351
916.708	14454
916.82	14446
916.932	14400
917.044	14355
917.156	14343
917.268	14309
917.38	14377
917.491	14248
917.603	14191
917.715	14431
917.826	14248
917.938	14214
918.049	14126
918.161	14206
918.272	14343
918.384	14336
918.495	14180
918.606	14050
918.717	14024
918.828	13951
918.939	14092
919.05	13967
919.161	13974
919.272	13913
919.383	13814
919.494	13993
919.604	14282
919.715	13947
919.826	13883
919.936	13989
920.047	14103
920.157	13989
920.267	14225
920.378	13955
920.488	14016
920.598	14172
920.708	14396
920.818	14107
920.928	14103
921.038	14324
921.148	14187
921.258	13986
921.368	13856
921.477	13734
921.587	13784
921.697	13613
921.806	13753
921.916	13556
922.025	13377
922.134	13377
922.244	13350
922.353	13426
922.462	13232
922.571	13274
922.68	13156
922.789	12985
922.898	13053
923.007	12977
923.116	13137
923.224	13072
923.333	13118
923.442	12878
923.55	12894
923.659	12947
923.767	12890
923.876	12935
923.984	12882
924.092	12840
924.201	12772
924.309	12837
924.417	12783
924.525	12753
924.633	12719
924.741	13693
924.849	12578
924.956	12566
925.064	12544
925.172	12391
925.279	12486
925.387	12509
925.494	12490
925.602	12597
925.709	12521
925.816	12403
925.924	12407
926.031	12555
926.138	12422
926.245	12494
926.352	12311
926.459	12490
926.566	12490
926.673	12281
926.779	12327
926.886	12239
926.993	12117
927.099	12106
927.206	12060
927.312	12019
927.419	12171
927.525	12091
927.631	12167
927.737	11999
927.843	11946
927.95	11809
928.056	11832
928.162	11908
928.267	12011
928.373	12433
928.479	11942
928.585	11794
928.69	11851
928.796	11927
928.901	11748
929.007	11665
929.112	11779
929.218	11786
929.323	11661
929.428	11585
929.533	11843
929.638	11596
929.743	11589
929.848	11653
929.953	11623
930.058	11467
930.163	11269
930.267	11448
930.372	11482
930.477	11315
930.581	11459
930.685	11455
930.79	11216
930.894	11250
930.998	11102
931.103	11284
931.207	10877
931.311	10999
931.415	10839
931.519	10599
931.623	10558
