Data from test_V78500241_1299.txt Node
Date: Fri Mar 25 15:18:54 CST 2022
User: usil
Spectrometer: V785-0024
Trigger mode: 0
Integration Time (sec): 4.000000E-1
Scans to average: 1
Nonlinearity correction enabled: false
Boxcar width: 0
Storing dark spectrum: false
XAxis mode: Wavelengths
Number of Pixels in Spectrum: 1024
>>>>>Begin Spectral Data<<<<<
801.071	28063
801.214	28120
801.356	27774
801.499	27743
801.641	27572
801.783	27648
801.926	27724
802.068	27553
802.211	27507
802.353	27511
802.496	27485
802.638	27249
802.78	27256
802.923	27272
803.065	27218
803.208	27150
803.35	27256
803.492	27507
803.635	27515
803.777	27294
803.919	27447
804.061	27903
804.204	27466
804.346	27325
804.488	27397
804.63	27485
804.773	27370
804.915	27610
805.057	27564
805.199	27488
805.341	27637
805.483	27717
805.626	27591
805.768	27523
805.91	27599
806.052	27557
806.194	27610
806.336	27766
806.478	27766
806.62	27610
806.762	27762
806.904	27873
807.046	28040
807.188	27953
807.33	28124
807.472	27956
807.614	27953
807.756	28013
807.898	27907
808.04	27956
808.182	27728
808.324	27876
808.465	27937
808.607	28059
808.749	28234
808.891	28329
809.033	28367
809.174	28291
809.316	28280
809.458	28276
809.6	28219
809.741	28306
809.883	28333
810.025	28500
810.166	28485
810.308	28630
810.45	28493
810.591	28417
810.733	28329
810.875	28249
811.016	28185
811.158	28135
811.299	28379
811.441	28356
811.582	28440
811.724	28310
811.865	28135
812.007	28177
812.148	28158
812.29	28295
812.431	28466
812.573	28691
812.714	28736
812.855	28850
812.997	28900
813.138	28904
813.279	28885
813.421	28805
813.562	28790
813.703	28641
813.845	28474
813.986	28348
814.127	28036
814.268	27895
814.41	28036
814.551	27953
814.692	28185
814.833	27797
814.974	27937
815.115	28032
815.256	27903
815.397	27884
815.539	28051
815.68	27622
815.821	27705
815.962	27739
816.103	27736
816.244	27648
816.385	27458
816.526	27587
816.666	27317
816.807	27123
816.948	27351
817.089	27389
817.23	27245
817.371	27298
817.512	27317
817.653	27317
817.793	27264
817.934	27367
818.075	27363
818.216	27355
818.356	27310
818.497	27222
818.638	26933
818.778	26944
818.919	26914
819.06	27173
819.2	27066
819.341	27275
819.481	27287
819.622	27386
819.762	27633
819.903	27500
820.043	27515
820.184	27363
820.324	27454
820.465	27386
820.605	27416
820.746	27325
820.886	27188
821.026	27344
821.167	27355
821.307	27507
821.447	27211
821.588	27226
821.728	27131
821.868	26925
822.008	26845
822.149	26758
822.289	26720
822.429	26419
822.569	26396
822.709	26317
822.849	26404
822.99	26237
823.13	26149
823.27	26176
823.41	26096
823.55	25811
823.69	26111
823.83	26069
823.97	26012
824.11	25750
824.25	25788
824.389	25868
824.529	25966
824.669	25955
824.809	26050
824.949	25955
825.089	26100
825.228	25986
825.368	25700
825.508	25837
825.648	25784
825.787	25753
825.927	25826
826.067	25639
826.206	25666
826.346	25761
826.485	25746
826.625	25875
826.765	25807
826.904	25830
827.044	25571
827.183	25567
827.323	25506
827.462	25601
827.601	25457
827.741	25403
827.88	25449
828.02	25358
828.159	25521
828.298	25582
828.437	25582
828.577	25384
828.716	25582
828.855	25293
828.994	25259
829.134	25213
829.273	25213
829.412	25274
829.551	25179
829.69	25175
829.829	25148
829.968	25278
830.107	25282
830.246	25358
830.385	25038
830.524	25156
830.663	24886
830.802	24916
830.941	24871
831.08	24673
831.219	24932
831.357	24715
831.496	24970
831.635	24806
831.774	24719
831.913	24707
832.051	24536
832.19	24623
832.329	24585
832.467	24464
832.606	24566
832.744	24437
832.883	24452
833.022	24422
833.16	24574
833.299	24483
833.437	24471
833.576	24570
833.714	24441
833.852	24479
833.991	24593
834.129	24711
834.267	24528
834.406	24559
834.544	24585
834.682	24593
834.821	24521
834.959	24749
835.097	24494
835.235	24631
835.373	24426
835.511	24490
835.65	24407
835.788	24296
835.926	24418
836.064	24098
836.202	24194
836.34	24239
836.478	24483
836.615	24277
836.753	24262
836.891	24319
837.029	24380
837.167	24155
837.305	24091
837.443	24224
837.58	24171
837.718	24281
837.856	24140
837.993	24129
838.131	24144
838.269	24098
838.406	24140
838.544	24030
838.681	23950
838.819	23889
838.956	23653
839.094	23608
839.231	23741
839.369	23870
839.506	24079
839.643	23954
839.781	23562
839.918	23665
840.055	23707
840.193	23676
840.33	23547
840.467	23539
840.604	23748
840.742	23866
840.879	23444
841.016	23417
841.153	23463
841.29	23539
841.427	23604
841.564	23562
841.701	23619
841.838	23463
841.975	23471
842.112	23471
842.249	23273
842.385	23395
842.522	23467
842.659	23326
842.796	23307
842.933	23231
843.069	23315
843.206	23269
843.343	23433
843.479	23463
843.616	23307
843.752	23170
843.889	23162
844.025	23353
844.162	23105
844.298	23170
844.435	23128
844.571	23109
844.708	23143
844.844	23227
844.98	23303
845.117	23212
845.253	23086
845.389	22831
845.525	22938
845.661	22949
845.798	22919
845.934	22831
846.07	22793
846.206	22873
846.342	22938
846.478	22740
846.614	22649
846.75	22455
846.886	22421
847.022	22656
847.158	22634
847.294	22508
847.429	22706
847.565	22569
847.701	22835
847.837	22246
847.972	22223
848.108	22318
848.244	22261
848.379	22211
848.515	22265
848.65	22116
848.786	22143
848.921	22131
849.057	22215
849.192	22200
849.328	22196
849.463	22082
849.598	22135
849.734	21991
849.869	21937
850.004	21907
850.14	21915
850.275	21876
850.41	21895
850.545	21994
850.68	21808
850.815	21956
850.95	21953
851.085	22177
851.22	22086
851.355	21892
851.49	21869
851.625	21968
851.76	21846
851.895	21857
852.03	21797
852.165	21865
852.299	22032
852.434	22029
852.569	21895
852.703	21861
852.838	21930
852.973	22029
853.107	22013
853.242	21823
853.376	21797
853.511	21561
853.645	21690
853.78	21827
853.914	21774
854.048	21743
854.183	21789
854.317	21739
854.451	21850
854.585	21709
854.72	21698
854.854	21812
854.988	21633
855.122	21656
855.256	21637
855.39	21629
855.524	21739
855.658	21797
855.792	21739
855.926	21789
856.06	21736
856.194	21835
856.327	21652
856.461	21705
856.595	21587
856.729	21701
856.862	21968
856.996	21876
857.13	21694
857.263	21751
857.397	21804
857.53	21705
857.664	21800
857.797	21747
857.931	21819
858.064	21793
858.197	21819
858.331	21785
858.464	21660
858.597	21743
858.731	21614
858.864	21724
858.997	21671
859.13	21747
859.263	21629
859.396	21717
859.529	21709
859.662	21755
859.795	21583
859.928	21717
860.061	21888
860.194	22002
860.327	21770
860.46	21644
860.592	21983
860.725	21892
860.858	21819
860.99	21724
861.123	21576
861.256	21694
861.388	21686
861.521	22348
861.653	21599
861.786	21591
861.918	21572
862.05	21542
862.183	21800
862.315	21713
862.447	21614
862.58	21587
862.712	21401
862.844	21492
862.976	21515
863.108	21561
863.24	21686
863.372	21481
863.504	21443
863.636	21466
863.768	21466
863.9	21466
864.032	21428
864.164	21389
864.296	21386
864.428	21576
864.559	21412
864.691	21583
864.823	21386
864.954	21496
865.086	21310
865.217	21287
865.349	21260
865.48	21203
865.612	21359
865.743	21428
865.875	21351
866.006	21329
866.137	21386
866.269	21302
866.4	21272
866.531	21169
866.662	21272
866.793	21344
866.924	21275
867.055	21431
867.186	21230
867.317	21093
867.448	21089
867.579	21211
867.71	21214
867.841	21161
867.972	21199
868.103	21272
868.233	21275
868.364	21150
868.495	21340
868.625	21313
868.756	21580
868.886	21420
869.017	21412
869.147	21538
869.278	21686
869.408	21507
869.539	21435
869.669	21614
869.799	21515
869.929	21534
870.06	21568
870.19	21838
870.32	21717
870.45	21835
870.58	21911
870.71	21956
870.84	22006
870.97	21842
871.1	21895
871.23	22097
871.36	21991
871.489	21964
871.619	22025
871.749	22128
871.879	22120
872.008	22268
872.138	22036
872.267	22101
872.397	21850
872.526	21857
872.656	21998
872.785	21953
872.915	22040
873.044	22090
873.173	22166
873.303	22124
873.432	22177
873.561	22207
873.69	22150
873.819	22067
873.948	22166
874.077	22177
874.206	22124
874.335	22093
874.464	22337
874.593	22352
874.722	22333
874.851	22367
874.979	22337
875.108	22329
875.237	22272
875.365	22272
875.494	22337
875.623	22352
875.751	22417
875.88	22265
876.008	22398
876.136	22527
876.265	22710
876.393	22797
876.521	22740
876.65	22797
876.778	22710
876.906	22641
877.034	22668
877.162	22782
877.29	22626
877.418	22763
877.546	22687
877.674	22660
877.802	22653
877.93	22698
878.058	22656
878.185	22561
878.313	22622
878.441	22630
878.568	22474
878.696	22615
878.824	22748
878.951	22809
879.079	22786
879.206	22991
879.333	22733
879.461	22691
879.588	22847
879.715	22911
879.842	23033
879.97	22759
880.097	22447
880.224	22382
880.351	22573
880.478	22550
880.605	22440
880.732	22451
880.859	22618
880.986	22466
881.112	22504
881.239	22287
881.366	22295
881.493	22112
881.619	22017
881.746	22078
881.872	22078
881.999	21987
882.125	22036
882.252	22013
882.378	22074
882.505	22105
882.631	21797
882.757	21759
882.883	21907
883.01	21899
883.136	21648
883.262	21591
883.388	21618
883.514	21816
883.64	21747
883.766	21667
883.892	21564
884.018	21610
884.143	21846
884.269	21812
884.395	21405
884.52	21424
884.646	21348
884.772	21256
884.897	21321
885.023	21511
885.148	21500
885.274	21599
885.399	21500
885.524	21287
885.65	21367
885.775	21439
885.9	21275
886.025	21557
886.15	21523
886.275	21435
886.4	21401
886.525	21256
886.65	21237
886.775	21462
886.9	21538
887.025	21564
887.149	21329
887.274	21161
887.399	21226
887.523	21230
887.648	21180
887.773	21108
887.897	21195
888.021	21180
888.146	21180
888.27	21272
888.395	21157
888.519	21157
888.643	21218
888.767	21157
888.891	21005
889.015	20944
889.139	20910
889.263	20845
889.387	21062
889.511	21066
889.635	21051
889.759	20864
889.883	20872
890.006	21024
890.13	20941
890.254	20872
890.377	20842
890.501	20678
890.624	20727
890.748	20667
890.871	20632
890.995	20503
891.118	20507
891.241	20545
891.364	20423
891.488	20651
891.611	20480
891.734	20629
891.857	20621
891.98	20533
892.103	20583
892.226	20514
892.349	20484
892.471	20355
892.594	20423
892.717	20495
892.839	20427
892.962	20434
893.085	20473
893.207	20370
893.33	20294
893.452	20434
893.575	20419
893.697	20267
893.819	20461
893.941	20568
894.064	20583
894.186	20355
894.308	20328
894.43	20423
894.552	20537
894.674	20511
894.796	20328
894.918	20393
895.04	20244
895.161	20347
895.283	20469
895.405	20328
895.526	20434
895.648	20336
895.769	20343
895.891	20389
896.012	20514
896.134	20267
896.255	20374
896.376	20442
896.498	20389
896.619	20480
896.74	20385
896.861	20431
896.982	20819
897.103	20956
897.224	20617
897.345	20583
897.466	20552
897.587	20587
897.708	20849
897.828	20659
897.949	20450
898.07	20332
898.19	20549
898.311	20598
898.431	20522
898.552	20549
898.672	20648
898.792	20701
898.913	20492
899.033	20564
899.153	20381
899.273	20294
899.393	20366
899.513	20305
899.633	20396
899.753	20351
899.873	20157
899.993	20370
900.113	20320
900.232	20256
900.352	20298
900.472	20100
900.591	20058
900.711	20176
900.83	20100
900.95	20157
901.069	20096
901.189	19986
901.308	19864
901.427	19750
901.546	19841
901.665	19715
901.784	19677
901.904	19544
902.023	19483
902.141	19331
902.26	19194
902.379	19308
902.498	19213
902.617	19137
902.735	19175
902.854	19190
902.973	19133
903.091	18894
903.21	18897
903.328	18996
903.446	18696
903.565	18783
903.683	18795
903.801	18696
903.919	18650
904.038	18623
904.156	18483
904.274	18570
904.392	18445
904.51	18471
904.627	18414
904.745	18460
904.863	18494
904.981	18346
905.098	18201
905.216	18053
905.334	18087
905.451	18171
905.569	18178
905.686	18247
905.803	18174
905.921	17935
906.038	17980
906.155	17912
906.272	17870
906.389	17828
906.506	17748
906.623	17805
906.74	17779
906.857	17543
906.974	17661
907.091	17741
907.208	17908
907.324	17634
907.441	17581
907.557	17417
907.674	17448
907.79	17455
907.907	17280
908.023	17452
908.139	17265
908.256	17364
908.372	17288
908.488	17372
908.604	17117
908.72	17140
908.836	17098
908.952	17064
909.068	17227
909.184	17212
909.3	17109
909.415	17056
909.531	17090
909.647	16816
909.762	16847
909.878	16782
909.993	16824
910.108	16850
910.224	16755
910.339	16862
910.454	16790
910.57	16687
910.685	16672
910.8	16858
910.915	16809
911.03	16702
911.145	16451
911.259	16398
911.374	16474
911.489	16344
911.604	16230
911.718	16188
911.833	16207
911.947	16120
912.062	15911
912.176	16162
912.291	16154
912.405	16124
912.519	16280
912.633	16405
912.748	16215
912.862	16147
912.976	15987
913.09	15869
913.204	15861
913.318	16013
913.431	16051
913.545	16055
913.659	16128
913.772	15895
913.886	15793
914	15739
914.113	15797
914.226	15838
914.34	15774
914.453	15553
914.566	15800
914.68	15694
914.793	15610
914.906	15488
915.019	15424
915.132	15412
915.245	15374
915.358	15340
915.47	15363
915.583	15287
915.696	15408
915.809	15519
915.921	15553
916.034	15351
916.146	15298
916.259	15241
916.371	15252
916.483	15351
916.595	15138
916.708	15199
916.82	15135
916.932	15211
917.044	15138
917.156	15116
917.268	14952
917.38	15104
917.491	14899
917.603	15119
917.715	15119
917.826	15188
917.938	14948
918.049	14937
918.161	14971
918.272	15062
918.384	15150
918.495	15017
918.606	14815
918.717	14705
918.828	14731
918.939	14834
919.05	14758
919.161	14743
919.272	14511
919.383	14648
919.494	14674
919.604	14952
919.715	14727
919.826	14663
919.936	14598
920.047	14872
920.157	14712
920.267	14872
920.378	14625
920.488	14697
920.598	14902
920.708	14982
920.818	14902
920.928	14758
921.038	14971
921.148	14910
921.258	14636
921.368	14617
921.477	14484
921.587	14537
921.697	14400
921.806	14381
921.916	14286
922.025	14183
922.134	14065
922.244	13913
922.353	14058
922.462	13989
922.571	13780
922.68	13814
922.789	13700
922.898	13700
923.007	13594
923.116	13719
923.224	13712
923.333	13689
923.442	13632
923.55	13548
923.659	13628
923.767	13658
923.876	13518
923.984	13567
924.092	13411
924.201	13514
924.309	13449
924.417	13426
924.525	13400
924.633	13350
924.741	14298
924.849	13069
924.956	13270
925.064	13217
925.172	13080
925.279	13042
925.387	13152
925.494	13046
925.602	13247
925.709	13152
925.816	13122
925.924	13031
926.031	13160
926.138	13103
926.245	13179
926.352	13015
926.459	13084
926.566	13156
926.673	12935
926.779	12928
926.886	12954
926.993	12749
927.099	12753
927.206	12684
927.312	12684
927.419	12829
927.525	12734
927.631	12673
927.737	12608
927.843	12559
927.95	12403
928.056	12544
928.162	12551
928.267	12532
928.373	13065
928.479	12536
928.585	12357
928.69	12464
928.796	12433
928.901	12330
929.007	12266
929.112	12365
929.218	12391
929.323	12251
929.428	12251
929.533	12357
929.638	12220
929.743	12258
929.848	12228
929.953	12224
930.058	12129
930.163	11973
930.267	11897
930.372	12034
930.477	11908
930.581	12095
930.685	11939
930.79	11741
930.894	11821
930.998	11805
931.103	11996
931.207	11509
931.311	11516
931.415	11482
931.519	11261
931.623	11181
