Data from test_V78500241_2490.txt Node
Date: Fri Mar 25 15:27:11 CST 2022
User: usil
Spectrometer: V785-0024
Trigger mode: 0
Integration Time (sec): 4.000000E-1
Scans to average: 1
Nonlinearity correction enabled: false
Boxcar width: 0
Storing dark spectrum: false
XAxis mode: Wavelengths
Number of Pixels in Spectrum: 1024
>>>>>Begin Spectral Data<<<<<
801.071	27066
801.214	27093
801.356	26815
801.499	26811
801.641	26670
801.783	26689
801.926	26602
802.068	26583
802.211	26659
802.353	26495
802.496	26385
802.638	26309
802.78	26256
802.923	26278
803.065	26126
803.208	26161
803.35	26396
803.492	26400
803.635	26381
803.777	26461
803.919	26473
804.061	26826
804.204	26549
804.346	26400
804.488	26442
804.63	26461
804.773	26370
804.915	26541
805.057	26636
805.199	26313
805.341	26438
805.483	26457
805.626	26606
805.768	26499
805.91	26587
806.052	26579
806.194	26396
806.336	26724
806.478	26492
806.62	26533
806.762	26785
806.904	26929
807.046	27089
807.188	26971
807.33	26960
807.472	27074
807.614	26948
807.756	26944
807.898	26826
808.04	26796
808.182	26678
808.324	26800
808.465	26804
808.607	27009
808.749	27066
808.891	27264
809.033	27374
809.174	27275
809.316	27036
809.458	27218
809.6	27188
809.741	27302
809.883	27230
810.025	27469
810.166	27462
810.308	27545
810.45	27370
810.591	27184
810.733	27199
810.875	26975
811.016	26979
811.158	27047
811.299	27237
811.441	27393
811.582	27408
811.724	27176
811.865	27184
812.007	27176
812.148	27062
812.29	27108
812.431	27252
812.573	27420
812.714	27667
812.855	27576
812.997	27686
813.138	27720
813.279	27800
813.421	27705
813.562	27580
813.703	27519
813.845	27401
813.986	26933
814.127	26952
814.268	26758
814.41	26777
814.551	26762
814.692	26796
814.833	26868
814.974	26754
815.115	26765
815.256	26644
815.397	26724
815.539	26769
815.68	26461
815.821	26552
815.962	26556
816.103	26541
816.244	26309
816.385	26381
816.526	26286
816.666	26084
816.807	26012
816.948	26138
817.089	26111
817.23	26088
817.371	26103
817.512	26149
817.653	26035
817.793	26043
817.934	26077
818.075	26024
818.216	26039
818.356	26020
818.497	26008
818.638	25830
818.778	25753
818.919	25780
819.06	25833
819.2	26027
819.341	26092
819.481	26012
819.622	26202
819.762	26404
819.903	26286
820.043	26233
820.184	25989
820.324	26126
820.465	26161
820.605	26263
820.746	26202
820.886	26016
821.026	26046
821.167	26073
821.307	26191
821.447	25982
821.588	25826
821.728	25799
821.868	25601
822.008	25559
822.149	25552
822.289	25495
822.429	25251
822.569	25270
822.709	25297
822.849	25126
822.99	25027
823.13	24973
823.27	25012
823.41	24871
823.55	24745
823.69	24886
823.83	24863
823.97	24840
824.11	24719
824.25	24585
824.389	24681
824.529	24692
824.669	24582
824.809	24825
824.949	24749
825.089	24669
825.228	24681
825.368	24528
825.508	24547
825.648	24536
825.787	24479
825.927	24631
826.067	24559
826.206	24544
826.346	24665
826.485	24692
826.625	24467
826.765	24604
826.904	24483
827.044	24277
827.183	24296
827.323	24224
827.462	24258
827.601	24304
827.741	24117
827.88	24205
828.02	24163
828.159	24148
828.298	24308
828.437	24361
828.577	24289
828.716	24270
828.855	24106
828.994	24083
829.134	23950
829.273	24095
829.412	23893
829.551	23843
829.69	24034
829.829	23992
829.968	24011
830.107	24015
830.246	23923
830.385	23916
830.524	23863
830.663	23680
830.802	23760
830.941	23589
831.08	23573
831.219	23604
831.357	23619
831.496	23779
831.635	23581
831.774	23417
831.913	23349
832.051	23387
832.19	23444
832.329	23273
832.467	23239
832.606	23166
832.744	23326
832.883	23166
833.022	23261
833.16	23132
833.299	23360
833.437	23280
833.576	23311
833.714	23296
833.852	23345
833.991	23280
834.129	23425
834.267	23417
834.406	23311
834.544	23364
834.682	23326
834.821	23231
834.959	23490
835.097	23246
835.235	23307
835.373	23265
835.511	23387
835.65	23128
835.788	23166
835.926	22938
836.064	22987
836.202	23090
836.34	23273
836.478	23280
836.615	23052
836.753	23033
836.891	23170
837.029	23258
837.167	23151
837.305	23010
837.443	23064
837.58	23018
837.718	23014
837.856	22972
837.993	22869
838.131	23075
838.269	22869
838.406	22995
838.544	23006
838.681	22771
838.819	22763
838.956	22481
839.094	22630
839.231	22485
839.369	22649
839.506	22934
839.643	22771
839.781	22546
839.918	22367
840.055	22531
840.193	22474
840.33	22466
840.467	22470
840.604	22557
840.742	22653
840.879	22360
841.016	22394
841.153	22379
841.29	22554
841.427	22417
841.564	22508
841.701	22398
841.838	22398
841.975	22318
842.112	22459
842.249	22428
842.385	22379
842.522	22504
842.659	22337
842.796	22173
842.933	22192
843.069	22040
843.206	22230
843.343	22196
843.479	22295
843.616	22162
843.752	22013
843.889	22055
844.025	22143
844.162	21895
844.298	22131
844.435	21873
844.571	21964
844.708	22048
844.844	22207
844.98	22051
845.117	22124
845.253	21899
845.389	21876
845.525	21903
845.661	21907
845.798	21660
845.934	21709
846.07	21595
846.206	21804
846.342	21682
846.478	21679
846.614	21428
846.75	21447
846.886	21443
847.022	21496
847.158	21458
847.294	21370
847.429	21538
847.565	21450
847.701	21679
847.837	21138
847.972	21161
848.108	21279
848.244	21123
848.379	21100
848.515	20929
848.65	20952
848.786	21020
848.921	21119
849.057	21135
849.192	21138
849.328	21100
849.463	21020
849.598	20941
849.734	20861
849.869	20941
850.004	20853
850.14	20910
850.275	20902
850.41	20648
850.545	20830
850.68	20731
850.815	20834
850.95	20731
851.085	20979
851.22	20864
851.355	20842
851.49	20891
851.625	20754
851.76	20876
851.895	20826
852.03	20727
852.165	20819
852.299	20948
852.434	20937
852.569	20823
852.703	20743
852.838	20956
852.973	21020
853.107	20891
853.242	20861
853.376	20598
853.511	20488
853.645	20537
853.78	20781
853.914	20651
854.048	20625
854.183	20629
854.317	20708
854.451	20899
854.585	20590
854.72	20636
854.854	20792
854.988	20674
855.122	20705
855.256	20514
855.39	20613
855.524	20727
855.658	20773
855.792	20762
855.926	20632
856.06	20598
856.194	20819
856.327	20621
856.461	20575
856.595	20583
856.729	20571
856.862	20754
856.996	20735
857.13	20701
857.263	20830
857.397	20762
857.53	20705
857.664	20651
857.797	20659
857.931	20746
858.064	20583
858.197	20716
858.331	20625
858.464	20492
858.597	20530
858.731	20682
858.864	20640
858.997	20743
859.13	20488
859.263	20598
859.396	20727
859.529	20644
859.662	20625
859.795	20632
859.928	20552
860.061	20750
860.194	20785
860.327	20579
860.46	20655
860.592	20781
860.725	20788
860.858	20819
860.99	20583
861.123	20598
861.256	20587
861.388	20545
861.521	21218
861.653	20537
861.786	20461
861.918	20438
862.05	20560
862.183	20678
862.315	20609
862.447	20754
862.58	20530
862.712	20492
862.844	20400
862.976	20419
863.108	20374
863.24	20960
863.372	20271
863.504	20370
863.636	20419
863.768	20366
863.9	20412
864.032	20256
864.164	20298
864.296	20415
864.428	20442
864.559	20541
864.691	20495
864.823	20507
864.954	20385
865.086	20343
865.217	20400
865.349	20130
865.48	20309
865.612	20317
865.743	20377
865.875	20248
866.006	20237
866.137	20248
866.269	20202
866.4	20305
866.531	20244
866.662	20164
866.793	20267
866.924	20240
867.055	20282
867.186	20267
867.317	20134
867.448	20168
867.579	20172
867.71	20256
867.841	20149
867.972	20233
868.103	20317
868.233	20282
868.364	20263
868.495	20351
868.625	20594
868.756	20503
868.886	20377
869.017	20518
869.147	20670
869.278	20530
869.408	20492
869.539	20495
869.669	20552
869.799	20389
869.929	20522
870.06	20469
870.19	20796
870.32	20701
870.45	20823
870.58	20861
870.71	21028
870.84	21024
870.97	20887
871.1	20956
871.23	21093
871.36	20998
871.489	20963
871.619	21055
871.749	21043
871.879	21089
872.008	21245
872.138	21036
872.267	21100
872.397	20986
872.526	20830
872.656	20929
872.785	20868
872.915	21043
873.044	21108
873.173	21074
873.303	21043
873.432	21081
873.561	21252
873.69	21047
873.819	21066
873.948	21192
874.077	21119
874.206	21047
874.335	21100
874.464	21173
874.593	21374
874.722	21291
874.851	21275
874.979	21340
875.108	21428
875.237	21294
875.365	21195
875.494	21241
875.623	21363
875.751	21306
875.88	21329
876.008	21496
876.136	21625
876.265	21724
876.393	21888
876.521	21823
876.65	21850
876.778	21728
876.906	21694
877.034	21644
877.162	21793
877.29	21778
877.418	21785
877.546	21709
877.674	21652
877.802	21652
877.93	21572
878.058	21747
878.185	21500
878.313	21686
878.441	21663
878.568	21485
878.696	21633
878.824	21713
878.951	21842
879.079	21838
879.206	21983
879.333	21804
879.461	21770
879.588	21755
879.715	21857
879.842	21998
879.97	21751
880.097	21557
880.224	21530
880.351	21549
880.478	21435
880.605	21477
880.732	21511
880.859	21656
880.986	21538
881.112	21652
881.239	21405
881.366	21203
881.493	21378
881.619	20998
881.746	21211
881.872	21055
881.999	21093
882.125	21017
882.252	21116
882.378	20941
882.505	21195
882.631	20975
882.757	20796
882.883	20853
883.01	20781
883.136	20613
883.262	20708
883.388	20678
883.514	20921
883.64	20765
883.766	20629
883.892	20590
884.018	20587
884.143	20746
884.269	20849
884.395	20526
884.52	20431
884.646	20511
884.772	20389
884.897	20423
885.023	20488
885.148	20549
885.274	20545
885.399	20507
885.524	20484
885.65	20461
885.775	20575
885.9	20374
886.025	20533
886.15	20518
886.275	20469
886.4	20309
886.525	20427
886.65	20332
886.775	20328
886.9	20488
887.025	20552
887.149	20374
887.274	20218
887.399	20187
887.523	20176
887.648	20130
887.773	20107
887.897	20362
888.021	20164
888.146	20134
888.27	20347
888.395	20301
888.519	20267
888.643	20301
888.767	20149
888.891	20126
889.015	20035
889.139	20058
889.263	20065
889.387	20161
889.511	20282
889.635	20229
889.759	20001
889.883	19917
890.006	20062
890.13	20130
890.254	19982
890.377	19913
890.501	19807
890.624	19803
890.748	19875
890.871	19704
890.995	19578
891.118	19525
891.241	19715
891.364	19590
891.488	19704
891.611	19521
891.734	19605
891.857	19685
891.98	19559
892.103	19594
892.226	19632
892.349	19575
892.471	19411
892.594	19430
892.717	19521
892.839	19537
892.962	19510
893.085	19567
893.207	19601
893.33	19468
893.452	19457
893.575	19620
893.697	19540
893.819	19658
893.941	19772
894.064	19704
894.186	19407
894.308	19422
894.43	19529
894.552	19651
894.674	19499
894.796	19407
894.918	19518
895.04	19476
895.161	19700
895.283	19594
895.405	19529
895.526	19567
895.648	19445
895.769	19457
895.891	19540
896.012	19605
896.134	19533
896.255	19525
896.376	19441
896.498	19510
896.619	19582
896.74	19529
896.861	19677
896.982	19818
897.103	19986
897.224	19784
897.345	19791
897.466	19708
897.587	19753
897.708	19921
897.828	19788
897.949	19658
898.07	19556
898.19	19757
898.311	19837
898.431	19696
898.552	19750
898.672	19875
898.792	19765
898.913	19738
899.033	19677
899.153	19666
899.273	19400
899.393	19468
899.513	19533
899.633	19521
899.753	19578
899.873	19487
899.993	19480
900.113	19400
900.232	19571
900.352	19426
900.472	19403
900.591	19270
900.711	19350
900.83	19213
900.95	19400
901.069	19285
901.189	19202
901.308	19015
901.427	18886
901.546	18890
901.665	18886
901.784	18856
901.904	18757
902.023	18711
902.141	18471
902.26	18452
902.379	18536
902.498	18418
902.617	18350
902.735	18353
902.854	18410
902.973	18270
903.091	18129
903.21	18034
903.328	18243
903.446	18095
903.565	17980
903.683	17923
903.801	17889
903.919	17904
904.038	17748
904.156	17608
904.274	17745
904.392	17684
904.51	17615
904.627	17733
904.745	17570
904.863	17767
904.981	17372
905.098	17429
905.216	17364
905.334	17455
905.451	17349
905.569	17299
905.686	17284
905.803	17299
905.921	17151
906.038	17193
906.155	17265
906.272	16881
906.389	17094
906.506	16972
906.623	16946
906.74	16881
906.857	16736
906.974	16790
907.091	16904
907.208	17014
907.324	16984
907.441	16885
907.557	16664
907.674	16660
907.79	16615
907.907	16512
908.023	16615
908.139	16645
908.256	16485
908.372	16462
908.488	16531
908.604	16325
908.72	16337
908.836	16352
908.952	16284
909.068	16409
909.184	16455
909.3	16390
909.415	16402
909.531	16398
909.647	16082
909.762	16090
909.878	16017
909.993	16002
910.108	15926
910.224	15991
910.339	16002
910.454	15892
910.57	15842
910.685	15705
910.8	16124
910.915	16044
911.03	15804
911.145	15606
911.259	15584
911.374	15614
911.489	15622
911.604	15633
911.718	15405
911.833	15458
911.947	15431
912.062	15272
912.176	15530
912.291	15549
912.405	15439
912.519	15587
912.633	15629
912.748	15412
912.862	15370
912.976	15283
913.09	15173
913.204	15199
913.318	15275
913.431	15420
913.545	15378
913.659	15370
913.772	15264
913.886	14967
914	15123
914.113	15077
914.226	15112
914.34	15173
914.453	14823
914.566	15070
914.68	14967
914.793	14899
914.906	14693
915.019	14651
915.132	14503
915.245	14636
915.358	14514
915.47	14663
915.583	14667
915.696	14663
915.809	14727
915.921	14765
916.034	14632
916.146	14590
916.259	14579
916.371	14644
916.483	14632
916.595	14476
916.708	14454
916.82	14617
916.932	14427
917.044	14374
917.156	14419
917.268	14259
917.38	14301
917.491	14313
917.603	14324
917.715	14328
917.826	14415
917.938	14275
918.049	14233
918.161	14286
918.272	14317
918.384	14351
918.495	14290
918.606	14077
918.717	14065
918.828	14142
918.939	14176
919.05	14043
919.161	14081
919.272	13830
919.383	13925
919.494	14172
919.604	14324
919.715	14100
919.826	14024
919.936	14069
920.047	14077
920.157	14096
920.267	14244
920.378	14016
920.488	13963
920.598	14218
920.708	14400
920.818	14119
920.928	14218
921.038	14298
921.148	14336
921.258	14020
921.368	13940
921.477	13868
921.587	13765
921.697	13696
921.806	13788
921.916	13689
922.025	13537
922.134	13441
922.244	13483
922.353	13445
922.462	13377
922.571	13228
922.68	13160
922.789	13156
922.898	13084
923.007	13046
923.116	13152
923.224	13133
923.333	12981
923.442	12913
923.55	12924
923.659	13008
923.767	12993
923.876	12958
923.984	12973
924.092	12779
924.201	12882
924.309	12871
924.417	12852
924.525	12878
924.633	12867
924.741	13719
924.849	12612
924.956	12677
925.064	12597
925.172	12601
925.279	12486
925.387	12532
925.494	12502
925.602	12642
925.709	12578
925.816	12509
925.924	12502
926.031	12597
926.138	12426
926.245	12627
926.352	12426
926.459	12498
926.566	12547
926.673	12437
926.779	12365
926.886	12235
926.993	12186
927.099	12163
927.206	12011
927.312	12049
927.419	12136
927.525	12091
927.631	12117
927.737	12003
927.843	12007
927.95	11882
928.056	12003
928.162	11977
928.267	11977
928.373	12681
928.479	12041
928.585	11786
928.69	11942
928.796	11859
928.901	11870
929.007	11646
929.112	11813
929.218	11752
929.323	11714
929.428	11680
929.533	11859
929.638	11558
929.743	11726
929.848	11554
929.953	11646
930.058	11562
930.163	11299
930.267	11356
930.372	11524
930.477	11227
930.581	11539
930.685	11322
930.79	11334
930.894	11337
930.998	11197
931.103	11383
931.207	10953
931.311	10965
931.415	10809
931.519	10668
931.623	10672
