Data from test_V78500241_883.txt Node
Date: Fri Mar 25 15:16:00 CST 2022
User: usil
Spectrometer: V785-0024
Trigger mode: 0
Integration Time (sec): 4.000000E-1
Scans to average: 1
Nonlinearity correction enabled: false
Boxcar width: 0
Storing dark spectrum: false
XAxis mode: Wavelengths
Number of Pixels in Spectrum: 1024
>>>>>Begin Spectral Data<<<<<
801.071	28082
801.214	28013
801.356	27812
801.499	27717
801.641	27648
801.783	27568
801.926	27755
802.068	27686
802.211	27485
802.353	27412
802.496	27412
802.638	27264
802.78	27321
802.923	27146
803.065	27355
803.208	27355
803.35	27427
803.492	27458
803.635	27473
803.777	27439
803.919	27488
804.061	27861
804.204	27564
804.346	27401
804.488	27420
804.63	27435
804.773	27389
804.915	27534
805.057	27568
805.199	27587
805.341	27583
805.483	27606
805.626	27781
805.768	27580
805.91	27618
806.052	27724
806.194	27633
806.336	27922
806.478	27774
806.62	27736
806.762	27797
806.904	27941
807.046	28109
807.188	27953
807.33	28181
807.472	28086
807.614	28032
807.756	28032
807.898	27857
808.04	27960
808.182	27937
808.324	28109
808.465	28063
808.607	28059
808.749	28219
808.891	28390
809.033	28405
809.174	28428
809.316	28322
809.458	28428
809.6	28246
809.741	28424
809.883	28379
810.025	28649
810.166	28694
810.308	28603
810.45	28535
810.591	28447
810.733	28360
810.875	28310
811.016	28162
811.158	28196
811.299	28306
811.441	28459
811.582	28459
811.724	28280
811.865	28375
812.007	28352
812.148	28451
812.29	28299
812.431	28523
812.573	28557
812.714	28850
812.855	28927
812.997	28923
813.138	29170
813.279	28923
813.421	28896
813.562	28801
813.703	28641
813.845	28485
813.986	28306
814.127	28177
814.268	27991
814.41	28135
814.551	27873
814.692	28116
814.833	27987
814.974	27949
815.115	28006
815.256	27968
815.397	27922
815.539	27983
815.68	27914
815.821	27873
815.962	27800
816.103	27994
816.244	27656
816.385	27610
816.526	27660
816.666	27580
816.807	27272
816.948	27363
817.089	27424
817.23	27355
817.371	27317
817.512	27435
817.653	27344
817.793	27420
817.934	27496
818.075	27450
818.216	27363
818.356	27458
818.497	27173
818.638	26960
818.778	27032
818.919	27176
819.06	27241
819.2	27264
819.341	27325
819.481	27325
819.622	27462
819.762	27587
819.903	27629
820.043	27618
820.184	27431
820.324	27488
820.465	27443
820.605	27496
820.746	27507
820.886	27214
821.026	27363
821.167	27397
821.307	27622
821.447	27230
821.588	27294
821.728	27081
821.868	27081
822.008	26815
822.149	26815
822.289	26838
822.429	26606
822.569	26507
822.709	26495
822.849	26488
822.99	26438
823.13	26358
823.27	26244
823.41	25978
823.55	26020
823.69	26149
823.83	26081
823.97	26081
824.11	25871
824.25	25883
824.389	25940
824.529	25986
824.669	25909
824.809	26054
824.949	26016
825.089	26221
825.228	26119
825.368	25856
825.508	25833
825.648	25917
825.787	25925
825.927	25902
826.067	25757
826.206	25769
826.346	25921
826.485	25925
826.625	25883
826.765	25982
826.904	26035
827.044	25605
827.183	25563
827.323	25616
827.462	25708
827.601	25586
827.741	25575
827.88	25590
828.02	25419
828.159	25411
828.298	25590
828.437	25479
828.577	25320
828.716	25731
828.855	25506
828.994	25316
829.134	25179
829.273	25396
829.412	25297
829.551	25217
829.69	25198
829.829	25266
829.968	25331
830.107	25369
830.246	25251
830.385	25304
830.524	25251
830.663	25069
830.802	25057
830.941	25046
831.08	24825
831.219	24932
831.357	24985
831.496	25152
831.635	24859
831.774	24661
831.913	24878
832.051	24696
832.19	24688
832.329	24741
832.467	24673
832.606	24711
832.744	24525
832.883	24684
833.022	24612
833.16	24593
833.299	24757
833.437	24650
833.576	24669
833.714	24570
833.852	24776
833.991	24627
834.129	24730
834.267	24760
834.406	24650
834.544	24642
834.682	24650
834.821	24669
834.959	24802
835.097	24502
835.235	24631
835.373	24544
835.511	24669
835.65	24555
835.788	24566
835.926	24353
836.064	24235
836.202	24289
836.34	24536
836.478	24513
836.615	24391
836.753	24525
836.891	24490
837.029	24452
837.167	24437
837.305	24399
837.443	24311
837.58	24327
837.718	24353
837.856	24323
837.993	24251
838.131	24190
838.269	24174
838.406	24228
838.544	24117
838.681	23927
838.819	23908
838.956	23672
839.094	23741
839.231	23824
839.369	23988
839.506	24197
839.643	24083
839.781	23824
839.918	23699
840.055	23828
840.193	23661
840.33	23668
840.467	23665
840.604	23707
840.742	23828
840.879	23516
841.016	23642
841.153	23680
841.29	23779
841.427	23695
841.564	23710
841.701	23566
841.838	23611
841.975	23573
842.112	23771
842.249	23516
842.385	23501
842.522	23592
842.659	23478
842.796	23474
842.933	23360
843.069	23296
843.206	23334
843.343	23482
843.479	23322
843.616	23497
843.752	23193
843.889	23083
844.025	23376
844.162	23151
844.298	23288
844.435	23326
844.571	23071
844.708	23315
844.844	23417
844.98	23292
845.117	23326
845.253	23044
845.389	23105
845.525	23170
845.661	22999
845.798	22919
845.934	23006
846.07	22881
846.206	22946
846.342	23079
846.478	22930
846.614	22603
846.75	22523
846.886	22599
847.022	22733
847.158	22634
847.294	22786
847.429	22679
847.565	22706
847.701	22835
847.837	22436
847.972	22318
848.108	22402
848.244	22432
848.379	22287
848.515	22204
848.65	22230
848.786	22223
848.921	22306
849.057	22337
849.192	22249
849.328	22169
849.463	22196
849.598	22238
849.734	22139
849.869	22101
850.004	22204
850.14	22120
850.275	22017
850.41	21975
850.545	22040
850.68	21975
850.815	22135
850.95	21979
851.085	22154
851.22	22135
851.355	21964
851.49	21998
851.625	22093
851.76	22059
851.895	21960
852.03	21869
852.165	21956
852.299	22017
852.434	22093
852.569	22109
852.703	21895
852.838	22169
852.973	22097
853.107	22150
853.242	21934
853.376	21888
853.511	21766
853.645	21846
853.78	21884
853.914	21808
854.048	21899
854.183	21789
854.317	21892
854.451	22002
854.585	21876
854.72	21857
854.854	21873
854.988	21739
855.122	21907
855.256	21701
855.39	21800
855.524	21899
855.658	21888
855.792	21728
855.926	21797
856.06	21854
856.194	21911
856.327	21823
856.461	21804
856.595	21812
856.729	21857
856.862	21884
856.996	21755
857.13	21865
857.263	21926
857.397	21941
857.53	21884
857.664	21869
857.797	21884
857.931	21865
858.064	21880
858.197	21907
858.331	21804
858.464	21728
858.597	21785
858.731	21968
858.864	21854
858.997	21888
859.13	21911
859.263	21888
859.396	21972
859.529	21842
859.662	21755
859.795	21800
859.928	21819
860.061	21953
860.194	22086
860.327	21808
860.46	21941
860.592	21930
860.725	22097
860.858	21930
860.99	21857
861.123	21720
861.256	21778
861.388	21808
861.521	22508
861.653	21637
861.786	21519
861.918	21694
862.05	21679
862.183	21762
862.315	21694
862.447	21774
862.58	21816
862.712	21542
862.844	21435
862.976	21633
863.108	21572
863.24	22002
863.372	21454
863.504	21572
863.636	21572
863.768	21637
863.9	21568
864.032	21428
864.164	21466
864.296	21660
864.428	21694
864.559	21622
864.691	21591
864.823	21591
864.954	21496
865.086	21466
865.217	21447
865.349	21393
865.48	21488
865.612	21496
865.743	21538
865.875	21507
866.006	21367
866.137	21386
866.269	21363
866.4	21378
866.531	21367
866.662	21336
866.793	21321
866.924	21336
867.055	21389
867.186	21416
867.317	21310
867.448	21389
867.579	21287
867.71	21275
867.841	21233
867.972	21359
868.103	21302
868.233	21431
868.364	21252
868.495	21412
868.625	21542
868.756	21580
868.886	21435
869.017	21561
869.147	21682
869.278	21751
869.408	21751
869.539	21671
869.669	21576
869.799	21614
869.929	21667
870.06	21660
870.19	21926
870.32	21918
870.45	21857
870.58	21918
870.71	22124
870.84	22017
870.97	22040
871.1	21945
871.23	22124
871.36	22185
871.489	22135
871.619	22139
871.749	22230
871.879	22200
872.008	22272
872.138	22215
872.267	22143
872.397	22048
872.526	22063
872.656	21987
872.785	22078
872.915	22287
873.044	22329
873.173	22276
873.303	22234
873.432	22051
873.561	22246
873.69	22238
873.819	22238
873.948	22299
874.077	22120
874.206	22124
874.335	22135
874.464	22261
874.593	22405
874.722	22436
874.851	22299
874.979	22497
875.108	22607
875.237	22462
875.365	22440
875.494	22405
875.623	22550
875.751	22249
875.88	22493
876.008	22478
876.136	22546
876.265	22790
876.393	22995
876.521	22771
876.65	22850
876.778	22828
876.906	22733
877.034	22733
877.162	22672
877.29	22748
877.418	22717
877.546	22736
877.674	22630
877.802	22786
877.93	22824
878.058	22660
878.185	22565
878.313	22809
878.441	22694
878.568	22599
878.696	22713
878.824	22805
878.951	22885
879.079	23029
879.206	23056
879.333	22889
879.461	22752
879.588	22774
879.715	22904
879.842	22968
879.97	22805
880.097	22668
880.224	22580
880.351	22592
880.478	22611
880.605	22596
880.732	22573
880.859	22862
880.986	22493
881.112	22736
881.239	22474
881.366	22360
881.493	22192
881.619	22143
881.746	22257
881.872	22040
881.999	21975
882.125	22093
882.252	22105
882.378	22040
882.505	22223
882.631	21960
882.757	21770
882.883	21888
883.01	21915
883.136	21759
883.262	21591
883.388	21686
883.514	21774
883.64	21861
883.766	21732
883.892	21694
884.018	21690
884.143	21713
884.269	21842
884.395	21572
884.52	21435
884.646	21386
884.772	21298
884.897	21321
885.023	21447
885.148	21530
885.274	21595
885.399	21530
885.524	21496
885.65	21545
885.775	21504
885.9	21424
886.025	21583
886.15	21564
886.275	21473
886.4	21397
886.525	21321
886.65	21370
886.775	21363
886.9	21587
887.025	21610
887.149	21545
887.274	21359
887.399	21298
887.523	21260
887.648	21176
887.773	21161
887.897	21348
888.021	21135
888.146	21169
888.27	21447
888.395	21378
888.519	21283
888.643	21367
888.767	21176
888.891	21085
889.015	21039
889.139	21230
889.263	21089
889.387	21062
889.511	21275
889.635	21287
889.759	21001
889.883	21043
890.006	21028
890.13	21176
890.254	20948
890.377	21005
890.501	20739
890.624	20758
890.748	20811
890.871	20720
890.995	20712
891.118	20651
891.241	20731
891.364	20549
891.488	20682
891.611	20678
891.734	20693
891.857	20552
891.98	20674
892.103	20712
892.226	20606
892.349	20648
892.471	20454
892.594	20556
892.717	20670
892.839	20499
892.962	20560
893.085	20590
893.207	20579
893.33	20450
893.452	20629
893.575	20571
893.697	20351
893.819	20682
893.941	20819
894.064	20598
894.186	20495
894.308	20473
894.43	20549
894.552	20587
894.674	20606
894.796	20450
894.918	20541
895.04	20476
895.161	20621
895.283	20564
895.405	20473
895.526	20495
895.648	20461
895.769	20480
895.891	20598
896.012	20518
896.134	20560
896.255	20484
896.376	20533
896.498	20552
896.619	20636
896.74	20480
896.861	20575
896.982	20777
897.103	20944
897.224	20887
897.345	20689
897.466	20727
897.587	20571
897.708	20830
897.828	20826
897.949	20758
898.07	20545
898.19	20568
898.311	20743
898.431	20697
898.552	20708
898.672	20731
898.792	20720
898.913	20823
899.033	20541
899.153	20495
899.273	20358
899.393	20594
899.513	20427
899.633	20522
899.753	20511
899.873	20514
899.993	20423
900.113	20313
900.232	20408
900.352	20400
900.472	20286
900.591	20172
900.711	20263
900.83	20119
900.95	20351
901.069	20389
901.189	20122
901.308	19940
901.427	19921
901.546	19799
901.665	19814
901.784	19826
901.904	19674
902.023	19689
902.141	19483
902.26	19350
902.379	19491
902.498	19293
902.617	19388
902.735	19343
902.854	19285
902.973	19232
903.091	19088
903.21	18947
903.328	19061
903.446	18878
903.565	18882
903.683	18817
903.801	18711
903.919	18760
904.038	18768
904.156	18555
904.274	18559
904.392	18612
904.51	18544
904.627	18490
904.745	18525
904.863	18669
904.981	18395
905.098	18197
905.216	18205
905.334	18296
905.451	18235
905.569	18205
905.686	18266
905.803	18273
905.921	18034
906.038	18140
906.155	18007
906.272	17847
906.389	17935
906.506	17843
906.623	17764
906.74	17783
906.857	17710
906.974	17657
907.091	17824
907.208	17942
907.324	17764
907.441	17703
907.557	17528
907.674	17516
907.79	17391
907.907	17474
908.023	17573
908.139	17554
908.256	17501
908.372	17318
908.488	17398
908.604	17269
908.72	17170
908.836	17193
908.952	17193
909.068	17178
909.184	17227
909.3	17140
909.415	17216
909.531	17197
909.647	16923
909.762	16938
909.878	16816
909.993	16889
910.108	16847
910.224	16881
910.339	16847
910.454	16889
910.57	16691
910.685	16603
910.8	16946
910.915	16831
911.03	16649
911.145	16542
911.259	16436
911.374	16440
911.489	16356
911.604	16386
911.718	16154
911.833	16291
911.947	16128
912.062	15998
912.176	16169
912.291	16230
912.405	16181
912.519	16379
912.633	16504
912.748	16234
912.862	16223
912.976	16162
913.09	15922
913.204	15983
913.318	16017
913.431	16006
913.545	16131
913.659	16063
913.772	15949
913.886	15899
914	15846
914.113	16025
914.226	15975
914.34	15869
914.453	15732
914.566	15903
914.68	15800
914.793	15698
914.906	15614
915.019	15500
915.132	15485
915.245	15355
915.358	15466
915.47	15606
915.583	15477
915.696	15511
915.809	15530
915.921	15599
916.034	15310
916.146	15405
916.259	15306
916.371	15431
916.483	15378
916.595	15249
916.708	15249
916.82	15325
916.932	15142
917.044	15169
917.156	15192
917.268	15100
917.38	15077
917.491	15055
917.603	15173
917.715	15157
917.826	15051
917.938	15009
918.049	14944
918.161	14960
918.272	15074
918.384	15161
918.495	15070
918.606	14842
918.717	14655
918.828	14948
918.939	14960
919.05	14705
919.161	14830
919.272	14632
919.383	14716
919.494	14921
919.604	14956
919.715	14815
919.826	14594
919.936	14735
920.047	14880
920.157	14727
920.267	14998
920.378	14731
920.488	14735
920.598	14921
920.708	15218
920.818	14895
920.928	14963
921.038	14994
921.148	14971
921.258	14807
921.368	14708
921.477	14545
921.587	14499
921.697	14290
921.806	14511
921.916	14374
922.025	14237
922.134	14199
922.244	14115
922.353	14164
922.462	13963
922.571	13959
922.68	13879
922.789	13738
922.898	13712
923.007	13715
923.116	13860
923.224	13719
923.333	13811
923.442	13620
923.55	13514
923.659	13670
923.767	13693
923.876	13639
923.984	13689
924.092	13559
924.201	13590
924.309	13597
924.417	13510
924.525	13514
924.633	13495
924.741	14229
924.849	13221
924.956	13400
925.064	13255
925.172	13194
925.279	13236
925.387	13194
925.494	13236
925.602	13316
925.709	13190
925.816	13061
925.924	13126
926.031	13183
926.138	13160
926.245	13099
926.352	13080
926.459	13225
926.566	13141
926.673	13053
926.779	12909
926.886	12878
926.993	12741
927.099	12760
927.206	12688
927.312	12764
927.419	12730
927.525	12730
927.631	12791
927.737	12563
927.843	12623
927.95	12464
928.056	12536
928.162	12627
928.267	12616
928.373	13091
928.479	12620
928.585	12365
928.69	12494
928.796	12585
928.901	12365
929.007	12273
929.112	12384
929.218	12289
929.323	12281
929.428	12243
929.533	12395
929.638	12247
929.743	12285
929.848	12296
929.953	12254
930.058	12110
930.163	11996
930.267	11939
930.372	12030
930.477	11878
930.581	12152
930.685	12038
930.79	11843
930.894	11885
930.998	11863
931.103	11923
931.207	11634
931.311	11539
931.415	11444
931.519	11284
931.623	11159
