Data from test_V78500241_2131.txt Node
Date: Fri Mar 25 15:24:41 CST 2022
User: usil
Spectrometer: V785-0024
Trigger mode: 0
Integration Time (sec): 4.000000E-1
Scans to average: 1
Nonlinearity correction enabled: false
Boxcar width: 0
Storing dark spectrum: false
XAxis mode: Wavelengths
Number of Pixels in Spectrum: 1024
>>>>>Begin Spectral Data<<<<<
801.071	27759
801.214	27519
801.356	27511
801.499	27382
801.641	27230
801.783	27287
801.926	27230
802.068	27100
802.211	27116
802.353	27058
802.496	26750
802.638	26807
802.78	26785
802.923	26773
803.065	26724
803.208	26876
803.35	26625
803.492	26830
803.635	27123
803.777	26899
803.919	27013
804.061	27313
804.204	27058
804.346	26975
804.488	26921
804.63	26998
804.773	27020
804.915	26944
805.057	27074
805.199	27127
805.341	27047
805.483	27188
805.626	27112
805.768	27017
805.91	27039
806.052	27249
806.194	26940
806.336	27150
806.478	27043
806.62	27165
806.762	27348
806.904	27279
807.046	27667
807.188	27511
807.33	27652
807.472	27633
807.614	27591
807.756	27447
807.898	27401
808.04	27359
808.182	27340
808.324	27568
808.465	27393
808.607	27580
808.749	27914
808.891	27922
809.033	27918
809.174	27747
809.316	27850
809.458	27835
809.6	27713
809.741	27892
809.883	27861
810.025	27945
810.166	28109
810.308	28082
810.45	27937
810.591	27914
810.733	27656
810.875	27663
811.016	27667
811.158	27507
811.299	27827
811.441	27732
811.582	27850
811.724	27717
811.865	27720
812.007	27652
812.148	27709
812.29	27717
812.431	27907
812.573	28013
812.714	28013
812.855	28242
812.997	28379
813.138	28569
813.279	28348
813.421	28249
813.562	28185
813.703	28120
813.845	27975
813.986	27671
814.127	27709
814.268	27420
814.41	27511
814.551	27553
814.692	27488
814.833	27329
814.974	27359
815.115	27504
815.256	27272
815.397	27321
815.539	27184
815.68	27260
815.821	27218
815.962	27207
816.103	27154
816.244	27005
816.385	26948
816.526	26940
816.666	26670
816.807	26743
816.948	26830
817.089	26602
817.23	26762
817.371	26663
817.512	26609
817.653	26678
817.793	26659
817.934	26678
818.075	26746
818.216	26739
818.356	26545
818.497	26423
818.638	26320
818.778	26476
818.919	26473
819.06	26549
819.2	26537
819.341	26788
819.481	26625
819.622	26754
819.762	27024
819.903	26952
820.043	26746
820.184	26880
820.324	26731
820.465	26735
820.605	26739
820.746	26823
820.886	26682
821.026	26743
821.167	26765
821.307	26796
821.447	26682
821.588	26556
821.728	26537
821.868	26259
822.008	26259
822.149	26073
822.289	26100
822.429	25951
822.569	25826
822.709	25811
822.849	25750
822.99	25601
823.13	25658
823.27	25590
823.41	25392
823.55	25419
823.69	25540
823.83	25411
823.97	25430
824.11	25183
824.25	25187
824.389	25095
824.529	25430
824.669	25327
824.809	25453
824.949	25403
825.089	25415
825.228	25388
825.368	25126
825.508	25145
825.648	25171
825.787	25183
825.927	25213
826.067	25088
826.206	25160
826.346	25190
826.485	25069
826.625	25072
826.765	25221
826.904	25129
827.044	24852
827.183	24954
827.323	24833
827.462	24916
827.601	24802
827.741	24837
827.88	24878
828.02	24753
828.159	24772
828.298	24817
828.437	24886
828.577	24741
828.716	24966
828.855	24730
828.994	24559
829.134	24437
829.273	24525
829.412	24479
829.551	24471
829.69	24601
829.829	24532
829.968	24654
830.107	24677
830.246	24418
830.385	24563
830.524	24563
830.663	24441
830.802	24292
830.941	24201
831.08	24144
831.219	24315
831.357	24186
831.496	24361
831.635	24178
831.774	24174
831.913	24041
832.051	23931
832.19	23977
832.329	24011
832.467	23840
832.606	23813
832.744	23756
832.883	23859
833.022	23821
833.16	23851
833.299	23939
833.437	23874
833.576	23901
833.714	23935
833.852	24015
833.991	24026
834.129	23870
834.267	23946
834.406	23901
834.544	23954
834.682	23935
834.821	23965
834.959	24003
835.097	23786
835.235	24041
835.373	23988
835.511	24026
835.65	23790
835.788	23756
835.926	23573
836.064	23379
836.202	23573
836.34	23699
836.478	23786
836.615	23668
836.753	23836
836.891	23745
837.029	23794
837.167	23551
837.305	23539
837.443	23649
837.58	23642
837.718	23558
837.856	23592
837.993	23551
838.131	23687
838.269	23425
838.406	23474
838.544	23433
838.681	23265
838.819	23250
838.956	23075
839.094	23140
839.231	23204
839.369	23227
839.506	23444
839.643	23341
839.781	23174
839.918	23052
840.055	23060
840.193	22965
840.33	22953
840.467	22949
840.604	23029
840.742	23132
840.879	22896
841.016	22896
841.153	22767
841.29	23010
841.427	22987
841.564	23003
841.701	22957
841.838	22980
841.975	22786
842.112	22877
842.249	22911
842.385	22653
842.522	22949
842.659	22694
842.796	22717
842.933	22679
843.069	22683
843.206	22584
843.343	22854
843.479	22763
843.616	22801
843.752	22531
843.889	22592
844.025	22656
844.162	22500
844.298	22573
844.435	22459
844.571	22394
844.708	22569
844.844	22634
844.98	22573
845.117	22561
845.253	22523
845.389	22348
845.525	22303
845.661	22295
845.798	22306
845.934	22303
846.07	22242
846.206	22238
846.342	22367
846.478	22154
846.614	22070
846.75	21994
846.886	21926
847.022	22078
847.158	21926
847.294	21918
847.429	21998
847.565	21960
847.701	22219
847.837	21743
847.972	21717
848.108	21656
848.244	21652
848.379	21595
848.515	21614
848.65	21523
848.786	21568
848.921	21564
849.057	21587
849.192	21656
849.328	21671
849.463	21538
849.598	21435
849.734	21424
849.869	21363
850.004	21310
850.14	21283
850.275	21408
850.41	21283
850.545	21260
850.68	21332
850.815	21393
850.95	21184
851.085	21526
851.22	21412
851.355	21264
851.49	21268
851.625	21275
851.76	21340
851.895	21146
852.03	21241
852.165	21237
852.299	21351
852.434	21321
852.569	21272
852.703	21241
852.838	21355
852.973	21336
853.107	21412
853.242	21180
853.376	21226
853.511	21093
853.645	21116
853.78	21226
853.914	21112
854.048	21112
854.183	21058
854.317	21108
854.451	21408
854.585	21036
854.72	21165
854.854	21203
854.988	21116
855.122	21108
855.256	21013
855.39	21138
855.524	21256
855.658	21272
855.792	21176
855.926	21180
856.06	21131
856.194	21135
856.327	21055
856.461	21211
856.595	21070
856.729	21066
856.862	21184
856.996	21207
857.13	21272
857.263	21287
857.397	21252
857.53	21142
857.664	21188
857.797	21207
857.931	21249
858.064	21070
858.197	21389
858.331	21142
858.464	21089
858.597	21104
858.731	21062
858.864	21085
858.997	21112
859.13	21180
859.263	21173
859.396	21089
859.529	21146
859.662	21252
859.795	21119
859.928	20990
860.061	21416
860.194	21416
860.327	21123
860.46	21104
860.592	21329
860.725	21233
860.858	21199
860.99	21131
861.123	21096
861.256	21096
861.388	21096
861.521	21884
861.653	21020
861.786	20880
861.918	20933
862.05	21085
862.183	21176
862.315	21074
862.447	21005
862.58	21100
862.712	20796
862.844	20868
862.976	20994
863.108	20842
863.24	21260
863.372	20887
863.504	20899
863.636	20918
863.768	20792
863.9	20857
864.032	20724
864.164	20823
864.296	20773
864.428	21036
864.559	20952
864.691	20925
864.823	20788
864.954	20849
865.086	20857
865.217	20686
865.349	20712
865.48	20781
865.612	20792
865.743	20773
865.875	20674
866.006	20773
866.137	20785
866.269	20823
866.4	20705
866.531	20659
866.662	20746
866.793	20625
866.924	20670
867.055	20579
867.186	20754
867.317	20606
867.448	20579
867.579	20537
867.71	20667
867.841	20648
867.972	20765
868.103	20739
868.233	20792
868.364	20663
868.495	20853
868.625	20956
868.756	20933
868.886	20777
869.017	20933
869.147	20902
869.278	21020
869.408	20910
869.539	20895
869.669	20941
869.799	20941
869.929	21077
870.06	20948
870.19	21283
870.32	21245
870.45	21233
870.58	21306
870.71	21420
870.84	21405
870.97	21310
871.1	21344
871.23	21606
871.36	21481
871.489	21355
871.619	21408
871.749	21454
871.879	21492
872.008	21698
872.138	21412
872.267	21481
872.397	21382
872.526	21287
872.656	21473
872.785	21351
872.915	21583
873.044	21644
873.173	21485
873.303	21583
873.432	21606
873.561	21675
873.69	21534
873.819	21583
873.948	21561
874.077	21564
874.206	21599
874.335	21473
874.464	21633
874.593	21724
874.722	21717
874.851	21850
874.979	21827
875.108	21861
875.237	21774
875.365	21667
875.494	21728
875.623	21816
875.751	21736
875.88	21675
876.008	21861
876.136	21983
876.265	22188
876.393	22242
876.521	22158
876.65	22310
876.778	22265
876.906	22150
877.034	22162
877.162	22109
877.29	22105
877.418	22097
877.546	22093
877.674	22120
877.802	22120
877.93	22059
878.058	21968
878.185	22040
878.313	21991
878.441	22040
878.568	21907
878.696	22051
878.824	22116
878.951	22242
879.079	22257
879.206	22500
879.333	22090
879.461	22093
879.588	22162
879.715	22398
879.842	22500
879.97	22257
880.097	21895
880.224	22021
880.351	21968
880.478	21968
880.605	21804
880.732	21915
880.859	22154
880.986	21975
881.112	21816
881.239	21854
881.366	21648
881.493	21603
881.619	21580
881.746	21492
881.872	21488
881.999	21431
882.125	21389
882.252	21507
882.378	21466
882.505	21587
882.631	21405
882.757	21142
882.883	21359
883.01	21173
883.136	21119
883.262	21066
883.388	21036
883.514	21173
883.64	21287
883.766	21116
883.892	20979
884.018	21070
884.143	21207
884.269	21214
884.395	20899
884.52	20830
884.646	20754
884.772	20754
884.897	20838
885.023	20792
885.148	20937
885.274	21062
885.399	21039
885.524	20895
885.65	20823
885.775	20796
885.9	20925
886.025	20925
886.15	20823
886.275	20880
886.4	20819
886.525	20956
886.65	20807
886.775	20743
886.9	20994
887.025	20998
887.149	20788
887.274	20560
887.399	20613
887.523	20625
887.648	20587
887.773	20537
887.897	20648
888.021	20659
888.146	20465
888.27	20712
888.395	20750
888.519	20644
888.643	20594
888.767	20541
888.891	20503
889.015	20484
889.139	20442
889.263	20469
889.387	20530
889.511	20583
889.635	20575
889.759	20522
889.883	20461
890.006	20415
890.13	20492
890.254	20427
890.377	20351
890.501	20126
890.624	20183
890.748	20134
890.871	20130
890.995	19997
891.118	20020
891.241	19982
891.364	19978
891.488	20008
891.611	20058
891.734	20035
891.857	19970
891.98	20035
892.103	20069
892.226	19932
892.349	19917
892.471	19750
892.594	19944
892.717	19947
892.839	19890
892.962	19902
893.085	19997
893.207	19864
893.33	19830
893.452	19712
893.575	19890
893.697	19875
893.819	20020
893.941	20058
894.064	20096
894.186	19826
894.308	19906
894.43	20065
894.552	20073
894.674	20111
894.796	19799
894.918	19909
895.04	19761
895.161	19963
895.283	19909
895.405	19868
895.526	19868
895.648	19841
895.769	19932
895.891	20058
896.012	19955
896.134	19963
896.255	19894
896.376	19940
896.498	19799
896.619	19909
896.74	19917
896.861	19997
896.982	20142
897.103	20301
897.224	20130
897.345	20142
897.466	19963
897.587	20103
897.708	20214
897.828	20248
897.949	20043
898.07	19909
898.19	20035
898.311	20210
898.431	20077
898.552	20077
898.672	20153
898.792	20092
898.913	20187
899.033	19944
899.153	19894
899.273	19841
899.393	19879
899.513	19978
899.633	19982
899.753	19967
899.873	19849
899.993	19921
900.113	19822
900.232	19906
900.352	19811
900.472	19818
900.591	19609
900.711	19723
900.83	19624
900.95	19814
901.069	19860
901.189	19586
901.308	19278
901.427	19152
901.546	19308
901.665	19278
901.784	19194
901.904	19065
902.023	19168
902.141	18890
902.26	18684
902.379	18886
902.498	18726
902.617	18745
902.735	18787
902.854	18677
902.973	18696
903.091	18506
903.21	18506
903.328	18403
903.446	18391
903.565	18243
903.683	18338
903.801	18182
903.919	18209
904.038	18216
904.156	17988
904.274	18098
904.392	18007
904.51	18019
904.627	18038
904.745	17954
904.863	17977
904.981	17851
905.098	17699
905.216	17665
905.334	17752
905.451	17729
905.569	17752
905.686	17741
905.803	17600
905.921	17497
906.038	17551
906.155	17661
906.272	17417
906.389	17436
906.506	17235
906.623	17299
906.74	17280
906.857	17094
906.974	17117
907.091	17212
907.208	17299
907.324	17322
907.441	17109
907.557	17056
907.674	16915
907.79	16915
907.907	16934
908.023	16934
908.139	16923
908.256	16885
908.372	16904
908.488	16729
908.604	16759
908.72	16637
908.836	16706
908.952	16630
909.068	16683
909.184	16809
909.3	16653
909.415	16694
909.531	16691
909.647	16398
909.762	16428
909.878	16447
909.993	16424
910.108	16257
910.224	16310
910.339	16398
910.454	16257
910.57	16116
910.685	16135
910.8	16284
910.915	16371
911.03	16226
911.145	15991
911.259	15960
911.374	15941
911.489	15941
911.604	15785
911.718	15705
911.833	15686
911.947	15667
912.062	15485
912.176	15625
912.291	15667
912.405	15759
912.519	15937
912.633	15800
912.748	15797
912.862	15755
912.976	15557
913.09	15420
913.204	15443
913.318	15549
913.431	15644
913.545	15545
913.659	15523
913.772	15408
913.886	15424
914	15363
914.113	15397
914.226	15477
914.34	15405
914.453	15310
914.566	15359
914.68	15256
914.793	15135
914.906	15036
915.019	15028
915.132	14872
915.245	15020
915.358	15039
915.47	14944
915.583	14895
915.696	14952
915.809	15032
915.921	15062
916.034	14982
916.146	14887
916.259	14769
916.371	14921
916.483	15013
916.595	14819
916.708	14792
916.82	14845
916.932	14697
917.044	14769
917.156	14720
917.268	14640
917.38	14712
917.491	14617
917.603	14632
917.715	14655
917.826	14785
917.938	14606
918.049	14473
918.161	14530
918.272	14697
918.384	14743
918.495	14587
918.606	14461
918.717	14404
918.828	14442
918.939	14423
919.05	14218
919.161	14332
919.272	14180
919.383	14244
919.494	14484
919.604	14568
919.715	14309
919.826	14324
919.936	14317
920.047	14495
920.157	14404
920.267	14541
920.378	14317
920.488	14393
920.598	14541
920.708	14571
920.818	14385
920.928	14393
921.038	14651
921.148	14568
921.258	14332
921.368	14259
921.477	14081
921.587	14077
921.697	14012
921.806	14058
921.916	13906
922.025	13715
922.134	13826
922.244	13693
922.353	13833
922.462	13624
922.571	13552
922.68	13464
922.789	13384
922.898	13369
923.007	13335
923.116	13396
923.224	13346
923.333	13327
923.442	13285
923.55	13213
923.659	13263
923.767	13282
923.876	13187
923.984	13255
924.092	13080
924.201	13141
924.309	13187
924.417	13084
924.525	12989
924.633	13076
924.741	13833
924.849	12863
924.956	13000
925.064	12852
925.172	12757
925.279	12753
925.387	12821
925.494	12817
925.602	12947
925.709	12837
925.816	12700
925.924	12734
926.031	12821
926.138	12753
926.245	12757
926.352	12719
926.459	12757
926.566	12791
926.673	12658
926.779	12620
926.886	12631
926.993	12494
927.099	12414
927.206	12296
927.312	12315
927.419	12471
927.525	12384
927.631	12365
927.737	12289
927.843	12220
927.95	12102
928.056	12220
928.162	12201
928.267	12239
928.373	12814
928.479	12281
928.585	11996
928.69	12163
928.796	12262
928.901	12003
929.007	11961
929.112	12049
929.218	11973
929.323	12026
929.428	11836
929.533	12038
929.638	11874
929.743	11889
929.848	11969
929.953	11897
930.058	11836
930.163	11630
930.267	11668
930.372	11794
930.477	11551
930.581	11889
930.685	11684
930.79	11524
930.894	11558
930.998	11501
931.103	11615
931.207	11223
931.311	11223
931.415	11079
931.519	10915
931.623	10873
