Data from test_V78500241_903.txt Node
Date: Fri Mar 25 15:16:08 CST 2022
User: usil
Spectrometer: V785-0024
Trigger mode: 0
Integration Time (sec): 4.000000E-1
Scans to average: 1
Nonlinearity correction enabled: false
Boxcar width: 0
Storing dark spectrum: false
XAxis mode: Wavelengths
Number of Pixels in Spectrum: 1024
>>>>>Begin Spectral Data<<<<<
801.071	28322
801.214	28093
801.356	27960
801.499	27945
801.641	27747
801.783	27751
801.926	27873
802.068	27751
802.211	27663
802.353	27652
802.496	27386
802.638	27397
802.78	27287
802.923	27332
803.065	27511
803.208	27351
803.35	27412
803.492	27603
803.635	27580
803.777	27724
803.919	27751
804.061	27934
804.204	27778
804.346	27454
804.488	27515
804.63	27675
804.773	27454
804.915	27641
805.057	27808
805.199	27576
805.341	27747
805.483	27846
805.626	27751
805.768	27572
805.91	27895
806.052	27736
806.194	27831
806.336	27960
806.478	27869
806.62	27941
806.762	27979
806.904	28059
807.046	28382
807.188	28078
807.33	28219
807.472	28036
807.614	28181
807.756	28223
807.898	28230
808.04	28097
808.182	27991
808.324	28188
808.465	28105
808.607	28215
808.749	28386
808.891	28516
809.033	28516
809.174	28352
809.316	28375
809.458	28421
809.6	28424
809.741	28580
809.883	28550
810.025	28653
810.166	28721
810.308	28790
810.45	28694
810.591	28660
810.733	28588
810.875	28527
811.016	28246
811.158	28409
811.299	28634
811.441	28561
811.582	28626
811.724	28440
811.865	28379
812.007	28478
812.148	28500
812.29	28588
812.431	28554
812.573	28801
812.714	28934
812.855	28961
812.997	29132
813.138	29181
813.279	29113
813.421	29090
813.562	29022
813.703	28862
813.845	28774
813.986	28405
814.127	28299
814.268	28169
814.41	28200
814.551	28173
814.692	28257
814.833	28120
814.974	28230
815.115	28192
815.256	28063
815.397	27994
815.539	27983
815.68	28074
815.821	27914
815.962	27991
816.103	28010
816.244	27857
816.385	27781
816.526	27781
816.666	27591
816.807	27382
816.948	27523
817.089	27781
817.23	27542
817.371	27473
817.512	27519
817.653	27504
817.793	27519
817.934	27519
818.075	27545
818.216	27564
818.356	27355
818.497	27344
818.638	27245
818.778	27184
818.919	27298
819.06	27378
819.2	27256
819.341	27610
819.481	27500
819.622	27606
819.762	27937
819.903	27762
820.043	27652
820.184	27641
820.324	27561
820.465	27732
820.605	27762
820.746	27663
820.886	27435
821.026	27553
821.167	27610
821.307	27663
821.447	27450
821.588	27332
821.728	27313
821.868	27260
822.008	27055
822.149	26910
822.289	26887
822.429	26644
822.569	26743
822.709	26613
822.849	26465
822.99	26511
823.13	26446
823.27	26366
823.41	26381
823.55	26180
823.69	26396
823.83	26191
823.97	26282
824.11	26107
824.25	26263
824.389	26027
824.529	26248
824.669	26233
824.809	26282
824.949	26256
825.089	26130
825.228	26187
825.368	26020
825.508	26043
825.648	25955
825.787	26031
825.927	26058
826.067	26088
826.206	26088
826.346	25947
826.485	25883
826.625	25921
826.765	26065
826.904	26142
827.044	25875
827.183	25814
827.323	25746
827.462	25746
827.601	25784
827.741	25658
827.88	25746
828.02	25670
828.159	25670
828.298	25746
828.437	25887
828.577	25655
828.716	25860
828.855	25651
828.994	25468
829.134	25453
829.273	25540
829.412	25434
829.551	25491
829.69	25499
829.829	25384
829.968	25434
830.107	25495
830.246	25426
830.385	25449
830.524	25304
830.663	25247
830.802	25099
830.941	24985
831.08	24992
831.219	25228
831.357	25046
831.496	25266
831.635	25091
831.774	24905
831.913	24970
832.051	24825
832.19	24962
832.329	24909
832.467	24814
832.606	24578
832.744	24650
832.883	24696
833.022	24745
833.16	24798
833.299	24760
833.437	24814
833.576	24757
833.714	24848
833.852	24890
833.991	24890
834.129	24882
834.267	24779
834.406	24837
834.544	24852
834.682	24650
834.821	24734
834.959	24962
835.097	24631
835.235	24821
835.373	24760
835.511	24817
835.65	24688
835.788	24574
835.926	24513
836.064	24513
836.202	24456
836.34	24570
836.478	24582
836.615	24555
836.753	24570
836.891	24623
837.029	24722
837.167	24525
837.305	24566
837.443	24475
837.58	24353
837.718	24741
837.856	24597
837.993	24433
838.131	24372
838.269	24334
838.406	24410
838.544	24243
838.681	24148
838.819	24159
838.956	23904
839.094	23901
839.231	24030
839.369	24079
839.506	24308
839.643	24308
839.781	23859
839.918	23965
840.055	23950
840.193	23870
840.33	23802
840.467	23897
840.604	23779
840.742	24152
840.879	23741
841.016	23756
841.153	23687
841.29	23897
841.427	23855
841.564	23878
841.701	23756
841.838	23882
841.975	23771
842.112	23707
842.249	23589
842.385	23570
842.522	23771
842.659	23710
842.796	23570
842.933	23570
843.069	23551
843.206	23425
843.343	23547
843.479	23566
843.616	23649
843.752	23349
843.889	23364
844.025	23531
844.162	23334
844.298	23353
844.435	23387
844.571	23322
844.708	23356
844.844	23452
844.98	23482
845.117	23505
845.253	23391
845.389	23299
845.525	23353
845.661	23296
845.798	23018
845.934	23086
846.07	23052
846.206	23105
846.342	23200
846.478	23056
846.614	22843
846.75	22767
846.886	22790
847.022	22904
847.158	22930
847.294	22968
847.429	22904
847.565	22778
847.701	23064
847.837	22508
847.972	22557
848.108	22782
848.244	22577
848.379	22325
848.515	22436
848.65	22306
848.786	22455
848.921	22569
849.057	22588
849.192	22504
849.328	22531
849.463	22409
849.598	22215
849.734	22417
849.869	22173
850.004	22150
850.14	22329
850.275	22196
850.41	22242
850.545	22196
850.68	22124
850.815	22211
850.95	22200
851.085	22341
851.22	22287
851.355	22093
851.49	22101
851.625	22063
851.76	22143
851.895	22055
852.03	22090
852.165	22131
852.299	22048
852.434	22120
852.569	22276
852.703	22295
852.838	22158
852.973	22253
853.107	22306
853.242	22044
853.376	21979
853.511	21953
853.645	21979
853.78	22112
853.914	22025
854.048	21888
854.183	21983
854.317	22063
854.451	22124
854.585	21979
854.72	21964
854.854	22124
854.988	21987
855.122	21960
855.256	21911
855.39	21930
855.524	22021
855.658	22078
855.792	21960
855.926	21949
856.06	22135
856.194	22013
856.327	21960
856.461	21987
856.595	21838
856.729	21835
856.862	22063
856.996	22128
857.13	22025
857.263	22059
857.397	21994
857.53	22032
857.664	21991
857.797	22002
857.931	22147
858.064	21994
858.197	22135
858.331	21983
858.464	22055
858.597	21865
858.731	21915
858.864	21846
858.997	21991
859.13	21884
859.263	21972
859.396	22097
859.529	22090
859.662	22025
859.795	21857
859.928	21949
860.061	22139
860.194	22093
860.327	22105
860.46	22086
860.592	22188
860.725	22093
860.858	22112
860.99	22070
861.123	21964
861.256	21918
861.388	22013
861.521	22771
861.653	21907
861.786	21736
861.918	21873
862.05	21918
862.183	21991
862.315	21869
862.447	22051
862.58	22025
862.712	21800
862.844	21488
862.976	21728
863.108	21728
863.24	22044
863.372	21568
863.504	21633
863.636	21599
863.768	21739
863.9	21720
864.032	21534
864.164	21625
864.296	21732
864.428	21656
864.559	21759
864.691	21774
864.823	21709
864.954	21557
865.086	21641
865.217	21606
865.349	21549
865.48	21633
865.612	21485
865.743	21690
865.875	21618
866.006	21572
866.137	21534
866.269	21511
866.4	21587
866.531	21542
866.662	21466
866.793	21530
866.924	21515
867.055	21500
867.186	21545
867.317	21466
867.448	21424
867.579	21408
867.71	21393
867.841	21572
867.972	21530
868.103	21572
868.233	21477
868.364	21542
868.495	21561
868.625	21694
868.756	21827
868.886	21759
869.017	21732
869.147	21789
869.278	21800
869.408	21751
869.539	21675
869.669	21865
869.799	21789
869.929	21895
870.06	21888
870.19	21983
870.32	22051
870.45	22105
870.58	22226
870.71	22200
870.84	22310
870.97	22074
871.1	22093
871.23	22223
871.36	22242
871.489	22265
871.619	22363
871.749	22405
871.879	22215
872.008	22443
872.138	22413
872.267	22443
872.397	22166
872.526	22093
872.656	22036
872.785	22147
872.915	22226
873.044	22363
873.173	22310
873.303	22402
873.432	22360
873.561	22516
873.69	22371
873.819	22386
873.948	22474
874.077	22360
874.206	22325
874.335	22272
874.464	22398
874.593	22607
874.722	22474
874.851	22611
874.979	22664
875.108	22599
875.237	22508
875.365	22550
875.494	22554
875.623	22611
875.751	22512
875.88	22615
876.008	22683
876.136	22694
876.265	22949
876.393	23102
876.521	22987
876.65	23003
876.778	22908
876.906	22938
877.034	22919
877.162	22790
877.29	22885
877.418	22915
877.546	22987
877.674	22786
877.802	22847
877.93	22987
878.058	22778
878.185	22938
878.313	22801
878.441	22961
878.568	22774
878.696	22805
878.824	22877
878.951	23029
879.079	23098
879.206	23280
879.333	23041
879.461	22892
879.588	23086
879.715	23117
879.842	23242
879.97	22976
880.097	22755
880.224	22774
880.351	22831
880.478	22687
880.605	22828
880.732	22809
880.859	22896
880.986	22683
881.112	22733
881.239	22489
881.366	22447
881.493	22363
881.619	22337
881.746	22379
881.872	22318
881.999	22268
882.125	22272
882.252	22181
882.378	22306
882.505	22306
882.631	22192
882.757	22021
882.883	21968
883.01	22002
883.136	21991
883.262	21812
883.388	21949
883.514	22097
883.64	22010
883.766	21895
883.892	21884
884.018	21827
884.143	21968
884.269	21972
884.395	21667
884.52	21610
884.646	21667
884.772	21507
884.897	21530
885.023	21610
885.148	21648
885.274	21682
885.399	21671
885.524	21629
885.65	21530
885.775	21652
885.9	21595
886.025	21743
886.15	21698
886.275	21603
886.4	21618
886.525	21477
886.65	21549
886.775	21439
886.9	21797
887.025	21827
887.149	21572
887.274	21382
887.399	21416
887.523	21291
887.648	21344
887.773	21359
887.897	21378
888.021	21382
888.146	21401
888.27	21401
888.395	21431
888.519	21660
888.643	21389
888.767	21359
888.891	21218
889.015	21192
889.139	21329
889.263	21100
889.387	21298
889.511	21325
889.635	21272
889.759	21180
889.883	21108
890.006	21256
890.13	21237
890.254	21116
890.377	21093
890.501	20948
890.624	21005
890.748	21017
890.871	20834
890.995	20716
891.118	20689
891.241	20746
891.364	20880
891.488	20902
891.611	20796
891.734	20720
891.857	20845
891.98	20716
892.103	20724
892.226	20686
892.349	20712
892.471	20651
892.594	20575
892.717	20640
892.839	20583
892.962	20583
893.085	20651
893.207	20632
893.33	20549
893.452	20522
893.575	20606
893.697	20526
893.819	20686
893.941	20887
894.064	20727
894.186	20598
894.308	20720
894.43	20659
894.552	20804
894.674	20648
894.796	20514
894.918	20598
895.04	20606
895.161	20743
895.283	20594
895.405	20568
895.526	20587
895.648	20590
895.769	20598
895.891	20636
896.012	20625
896.134	20655
896.255	20495
896.376	20659
896.498	20552
896.619	20765
896.74	20476
896.861	20651
896.982	20834
897.103	21074
897.224	20975
897.345	20762
897.466	20815
897.587	20807
897.708	20963
897.828	20807
897.949	20765
898.07	20670
898.19	20689
898.311	20861
898.431	20735
898.552	20826
898.672	20773
898.792	20960
898.913	20906
899.033	20632
899.153	20617
899.273	20518
899.393	20583
899.513	20659
899.633	20629
899.753	20564
899.873	20473
899.993	20533
900.113	20465
900.232	20587
900.352	20571
900.472	20385
900.591	20195
900.711	20294
900.83	20278
900.95	20320
901.069	20526
901.189	20195
901.308	19982
901.427	19830
901.546	19833
901.665	19902
901.784	19947
901.904	19704
902.023	19708
902.141	19499
902.26	19384
902.379	19651
902.498	19407
902.617	19384
902.735	19521
902.854	19419
902.973	19331
903.091	19004
903.21	19129
903.328	18970
903.446	18989
903.565	18886
903.683	18848
903.801	18844
903.919	18909
904.038	18802
904.156	18669
904.274	18658
904.392	18631
904.51	18673
904.627	18547
904.745	18673
904.863	18677
904.981	18498
905.098	18251
905.216	18281
905.334	18372
905.451	18376
905.569	18232
905.686	18365
905.803	18213
905.921	18159
906.038	18110
906.155	18194
906.272	17973
906.389	17927
906.506	17840
906.623	17836
906.74	17794
906.857	17691
906.974	17828
907.091	17920
907.208	18019
907.324	17790
907.441	17745
907.557	17577
907.674	17558
907.79	17528
907.907	17516
908.023	17566
908.139	17611
908.256	17528
908.372	17471
908.488	17444
908.604	17307
908.72	17326
908.836	17239
908.952	17212
909.068	17254
909.184	17509
909.3	17364
909.415	17193
909.531	17239
909.647	16991
909.762	17060
909.878	16949
909.993	17056
910.108	16976
910.224	16839
910.339	16927
910.454	16854
910.57	16782
910.685	16626
910.8	16999
910.915	16930
911.03	16828
911.145	16641
911.259	16512
911.374	16596
911.489	16569
911.604	16394
911.718	16367
911.833	16344
911.947	16249
912.062	16101
912.176	16291
912.291	16310
912.405	16284
912.519	16390
912.633	16447
912.748	16405
912.862	16246
912.976	16166
913.09	16074
913.204	16086
913.318	16166
913.431	16215
913.545	16177
913.659	16150
913.772	16074
913.886	15941
914	15895
914.113	15918
914.226	15964
914.34	15945
914.453	15759
914.566	15911
914.68	15819
914.793	15766
914.906	15458
915.019	15523
915.132	15504
915.245	15393
915.358	15462
915.47	15507
915.583	15511
915.696	15618
915.809	15580
915.921	15675
916.034	15462
916.146	15458
916.259	15428
916.371	15481
916.483	15420
916.595	15310
916.708	15393
916.82	15272
916.932	15291
917.044	15245
917.156	15279
917.268	15173
917.38	15188
917.491	15180
917.603	15138
917.715	15226
917.826	15173
917.938	15112
918.049	14975
918.161	15066
918.272	15275
918.384	15192
918.495	15100
918.606	14975
918.717	14769
918.828	14842
918.939	14918
919.05	14815
919.161	14800
919.272	14678
919.383	14788
919.494	15036
919.604	14963
919.715	14880
919.826	14727
919.936	14765
920.047	14933
920.157	14830
920.267	15039
920.378	14819
920.488	14830
920.598	14979
920.708	15138
920.818	14853
920.928	14937
921.038	15062
921.148	15024
921.258	14815
921.368	14750
921.477	14583
921.587	14564
921.697	14419
921.806	14644
921.916	14454
922.025	14237
922.134	14206
922.244	14149
922.353	14298
922.462	14062
922.571	13936
922.68	13906
922.789	13856
922.898	13788
923.007	13803
923.116	13871
923.224	13947
923.333	13738
923.442	13719
923.55	13731
923.659	13658
923.767	13734
923.876	13609
923.984	13822
924.092	13586
924.201	13677
924.309	13651
924.417	13578
924.525	13540
924.633	13525
924.741	14229
924.849	13289
924.956	13457
925.064	13228
925.172	13103
925.279	13240
925.387	13247
925.494	13381
925.602	13369
925.709	13289
925.816	13198
925.924	13175
926.031	13194
926.138	13160
926.245	13206
926.352	13095
926.459	13171
926.566	13255
926.673	13061
926.779	13114
926.886	12954
926.993	12833
927.099	12825
927.206	12776
927.312	12749
927.419	12825
927.525	12829
927.631	12871
927.737	12719
927.843	12696
927.95	12551
928.056	12631
928.162	12612
928.267	12612
928.373	13232
928.479	12696
928.585	12395
928.69	12620
928.796	12601
928.901	12490
929.007	12311
929.112	12467
929.218	12483
929.323	12369
929.428	12266
929.533	12410
929.638	12254
929.743	12243
929.848	12334
929.953	12258
930.058	12163
930.163	12022
930.267	12030
930.372	12155
930.477	11946
930.581	12178
930.685	12091
930.79	11927
930.894	11912
930.998	11939
931.103	12045
931.207	11627
931.311	11600
931.415	11444
931.519	11299
931.623	11239
