Data from test_V78500241_743.txt Node
Date: Fri Mar 25 15:15:01 CST 2022
User: usil
Spectrometer: V785-0024
Trigger mode: 0
Integration Time (sec): 4.000000E-1
Scans to average: 1
Nonlinearity correction enabled: false
Boxcar width: 0
Storing dark spectrum: false
XAxis mode: Wavelengths
Number of Pixels in Spectrum: 1024
>>>>>Begin Spectral Data<<<<<
801.071	27485
801.214	27268
801.356	27169
801.499	27169
801.641	27028
801.783	26876
801.926	27108
802.068	27009
802.211	26815
802.353	26781
802.496	26663
802.638	26659
802.78	26716
802.923	26667
803.065	26575
803.208	26617
803.35	26606
803.492	26701
803.635	26746
803.777	26606
803.919	26773
804.061	26899
804.204	26804
804.346	26712
804.488	26754
804.63	26849
804.773	26705
804.915	26754
805.057	26712
805.199	26746
805.341	26864
805.483	26937
805.626	26857
805.768	26819
805.91	26842
806.052	26845
806.194	26834
806.336	27013
806.478	26963
806.62	26952
806.762	27100
806.904	27154
807.046	27431
807.188	27218
807.33	27203
807.472	27336
807.614	27199
807.756	27302
807.898	27100
808.04	27245
808.182	27195
808.324	27264
808.465	27348
808.607	27321
808.749	27526
808.891	27736
809.033	27667
809.174	27675
809.316	27538
809.458	27504
809.6	27599
809.741	27576
809.883	27614
810.025	27880
810.166	27888
810.308	27972
810.45	27838
810.591	27793
810.733	27610
810.875	27401
811.016	27363
811.158	27443
811.299	27553
811.441	27785
811.582	27633
811.724	27557
811.865	27435
812.007	27393
812.148	27492
812.29	27682
812.431	27614
812.573	27819
812.714	28025
812.855	28109
812.997	28166
813.138	28310
813.279	28135
813.421	28124
813.562	28090
813.703	27918
813.845	27914
813.986	27458
814.127	27370
814.268	27378
814.41	27488
814.551	27245
814.692	27325
814.833	27138
814.974	27173
815.115	27214
815.256	27150
815.397	26990
815.539	27116
815.68	26948
815.821	26982
815.962	27036
816.103	27074
816.244	26948
816.385	26906
816.526	26807
816.666	26552
816.807	26602
816.948	26568
817.089	26720
817.23	26648
817.371	26446
817.512	26552
817.653	26602
817.793	26434
817.934	26526
818.075	26450
818.216	26511
818.356	26564
818.497	26480
818.638	26237
818.778	26225
818.919	26221
819.06	26301
819.2	26275
819.341	26469
819.481	26396
819.622	26575
819.762	26792
819.903	26739
820.043	26670
820.184	26678
820.324	26667
820.465	26632
820.605	26667
820.746	26568
820.886	26332
821.026	26473
821.167	26552
821.307	26613
821.447	26514
821.588	26366
821.728	26294
821.868	26130
822.008	25940
822.149	25879
822.289	25845
822.429	25807
822.569	25609
822.709	25674
822.849	25415
822.99	25472
823.13	25415
823.27	25312
823.41	25171
823.55	25141
823.69	25476
823.83	25217
823.97	25202
824.11	25057
824.25	24985
824.389	25133
824.529	25236
824.669	25126
824.809	25343
824.949	25217
825.089	25179
825.228	25171
825.368	25129
825.508	24970
825.648	25050
825.787	24992
825.927	25107
826.067	24920
826.206	24985
826.346	25046
826.485	24924
826.625	24909
826.765	25027
826.904	25038
827.044	24696
827.183	24783
827.323	24540
827.462	24764
827.601	24566
827.741	24654
827.88	24779
828.02	24639
828.159	24612
828.298	24623
828.437	24677
828.577	24471
828.716	24719
828.855	24612
828.994	24418
829.134	24353
829.273	24388
829.412	24369
829.551	24346
829.69	24330
829.829	24403
829.968	24536
830.107	24456
830.246	24407
830.385	24323
830.524	24247
830.663	24201
830.802	24038
830.941	24018
831.08	23961
831.219	23870
831.357	24038
831.496	24174
831.635	23912
831.774	23889
831.913	23802
832.051	23809
832.19	23767
832.329	23874
832.467	23653
832.606	23661
832.744	23535
832.883	23748
833.022	23665
833.16	23661
833.299	23718
833.437	23710
833.576	23821
833.714	23653
833.852	23657
833.991	23771
834.129	23729
834.267	23824
834.406	23756
834.544	23824
834.682	23649
834.821	23665
834.959	23904
835.097	23726
835.235	23729
835.373	23566
835.511	23703
835.65	23562
835.788	23478
835.926	23391
836.064	23452
836.202	23554
836.34	23531
836.478	23608
836.615	23493
836.753	23509
836.891	23718
837.029	23627
837.167	23562
837.305	23425
837.443	23520
837.58	23299
837.718	23421
837.856	23417
837.993	23307
838.131	23433
838.269	23315
838.406	23288
838.544	23258
838.681	23128
838.819	23006
838.956	22934
839.094	22752
839.231	22957
839.369	22999
839.506	23330
839.643	23124
839.781	22961
839.918	22782
840.055	22866
840.193	22736
840.33	22721
840.467	22820
840.604	22835
840.742	23083
840.879	22683
841.016	22725
841.153	22694
841.29	22991
841.427	22740
841.564	22919
841.701	22809
841.838	22702
841.975	22649
842.112	22733
842.249	22588
842.385	22504
842.522	22668
842.659	22706
842.796	22592
842.933	22546
843.069	22470
843.206	22409
843.343	22721
843.479	22497
843.616	22603
843.752	22413
843.889	22299
844.025	22516
844.162	22344
844.298	22242
844.435	22394
844.571	22322
844.708	22382
844.844	22466
844.98	22470
845.117	22379
845.253	22280
845.389	22192
845.525	22223
845.661	22223
845.798	21998
845.934	22314
846.07	22017
846.206	22109
846.342	22257
846.478	21972
846.614	21831
846.75	21698
846.886	21701
847.022	21983
847.158	21895
847.294	21915
847.429	21987
847.565	21831
847.701	22078
847.837	21424
847.972	21511
848.108	21660
848.244	21671
848.379	21416
848.515	21389
848.65	21397
848.786	21473
848.921	21408
849.057	21393
849.192	21523
849.328	21370
849.463	21363
849.598	21325
849.734	21283
849.869	21252
850.004	21058
850.14	21283
850.275	21237
850.41	21062
850.545	21032
850.68	21017
850.815	21146
850.95	21116
851.085	21389
851.22	21233
851.355	21131
851.49	21123
851.625	21028
851.76	21055
851.895	21017
852.03	21032
852.165	21146
852.299	21085
852.434	21344
852.569	21180
852.703	21093
852.838	21294
852.973	21241
853.107	21180
853.242	21195
853.376	20944
853.511	20773
853.645	20982
853.78	21173
853.914	21028
854.048	20887
854.183	20845
854.317	20937
854.451	21135
854.585	21032
854.72	21135
854.854	20975
854.988	20872
855.122	21001
855.256	20906
855.39	20933
855.524	20990
855.658	20990
855.792	20971
855.926	21009
856.06	21058
856.194	21039
856.327	20845
856.461	20853
856.595	20891
856.729	21020
856.862	21043
856.996	21028
857.13	21074
857.263	20967
857.397	21135
857.53	21001
857.664	21066
857.797	21066
857.931	21043
858.064	20998
858.197	21066
858.331	20921
858.464	20823
858.597	20929
858.731	20872
858.864	21001
858.997	21017
859.13	21009
859.263	20891
859.396	21062
859.529	20929
859.662	20906
859.795	20929
859.928	21032
860.061	21104
860.194	21180
860.327	20880
860.46	20925
860.592	20971
860.725	21096
860.858	21055
860.99	20807
861.123	20929
861.256	20963
861.388	20899
861.521	21701
861.653	20842
861.786	20807
861.918	20857
862.05	20883
862.183	20941
862.315	20948
862.447	20925
862.58	20807
862.712	20750
862.844	20602
862.976	20872
863.108	20731
863.24	21051
863.372	20625
863.504	20769
863.636	20682
863.768	20746
863.9	20636
864.032	20636
864.164	20705
864.296	20819
864.428	20800
864.559	20800
864.691	20819
864.823	20701
864.954	20678
865.086	20648
865.217	20590
865.349	20492
865.48	20568
865.612	20705
865.743	20720
865.875	20518
866.006	20533
866.137	20651
866.269	20583
866.4	20526
866.531	20461
866.662	20427
866.793	20415
866.924	20537
867.055	20461
867.186	20537
867.317	20568
867.448	20450
867.579	20537
867.71	20450
867.841	20438
867.972	20522
868.103	20461
868.233	20450
868.364	20636
868.495	20613
868.625	20750
868.756	20781
868.886	20651
869.017	20788
869.147	20796
869.278	20849
869.408	20804
869.539	20861
869.669	20788
869.799	20796
869.929	20895
870.06	20785
870.19	21131
870.32	21017
870.45	21081
870.58	21150
870.71	21203
870.84	21180
870.97	21154
871.1	21176
871.23	21310
871.36	21412
871.489	21222
871.619	21218
871.749	21412
871.879	21325
872.008	21412
872.138	21359
872.267	21359
872.397	21195
872.526	21184
872.656	21154
872.785	21264
872.915	21443
873.044	21466
873.173	21389
873.303	21386
873.432	21348
873.561	21496
873.69	21496
873.819	21359
873.948	21473
874.077	21386
874.206	21279
874.335	21408
874.464	21473
874.593	21557
874.722	21545
874.851	21644
874.979	21705
875.108	21576
875.237	21583
875.365	21431
875.494	21466
875.623	21637
875.751	21641
875.88	21603
876.008	21663
876.136	21762
876.265	22032
876.393	22093
876.521	22063
876.65	22025
876.778	21953
876.906	21869
877.034	21998
877.162	22059
877.29	21823
877.418	22078
877.546	21842
877.674	21831
877.802	21983
877.93	21987
878.058	21880
878.185	21804
878.313	21911
878.441	22097
878.568	21747
878.696	21823
878.824	21926
878.951	21964
879.079	22128
879.206	22173
879.333	22070
879.461	21956
879.588	21979
879.715	22090
879.842	22223
879.97	22067
880.097	21766
880.224	21755
880.351	21789
880.478	21781
880.605	21766
880.732	21736
880.859	22051
880.986	21762
881.112	21789
881.239	21614
881.366	21526
881.493	21340
881.619	21291
881.746	21332
881.872	21317
881.999	21321
882.125	21218
882.252	21500
882.378	21192
882.505	21355
882.631	21211
882.757	21157
882.883	21211
883.01	21119
883.136	21013
883.262	20918
883.388	20971
883.514	21043
883.64	21138
883.766	20971
883.892	20716
884.018	20785
884.143	20986
884.269	21142
884.395	20735
884.52	20708
884.646	20693
884.772	20545
884.897	20636
885.023	20727
885.148	20883
885.274	20842
885.399	20762
885.524	20693
885.65	20781
885.775	20785
885.9	20583
886.025	20762
886.15	20811
886.275	20655
886.4	20564
886.525	20667
886.65	20663
886.775	20571
886.9	20720
887.025	20857
887.149	20708
887.274	20598
887.399	20503
887.523	20469
887.648	20400
887.773	20412
887.897	20606
888.021	20587
888.146	20465
888.27	20594
888.395	20533
888.519	20492
888.643	20450
888.767	20530
888.891	20370
889.015	20419
889.139	20305
889.263	20320
889.387	20336
889.511	20495
889.635	20313
889.759	20271
889.883	20294
890.006	20290
890.13	20332
890.254	20214
890.377	20195
890.501	20035
890.624	20103
890.748	20164
890.871	19849
890.995	19860
891.118	19753
891.241	19791
891.364	19936
891.488	19986
891.611	19833
891.734	19925
891.857	19947
891.98	19814
892.103	19898
892.226	19849
892.349	19959
892.471	19620
892.594	19734
892.717	19784
892.839	19788
892.962	19807
893.085	19784
893.207	19875
893.33	19559
893.452	19605
893.575	19845
893.697	19693
893.819	19951
893.941	20081
894.064	19902
894.186	19601
894.308	19674
894.43	19871
894.552	19970
894.674	19906
894.796	19693
894.918	19685
895.04	19776
895.161	19814
895.283	19803
895.405	19647
895.526	19795
895.648	19719
895.769	19772
895.891	19738
896.012	19791
896.134	19868
896.255	19681
896.376	19689
896.498	19776
896.619	19788
896.74	19731
896.861	19852
896.982	20096
897.103	20301
897.224	19970
897.345	19928
897.466	19875
897.587	20081
897.708	20145
897.828	20024
897.949	19890
898.07	19791
898.19	19807
898.311	20001
898.431	19864
898.552	20005
898.672	20073
898.792	19917
898.913	19894
899.033	19814
899.153	19814
899.273	19693
899.393	19769
899.513	19788
899.633	19746
899.753	19757
899.873	19769
899.993	19849
900.113	19651
900.232	19769
900.352	19776
900.472	19578
900.591	19491
900.711	19525
900.83	19544
900.95	19639
901.069	19655
901.189	19434
901.308	19179
901.427	19091
901.546	19255
901.665	19133
901.784	19137
901.904	19019
902.023	18871
902.141	18715
902.26	18688
902.379	18802
902.498	18623
902.617	18585
902.735	18707
902.854	18665
902.973	18585
903.091	18395
903.21	18228
903.328	18361
903.446	18140
903.565	18064
903.683	18110
903.801	17992
903.919	18038
904.038	18072
904.156	17939
904.274	17992
904.392	17893
904.51	17866
904.627	17855
904.745	17904
904.863	17920
904.981	17722
905.098	17486
905.216	17649
905.334	17646
905.451	17615
905.569	17589
905.686	17608
905.803	17528
905.921	17421
906.038	17516
906.155	17414
906.272	17185
906.389	17178
906.506	17189
906.623	17071
906.74	17162
906.857	17033
906.974	17071
907.091	17128
907.208	17185
907.324	17178
907.441	16968
907.557	16938
907.674	16797
907.79	16679
907.907	16702
908.023	16854
908.139	16828
908.256	16839
908.372	16649
908.488	16645
908.604	16618
908.72	16443
908.836	16470
908.952	16531
909.068	16531
909.184	16664
909.3	16485
909.415	16550
909.531	16500
909.647	16306
909.762	16268
909.878	16211
909.993	16238
910.108	16265
910.224	16230
910.339	16333
910.454	16097
910.57	16059
910.685	16017
910.8	16299
910.915	16150
911.03	16116
911.145	15876
911.259	15899
911.374	15846
911.489	15705
911.604	15728
911.718	15625
911.833	15599
911.947	15462
912.062	15424
912.176	15667
912.291	15622
912.405	15466
912.519	15739
912.633	15751
912.748	15667
912.862	15580
912.976	15511
913.09	15325
913.204	15428
913.318	15401
913.431	15534
913.545	15466
913.659	15462
913.772	15294
913.886	15287
914	15291
914.113	15313
914.226	15359
914.34	15279
914.453	15097
914.566	15321
914.68	14998
914.793	15093
914.906	14967
915.019	14838
915.132	14701
915.245	14769
915.358	14807
915.47	14937
915.583	14864
915.696	14849
915.809	14948
915.921	14975
916.034	14731
916.146	14773
916.259	14765
916.371	14823
916.483	14838
916.595	14655
916.708	14667
916.82	14629
916.932	14621
917.044	14579
917.156	14571
917.268	14484
917.38	14469
917.491	14518
917.603	14499
917.715	14590
917.826	14526
917.938	14442
918.049	14343
918.161	14404
918.272	14507
918.384	14632
918.495	14427
918.606	14290
918.717	14263
918.828	14252
918.939	14248
919.05	14202
919.161	14199
919.272	14103
919.383	14103
919.494	14275
919.604	14438
919.715	14225
919.826	14111
919.936	14183
920.047	14309
920.157	14374
920.267	14389
920.378	14240
920.488	14240
920.598	14290
920.708	14488
920.818	14461
920.928	14336
921.038	14545
921.148	14393
921.258	14157
921.368	14058
921.477	14005
921.587	13871
921.697	13757
921.806	13932
921.916	13849
922.025	13708
922.134	13544
922.244	13521
922.353	13620
922.462	13575
922.571	13445
922.68	13259
922.789	13339
922.898	13320
923.007	13194
923.116	13362
923.224	13225
923.333	13240
923.442	13217
923.55	13088
923.659	13080
923.767	13209
923.876	13046
923.984	13168
924.092	13065
924.201	13133
924.309	13023
924.417	12993
924.525	12897
924.633	12996
924.741	13708
924.849	12806
924.956	12932
925.064	12776
925.172	12646
925.279	12635
925.387	12764
925.494	12665
925.602	12798
925.709	12722
925.816	12578
925.924	12673
926.031	12741
926.138	12669
926.245	12681
926.352	12559
926.459	12692
926.566	12673
926.673	12521
926.779	12426
926.886	12429
926.993	12273
927.099	12323
927.206	12194
927.312	12304
927.419	12327
927.525	12194
927.631	12251
927.737	12159
927.843	12148
927.95	11996
928.056	12064
928.162	12057
928.267	12136
928.373	12734
928.479	12144
928.585	11946
928.69	12022
928.796	12079
928.901	12003
929.007	11809
929.112	11954
929.218	11908
929.323	11809
929.428	11817
929.533	12026
929.638	11737
929.743	11798
929.848	11824
929.953	11832
930.058	11722
930.163	11501
930.267	11478
930.372	11688
930.477	11490
930.581	11710
930.685	11638
930.79	11391
930.894	11421
930.998	11395
931.103	11539
931.207	11181
931.311	11151
931.415	11003
931.519	10889
931.623	10816
