Data from test_V78500241_2308.txt Node
Date: Fri Mar 25 15:25:55 CST 2022
User: usil
Spectrometer: V785-0024
Trigger mode: 0
Integration Time (sec): 4.000000E-1
Scans to average: 1
Nonlinearity correction enabled: false
Boxcar width: 0
Storing dark spectrum: false
XAxis mode: Wavelengths
Number of Pixels in Spectrum: 1024
>>>>>Begin Spectral Data<<<<<
801.071	27332
801.214	27096
801.356	26914
801.499	26910
801.641	26754
801.783	26636
801.926	26750
802.068	26648
802.211	26667
802.353	26522
802.496	26434
802.638	26275
802.78	26385
802.923	26339
803.065	26252
803.208	26259
803.35	26453
803.492	26484
803.635	26469
803.777	26218
803.919	26366
804.061	26861
804.204	26560
804.346	26358
804.488	26278
804.63	26290
804.773	26377
804.915	26423
805.057	26579
805.199	26362
805.341	26431
805.483	26621
805.626	26594
805.768	26469
805.91	26560
806.052	26590
806.194	26579
806.336	26712
806.478	26651
806.62	26621
806.762	26765
806.904	26918
807.046	27020
807.188	26857
807.33	26998
807.472	27089
807.614	26975
807.756	27024
807.898	26765
808.04	26701
808.182	26769
808.324	26868
808.465	26998
808.607	27066
808.749	27070
808.891	27256
809.033	27207
809.174	27127
809.316	27192
809.458	27085
809.6	27013
809.741	27230
809.883	27123
810.025	27344
810.166	27344
810.308	27401
810.45	27355
810.591	27245
810.733	27074
810.875	27013
811.016	27001
811.158	27001
811.299	27188
811.441	27195
811.582	27157
811.724	27142
811.865	27089
812.007	27138
812.148	27066
812.29	27256
812.431	27412
812.573	27481
812.714	27610
812.855	27500
812.997	27637
813.138	27770
813.279	27732
813.421	27701
813.562	27549
813.703	27507
813.845	27374
813.986	26948
814.127	26750
814.268	26750
814.41	26788
814.551	26773
814.692	26914
814.833	26826
814.974	26807
815.115	26880
815.256	26629
815.397	26682
815.539	26644
815.68	26499
815.821	26377
815.962	26587
816.103	26625
816.244	26347
816.385	26324
816.526	26252
816.666	26267
816.807	25963
816.948	26065
817.089	26012
817.23	26024
817.371	25883
817.512	26122
817.653	26103
817.793	25947
817.934	26039
818.075	26069
818.216	26005
818.356	25951
818.497	25868
818.638	25833
818.778	25746
818.919	25860
819.06	25750
819.2	25913
819.341	26054
819.481	26027
819.622	26157
819.762	26381
819.903	26385
820.043	26339
820.184	26149
820.324	26138
820.465	26218
820.605	26259
820.746	26107
820.886	25993
821.026	26111
821.167	26100
821.307	26218
821.447	26073
821.588	26012
821.728	25719
821.868	25601
822.008	25613
822.149	25582
822.289	25502
822.429	25324
822.569	25171
822.709	25084
822.849	25042
822.99	25126
823.13	25031
823.27	24947
823.41	24814
823.55	24661
823.69	24973
823.83	24795
823.97	24791
824.11	24665
824.25	24544
824.389	24711
824.529	24817
824.669	24616
824.809	24700
824.949	24757
825.089	24654
825.228	24684
825.368	24612
825.508	24589
825.648	24490
825.787	24612
825.927	24719
826.067	24330
826.206	24452
826.346	24517
826.485	24505
826.625	24464
826.765	24547
826.904	24521
827.044	24296
827.183	24410
827.323	24159
827.462	24239
827.601	24205
827.741	24201
827.88	24285
828.02	24136
828.159	24167
828.298	24117
828.437	24292
828.577	24091
828.716	24304
828.855	24072
828.994	23920
829.134	23969
829.273	23984
829.412	23874
829.551	23813
829.69	23961
829.829	23961
829.968	24018
830.107	23874
830.246	23927
830.385	23851
830.524	23741
830.663	23718
830.802	23684
830.941	23535
831.08	23490
831.219	23497
831.357	23570
831.496	23722
831.635	23524
831.774	23520
831.913	23425
832.051	23292
832.19	23311
832.329	23318
832.467	23307
832.606	23246
832.744	23223
832.883	23330
833.022	23113
833.16	22999
833.299	23212
833.437	23155
833.576	23277
833.714	23223
833.852	23318
833.991	23143
834.129	23398
834.267	23235
834.406	23398
834.544	23356
834.682	23239
834.821	23159
834.959	23334
835.097	23246
835.235	23387
835.373	23269
835.511	23258
835.65	23212
835.788	23132
835.926	22957
836.064	22949
836.202	22999
836.34	23029
836.478	23121
836.615	23003
836.753	23159
836.891	23060
837.029	23128
837.167	23044
837.305	23071
837.443	22949
837.58	22896
837.718	23003
837.856	22927
837.993	22835
838.131	23010
838.269	22694
838.406	22900
838.544	22835
838.681	22656
838.819	22508
838.956	22474
839.094	22554
839.231	22573
839.369	22596
839.506	22843
839.643	22584
839.781	22470
839.918	22462
840.055	22394
840.193	22356
840.33	22398
840.467	22268
840.604	22333
840.742	22557
840.879	22230
841.016	22325
841.153	22291
841.29	22265
841.427	22413
841.564	22390
841.701	22386
841.838	22162
841.975	22246
842.112	22131
842.249	22120
842.385	22112
842.522	22341
842.659	22177
842.796	22147
842.933	22143
843.069	22093
843.206	22013
843.343	22139
843.479	22093
843.616	22025
843.752	21899
843.889	21812
844.025	21926
844.162	21793
844.298	21960
844.435	21964
844.571	21778
844.708	21850
844.844	22017
844.98	21983
845.117	21968
845.253	21892
845.389	21720
845.525	21831
845.661	21709
845.798	21469
845.934	21644
846.07	21557
846.206	21667
846.342	21713
846.478	21618
846.614	21431
846.75	21344
846.886	21245
847.022	21477
847.158	21389
847.294	21256
847.429	21336
847.565	21321
847.701	21553
847.837	21093
847.972	20963
848.108	21116
848.244	21055
848.379	20982
848.515	20876
848.65	20826
848.786	21009
848.921	20895
849.057	20982
849.192	20933
849.328	20880
849.463	20994
849.598	20929
849.734	20887
849.869	20838
850.004	20754
850.14	20663
850.275	20667
850.41	20568
850.545	20659
850.68	20579
850.815	20815
850.95	20602
851.085	20838
851.22	20861
851.355	20724
851.49	20743
851.625	20606
851.76	20686
851.895	20522
852.03	20621
852.165	20724
852.299	20716
852.434	20785
852.569	20708
852.703	20686
852.838	20785
852.973	20891
853.107	20636
853.242	20701
853.376	20522
853.511	20454
853.645	20495
853.78	20659
853.914	20606
854.048	20480
854.183	20609
854.317	20480
854.451	20659
854.585	20609
854.72	20469
854.854	20518
854.988	20408
855.122	20587
855.256	20396
855.39	20503
855.524	20541
855.658	20492
855.792	20541
855.926	20522
856.06	20495
856.194	20575
856.327	20514
856.461	20419
856.595	20602
856.729	20434
856.862	20590
856.996	20667
857.13	20636
857.263	20644
857.397	20560
857.53	20499
857.664	20503
857.797	20518
857.931	20708
858.064	20590
858.197	20720
858.331	20461
858.464	20514
858.597	20442
858.731	20514
858.864	20480
858.997	20507
859.13	20533
859.263	20571
859.396	20606
859.529	20556
859.662	20419
859.795	20446
859.928	20480
860.061	20693
860.194	20686
860.327	20495
860.46	20492
860.592	20594
860.725	20659
860.858	20640
860.99	20587
861.123	20324
861.256	20396
861.388	20438
861.521	21203
861.653	20393
861.786	20358
861.918	20290
862.05	20480
862.183	20454
862.315	20526
862.447	20606
862.58	20431
862.712	20218
862.844	20206
862.976	20438
863.108	20362
863.24	20769
863.372	20202
863.504	20237
863.636	20218
863.768	20328
863.9	20267
864.032	20202
864.164	20115
864.296	20164
864.428	20374
864.559	20336
864.691	20400
864.823	20233
864.954	20252
865.086	20187
865.217	20096
865.349	19993
865.48	20103
865.612	20168
865.743	20218
865.875	20195
866.006	20077
866.137	20168
866.269	20130
866.4	20142
866.531	19989
866.662	20103
866.793	20115
866.924	20081
867.055	20138
867.186	20214
867.317	20119
867.448	20043
867.579	20058
867.71	19913
867.841	20016
867.972	20202
868.103	20115
868.233	20164
868.364	19970
868.495	20225
868.625	20275
868.756	20419
868.886	20252
869.017	20332
869.147	20522
869.278	20366
869.408	20320
869.539	20362
869.669	20476
869.799	20431
869.929	20434
870.06	20355
870.19	20674
870.32	20526
870.45	20575
870.58	20648
870.71	20842
870.84	20826
870.97	20708
871.1	20720
871.23	20967
871.36	20910
871.489	20807
871.619	20830
871.749	20948
871.879	21017
872.008	21036
872.138	20891
872.267	20925
872.397	20845
872.526	20781
872.656	20765
872.785	20788
872.915	20990
873.044	20967
873.173	21017
873.303	21005
873.432	21013
873.561	21142
873.69	21043
873.819	21013
873.948	21028
874.077	20952
874.206	20921
874.335	20960
874.464	21093
874.593	21195
874.722	21100
874.851	21245
874.979	21230
875.108	21119
875.237	21070
875.365	21081
875.494	21207
875.623	21161
875.751	21039
875.88	21260
876.008	21264
876.136	21199
876.265	21542
876.393	21644
876.521	21667
876.65	21633
876.778	21564
876.906	21660
877.034	21553
877.162	21504
877.29	21534
877.418	21633
877.546	21526
877.674	21515
877.802	21504
877.93	21561
878.058	21576
878.185	21389
878.313	21488
878.441	21473
878.568	21397
878.696	21507
878.824	21530
878.951	21545
879.079	21781
879.206	21728
879.333	21747
879.461	21564
879.588	21694
879.715	21793
879.842	21781
879.97	21633
880.097	21496
880.224	21393
880.351	21439
880.478	21420
880.605	21325
880.732	21329
880.859	21538
880.986	21382
881.112	21264
881.239	21203
881.366	21047
881.493	21043
881.619	20899
881.746	20899
881.872	20967
881.999	20982
882.125	20998
882.252	20986
882.378	20967
882.505	20982
882.631	20777
882.757	20678
882.883	20716
883.01	20651
883.136	20743
883.262	20579
883.388	20461
883.514	20686
883.64	20590
883.766	20609
883.892	20419
884.018	20522
884.143	20575
884.269	20716
884.395	20301
884.52	20263
884.646	20415
884.772	20237
884.897	20210
885.023	20248
885.148	20431
885.274	20442
885.399	20400
885.524	20328
885.65	20286
885.775	20263
885.9	20374
886.025	20427
886.15	20358
886.275	20298
886.4	20161
886.525	20267
886.65	20263
886.775	20202
886.9	20275
887.025	20438
887.149	20282
887.274	20069
887.399	20058
887.523	20187
887.648	19944
887.773	20035
887.897	20103
888.021	20096
888.146	19997
888.27	20202
888.395	20176
888.519	20100
888.643	20103
888.767	20115
888.891	19944
889.015	19887
889.139	19909
889.263	19822
889.387	20039
889.511	20103
889.635	19989
889.759	19826
889.883	19833
890.006	20001
890.13	19989
890.254	19689
890.377	19906
890.501	19609
890.624	19693
890.748	19586
890.871	19521
890.995	19556
891.118	19350
891.241	19365
891.364	19502
891.488	19609
891.611	19533
891.734	19548
891.857	19510
891.98	19449
892.103	19533
892.226	19540
892.349	19335
892.471	19304
892.594	19460
892.717	19460
892.839	19293
892.962	19426
893.085	19548
893.207	19480
893.33	19236
893.452	19259
893.575	19426
893.697	19381
893.819	19460
893.941	19563
894.064	19491
894.186	19301
894.308	19369
894.43	19544
894.552	19518
894.674	19544
894.796	19228
894.918	19460
895.04	19476
895.161	19438
895.283	19521
895.405	19358
895.526	19384
895.648	19343
895.769	19480
895.891	19339
896.012	19411
896.134	19369
896.255	19392
896.376	19331
896.498	19487
896.619	19343
896.74	19350
896.861	19499
896.982	19746
897.103	19811
897.224	19681
897.345	19582
897.466	19616
897.587	19689
897.708	19852
897.828	19628
897.949	19506
898.07	19381
898.19	19597
898.311	19613
898.431	19616
898.552	19632
898.672	19727
898.792	19616
898.913	19693
899.033	19468
899.153	19415
899.273	19266
899.393	19411
899.513	19472
899.633	19373
899.753	19350
899.873	19335
899.993	19502
900.113	19388
900.232	19403
900.352	19263
900.472	19289
900.591	19190
900.711	19293
900.83	19168
900.95	19274
901.069	19228
901.189	19209
901.308	18985
901.427	18764
901.546	18753
901.665	18837
901.784	18871
901.904	18650
902.023	18646
902.141	18289
902.26	18254
902.379	18342
902.498	18353
902.617	18232
902.735	18216
902.854	18323
902.973	18311
903.091	18011
903.21	17942
903.328	17973
903.446	17828
903.565	17889
903.683	17882
903.801	17627
903.919	17748
904.038	17634
904.156	17566
904.274	17558
904.392	17410
904.51	17566
904.627	17596
904.745	17581
904.863	17687
904.981	17353
905.098	17242
905.216	17208
905.334	17261
905.451	17128
905.569	17223
905.686	17265
905.803	17197
905.921	17048
906.038	17204
906.155	17155
906.272	16972
906.389	16900
906.506	16831
906.623	16854
906.74	16725
906.857	16645
906.974	16771
907.091	16862
907.208	16858
907.324	16752
907.441	16660
907.557	16512
907.674	16535
907.79	16375
907.907	16474
908.023	16462
908.139	16516
908.256	16466
908.372	16318
908.488	16344
908.604	16291
908.72	16261
908.836	16196
908.952	16207
909.068	16295
909.184	16348
909.3	16249
909.415	16314
909.531	16215
909.647	15926
909.762	15998
909.878	15781
909.993	15876
910.108	15899
910.224	15857
910.339	15903
910.454	15739
910.57	15701
910.685	15648
910.8	15884
910.915	15899
911.03	15804
911.145	15606
911.259	15591
911.374	15564
911.489	15447
911.604	15431
911.718	15386
911.833	15302
911.947	15214
912.062	15176
912.176	15230
912.291	15192
912.405	15359
912.519	15488
912.633	15496
912.748	15298
912.862	15401
912.976	15142
913.09	15062
913.204	15089
913.318	15131
913.431	15180
913.545	15119
913.659	15203
913.772	15138
913.886	14880
914	14948
914.113	14921
914.226	14937
914.34	14952
914.453	14750
914.566	14960
914.68	14872
914.793	14735
914.906	14556
915.019	14476
915.132	14454
915.245	14549
915.358	14549
915.47	14526
915.583	14507
915.696	14537
915.809	14636
915.921	14632
916.034	14537
916.146	14480
916.259	14545
916.371	14590
916.483	14423
916.595	14358
916.708	14404
916.82	14400
916.932	14366
917.044	14339
917.156	14278
917.268	14168
917.38	14225
917.491	14225
917.603	14153
917.715	14282
917.826	14294
917.938	14149
918.049	14027
918.161	14115
918.272	14339
918.384	14309
918.495	14157
918.606	14031
918.717	13898
918.828	13970
918.939	13940
919.05	13879
919.161	13868
919.272	13830
919.383	13822
919.494	14043
919.604	14199
919.715	13883
919.826	13890
919.936	14050
920.047	14081
920.157	14020
920.267	14142
920.378	13925
920.488	13833
920.598	14168
920.708	14168
920.818	14100
920.928	14077
921.038	14240
921.148	14187
921.258	13921
921.368	13852
921.477	13723
921.587	13780
921.697	13582
921.806	13696
921.916	13540
922.025	13346
922.134	13472
922.244	13251
922.353	13354
922.462	13263
922.571	13114
922.68	12993
922.789	12973
922.898	12939
923.007	12954
923.116	12962
923.224	13072
923.333	12973
923.442	12970
923.55	12787
923.659	12852
923.767	12920
923.876	12795
923.984	12779
924.092	12719
924.201	12821
924.309	12715
924.417	12734
924.525	12696
924.633	12707
924.741	13548
924.849	12502
924.956	12563
925.064	12559
925.172	12433
925.279	12410
925.387	12441
925.494	12361
925.602	12601
925.709	12502
925.816	12266
925.924	12395
926.031	12502
926.138	12452
926.245	12429
926.352	12262
926.459	12426
926.566	12555
926.673	12289
926.779	12220
926.886	12201
926.993	12110
927.099	11969
927.206	11931
927.312	12019
927.419	12076
927.525	12041
927.631	12087
927.737	11824
927.843	11931
927.95	11741
928.056	11855
928.162	11824
928.267	11851
928.373	12350
928.479	12022
928.585	11691
928.69	11813
928.796	11817
928.901	11802
929.007	11543
929.112	11741
929.218	11688
929.323	11649
929.428	11604
929.533	11756
929.638	11543
929.743	11562
929.848	11608
929.953	11512
930.058	11421
930.163	11208
930.267	11349
930.372	11448
930.477	11273
930.581	11478
930.685	11330
930.79	11189
930.894	11231
930.998	11227
931.103	11326
931.207	10968
931.311	10805
931.415	10782
931.519	10611
931.623	10618
