Data from test_V78500241_3571.txt Node
Date: Fri Mar 25 15:34:43 CST 2022
User: usil
Spectrometer: V785-0024
Trigger mode: 0
Integration Time (sec): 4.000000E-1
Scans to average: 1
Nonlinearity correction enabled: false
Boxcar width: 0
Storing dark spectrum: false
XAxis mode: Wavelengths
Number of Pixels in Spectrum: 1024
>>>>>Begin Spectral Data<<<<<
801.071	27458
801.214	27382
801.356	27066
801.499	27024
801.641	26815
801.783	26910
801.926	26857
802.068	26929
802.211	26735
802.353	26689
802.496	26606
802.638	26613
802.78	26526
802.923	26484
803.065	26221
803.208	26298
803.35	26686
803.492	26613
803.635	26739
803.777	26457
803.919	26530
804.061	27028
804.204	26716
804.346	26556
804.488	26644
804.63	26674
804.773	26446
804.915	26678
805.057	26773
805.199	26644
805.341	26788
805.483	26823
805.626	26788
805.768	26617
805.91	26788
806.052	26758
806.194	26796
806.336	26925
806.478	26769
806.62	26826
806.762	26682
806.904	27028
807.046	27241
807.188	27112
807.33	27161
807.472	27142
807.614	27066
807.756	27123
807.898	27005
808.04	27070
808.182	26960
808.324	27081
808.465	27062
808.607	27173
808.749	27317
808.891	27374
809.033	27564
809.174	27363
809.316	27283
809.458	27310
809.6	27283
809.741	27427
809.883	27389
810.025	27637
810.166	27686
810.308	27606
810.45	27637
810.591	27591
810.733	27363
810.875	27420
811.016	27252
811.158	27226
811.299	27545
811.441	27431
811.582	27450
811.724	27302
811.865	27367
812.007	27294
812.148	27291
812.29	27545
812.431	27412
812.573	27606
812.714	27831
812.855	27880
812.997	27865
813.138	28059
813.279	28040
813.421	27846
813.562	27808
813.703	27561
813.845	27614
813.986	27256
814.127	27222
814.268	26967
814.41	27039
814.551	27077
814.692	27192
814.833	26982
814.974	27055
815.115	27173
815.256	26902
815.397	26902
815.539	26880
815.68	26705
815.821	26750
815.962	26918
816.103	26670
816.244	26720
816.385	26609
816.526	26484
816.666	26537
816.807	26248
816.948	26313
817.089	26290
817.23	26412
817.371	26313
817.512	26218
817.653	26339
817.793	26187
817.934	26252
818.075	26263
818.216	26347
818.356	26115
818.497	26218
818.638	26065
818.778	26084
818.919	26024
819.06	26081
819.2	26111
819.341	26366
819.481	26229
819.622	26412
819.762	26499
819.903	26393
820.043	26415
820.184	26328
820.324	26400
820.465	26412
820.605	26355
820.746	26328
820.886	26195
821.026	26332
821.167	26248
821.307	26503
821.447	26180
821.588	26290
821.728	26043
821.868	25928
822.008	25685
822.149	25849
822.289	25689
822.429	25514
822.569	25460
822.709	25411
822.849	25259
822.99	25259
823.13	25225
823.27	25244
823.41	25171
823.55	24954
823.69	25129
823.83	25145
823.97	24947
824.11	24856
824.25	24795
824.389	24897
824.529	25019
824.669	24989
824.809	24992
824.949	24970
825.089	24966
825.228	24867
825.368	24829
825.508	24886
825.648	24928
825.787	24814
825.927	24768
826.067	24760
826.206	24825
826.346	24924
826.485	24859
826.625	24768
826.765	24833
826.904	24928
827.044	24673
827.183	24509
827.323	24437
827.462	24601
827.601	24486
827.741	24540
827.88	24608
828.02	24426
828.159	24593
828.298	24456
828.437	24467
828.577	24384
828.716	24479
828.855	24433
828.994	24258
829.134	24224
829.273	24471
829.412	24289
829.551	24159
829.69	24270
829.829	24292
829.968	24243
830.107	24426
830.246	24277
830.385	24300
830.524	24106
830.663	24053
830.802	24018
830.941	23908
831.08	23726
831.219	23866
831.357	23882
831.496	24091
831.635	23802
831.774	23707
831.913	23752
832.051	23726
832.19	23577
832.329	23722
832.467	23452
832.606	23482
832.744	23531
832.883	23539
833.022	23486
833.16	23379
833.299	23615
833.437	23551
833.576	23562
833.714	23608
833.852	23600
833.991	23558
834.129	23577
834.267	23687
834.406	23691
834.544	23646
834.682	23596
834.821	23657
834.959	23790
835.097	23528
835.235	23646
835.373	23448
835.511	23627
835.65	23482
835.788	23524
835.926	23258
836.064	23296
836.202	23330
836.34	23467
836.478	23467
836.615	23360
836.753	23520
836.891	23535
837.029	23459
837.167	23417
837.305	23277
837.443	23288
837.58	23296
837.718	23406
837.856	23379
837.993	23231
838.131	23265
838.269	23143
838.406	23174
838.544	23094
838.681	22949
838.819	22889
838.956	22820
839.094	22896
839.231	22892
839.369	22904
839.506	23155
839.643	23064
839.781	22843
839.918	22858
840.055	22698
840.193	22717
840.33	22683
840.467	22706
840.604	22824
840.742	23044
840.879	22398
841.016	22615
841.153	22512
841.29	22752
841.427	22664
841.564	22763
841.701	22603
841.838	22725
841.975	22569
842.112	22512
842.249	22546
842.385	22481
842.522	22717
842.659	22561
842.796	22402
842.933	22390
843.069	22527
843.206	22451
843.343	22527
843.479	22402
843.616	22394
843.752	22268
843.889	22154
844.025	22436
844.162	22253
844.298	22276
844.435	22196
844.571	22333
844.708	22280
844.844	22291
844.98	22390
845.117	22280
845.253	22242
845.389	22051
845.525	22192
845.661	22105
845.798	22105
845.934	22051
846.07	21903
846.206	22032
846.342	22040
846.478	22025
846.614	21736
846.75	21644
846.886	21679
847.022	21808
847.158	21751
847.294	21667
847.429	21705
847.565	21625
847.701	21972
847.837	21359
847.972	21386
848.108	21431
848.244	21542
848.379	21431
848.515	21275
848.65	21351
848.786	21169
848.921	21226
849.057	21401
849.192	21367
849.328	21393
849.463	21291
849.598	21260
849.734	21157
849.869	21237
850.004	21135
850.14	21123
850.275	21116
850.41	20944
850.545	21020
850.68	21062
850.815	21195
850.95	21039
851.085	21245
851.22	21165
851.355	21070
851.49	21119
851.625	20986
851.76	21123
851.895	21104
852.03	20979
852.165	21169
852.299	21066
852.434	21157
852.569	21100
852.703	21024
852.838	21131
852.973	21245
853.107	21237
853.242	21104
853.376	20826
853.511	20838
853.645	20826
853.78	20994
853.914	20788
854.048	20815
854.183	20777
854.317	20956
854.451	21062
854.585	20910
854.72	20872
854.854	20944
854.988	20880
855.122	20963
855.256	20640
855.39	20785
855.524	20960
855.658	20807
855.792	20910
855.926	20899
856.06	20929
856.194	21032
856.327	20948
856.461	20853
856.595	20834
856.729	20800
856.862	20990
856.996	20880
857.13	20880
857.263	20960
857.397	21009
857.53	20902
857.664	20830
857.797	20956
857.931	21043
858.064	20944
858.197	21028
858.331	20838
858.464	20830
858.597	20746
858.731	20864
858.864	20937
858.997	20887
859.13	20834
859.263	20845
859.396	20906
859.529	20823
859.662	20834
859.795	20754
859.928	20853
860.061	21032
860.194	21043
860.327	20948
860.46	20781
860.592	20902
860.725	21123
860.858	21062
860.99	20815
861.123	20872
861.256	20842
861.388	20853
861.521	21652
861.653	20853
861.786	20815
861.918	20754
862.05	20716
862.183	20792
862.315	20872
862.447	20967
862.58	20788
862.712	20541
862.844	20469
862.976	20750
863.108	20724
863.24	20914
863.372	20545
863.504	20568
863.636	20659
863.768	20537
863.9	20549
864.032	20476
864.164	20434
864.296	20659
864.428	20583
864.559	20693
864.691	20777
864.823	20625
864.954	20606
865.086	20640
865.217	20484
865.349	20374
865.48	20514
865.612	20644
865.743	20693
865.875	20632
866.006	20419
866.137	20537
866.269	20408
866.4	20613
866.531	20408
866.662	20423
866.793	20450
866.924	20366
867.055	20522
867.186	20492
867.317	20423
867.448	20358
867.579	20434
867.71	20389
867.841	20294
867.972	20465
868.103	20465
868.233	20438
868.364	20415
868.495	20423
868.625	20674
868.756	20845
868.886	20629
869.017	20697
869.147	20853
869.278	20746
869.408	20670
869.539	20602
869.669	20720
869.799	20644
869.929	20861
870.06	20769
870.19	20971
870.32	21005
870.45	20971
870.58	21123
870.71	21169
870.84	21165
870.97	21199
871.1	21108
871.23	21386
871.36	21313
871.489	21302
871.619	21176
871.749	21401
871.879	21294
872.008	21439
872.138	21370
872.267	21329
872.397	21272
872.526	21055
872.656	21119
872.785	21070
872.915	21272
873.044	21458
873.173	21382
873.303	21397
873.432	21382
873.561	21397
873.69	21249
873.819	21252
873.948	21332
874.077	21294
874.206	21291
874.335	21298
874.464	21397
874.593	21534
874.722	21576
874.851	21717
874.979	21534
875.108	21519
875.237	21538
875.365	21481
875.494	21591
875.623	21580
875.751	21526
875.88	21610
876.008	21667
876.136	21804
876.265	22029
876.393	21972
876.521	21956
876.65	22021
876.778	21922
876.906	21876
877.034	21983
877.162	21953
877.29	21842
877.418	21873
877.546	21911
877.674	21922
877.802	21865
877.93	21907
878.058	21861
878.185	21797
878.313	21835
878.441	21983
878.568	21675
878.696	21888
878.824	22013
878.951	22082
879.079	22105
879.206	22253
879.333	22051
879.461	21994
879.588	22021
879.715	21953
879.842	22128
879.97	21934
880.097	21686
880.224	21797
880.351	21812
880.478	21724
880.605	21629
880.732	21637
880.859	21861
880.986	21648
881.112	21812
881.239	21641
881.366	21576
881.493	21393
881.619	21310
881.746	21287
881.872	21325
881.999	21302
882.125	21359
882.252	21363
882.378	21317
882.505	21386
882.631	21188
882.757	21104
882.883	20994
883.01	21070
883.136	20929
883.262	20857
883.388	20807
883.514	21009
883.64	21131
883.766	20880
883.892	20689
884.018	20864
884.143	20948
884.269	21024
884.395	20765
884.52	20613
884.646	20682
884.772	20556
884.897	20625
885.023	20674
885.148	20693
885.274	20769
885.399	20826
885.524	20648
885.65	20644
885.775	20648
885.9	20552
886.025	20807
886.15	20838
886.275	20689
886.4	20644
886.525	20590
886.65	20454
886.775	20552
886.9	20678
887.025	20979
887.149	20613
887.274	20518
887.399	20400
887.523	20419
887.648	20393
887.773	20450
887.897	20419
888.021	20473
888.146	20305
888.27	20408
888.395	20446
888.519	20469
888.643	20556
888.767	20499
888.891	20237
889.015	20225
889.139	20233
889.263	20122
889.387	20351
889.511	20404
889.635	20252
889.759	20210
889.883	20161
890.006	20233
890.13	20332
890.254	20225
890.377	20031
890.501	20005
890.624	19936
890.748	20005
890.871	19841
890.995	19814
891.118	19776
891.241	19803
891.364	19909
891.488	19864
891.611	19833
891.734	19837
891.857	19898
891.98	19875
892.103	19841
892.226	19811
892.349	19765
892.471	19639
892.594	19784
892.717	19795
892.839	19685
892.962	19776
893.085	19784
893.207	19727
893.33	19639
893.452	19666
893.575	19734
893.697	19685
893.819	19940
893.941	19928
894.064	19925
894.186	19788
894.308	19647
894.43	19742
894.552	19788
894.674	19803
894.796	19666
894.918	19700
895.04	19677
895.161	19860
895.283	19674
895.405	19628
895.526	19666
895.648	19715
895.769	19689
895.891	19708
896.012	19849
896.134	19795
896.255	19624
896.376	19811
896.498	19731
896.619	19742
896.74	19803
896.861	19742
896.982	20027
897.103	20180
897.224	20005
897.345	19841
897.466	19959
897.587	19932
897.708	20073
897.828	19967
897.949	19906
898.07	19830
898.19	19849
898.311	20039
898.431	19887
898.552	19803
898.672	20020
898.792	19845
898.913	19989
899.033	19807
899.153	19738
899.273	19639
899.393	19662
899.513	19662
899.633	19674
899.753	19841
899.873	19594
899.993	19750
900.113	19795
900.232	19685
900.352	19601
900.472	19533
900.591	19502
900.711	19480
900.83	19426
900.95	19422
901.069	19499
901.189	19316
901.308	19225
901.427	18981
901.546	18989
901.665	19004
901.784	19099
901.904	18886
902.023	18909
902.141	18650
902.26	18642
902.379	18707
902.498	18593
902.617	18494
902.735	18494
902.854	18715
902.973	18475
903.091	18376
903.21	18315
903.328	18163
903.446	18106
903.565	18049
903.683	18125
903.801	17939
903.919	17958
904.038	17920
904.156	17870
904.274	17912
904.392	17714
904.51	17745
904.627	17851
904.745	17901
904.863	17882
904.981	17691
905.098	17474
905.216	17444
905.334	17604
905.451	17573
905.569	17592
905.686	17467
905.803	17482
905.921	17330
906.038	17486
906.155	17322
906.272	17341
906.389	17250
906.506	17132
906.623	17136
906.74	16984
906.857	16923
906.974	16923
907.091	17147
907.208	17170
907.324	17041
907.441	16843
907.557	16866
907.674	16793
907.79	16725
907.907	16683
908.023	16793
908.139	16744
908.256	16759
908.372	16611
908.488	16660
908.604	16653
908.72	16474
908.836	16500
908.952	16474
909.068	16527
909.184	16603
909.3	16432
909.415	16577
909.531	16569
909.647	16295
909.762	16253
909.878	16196
909.993	16314
910.108	16238
910.224	16181
910.339	16181
910.454	15979
910.57	16006
910.685	15953
910.8	16318
910.915	16078
911.03	16071
911.145	15816
911.259	15808
911.374	15831
911.489	15747
911.604	15739
911.718	15500
911.833	15606
911.947	15481
912.062	15416
912.176	15526
912.291	15614
912.405	15603
912.519	15701
912.633	15618
912.748	15675
912.862	15561
912.976	15336
913.09	15344
913.204	15306
913.318	15435
913.431	15450
913.545	15473
913.659	15561
913.772	15313
913.886	15214
914	15256
914.113	15199
914.226	15245
914.34	15207
914.453	15036
914.566	15176
914.68	15062
914.793	15009
914.906	14868
915.019	14872
915.132	14754
915.245	14758
915.358	14762
915.47	14807
915.583	14826
915.696	14823
915.809	14849
915.921	14883
916.034	14765
916.146	14716
916.259	14716
916.371	14765
916.483	14842
916.595	14587
916.708	14686
916.82	14625
916.932	14545
917.044	14564
917.156	14552
917.268	14434
917.38	14431
917.491	14564
917.603	14511
917.715	14526
917.826	14492
917.938	14404
918.049	14301
918.161	14492
918.272	14507
918.384	14454
918.495	14415
918.606	14202
918.717	14126
918.828	14164
918.939	14172
919.05	14187
919.161	14134
919.272	14058
919.383	14084
919.494	14187
919.604	14503
919.715	14244
919.826	14195
919.936	14134
920.047	14176
920.157	14134
920.267	14366
920.378	14225
920.488	14142
920.598	14309
920.708	14476
920.818	14278
920.928	14286
921.038	14488
921.148	14393
921.258	14142
921.368	14039
921.477	14001
921.587	13871
921.697	13814
921.806	13894
921.916	13826
922.025	13594
922.134	13605
922.244	13540
922.353	13609
922.462	13521
922.571	13384
922.68	13297
922.789	13164
922.898	13164
923.007	13240
923.116	13225
923.224	13263
923.333	13221
923.442	13027
923.55	13004
923.659	13152
923.767	13061
923.876	13042
923.984	13118
924.092	13038
924.201	12954
924.309	12962
924.417	13046
924.525	12905
924.633	12913
924.741	13811
924.849	12688
924.956	12890
925.064	12715
925.172	12639
925.279	12673
925.387	12681
925.494	12608
925.602	12783
925.709	12760
925.816	12658
925.924	12707
926.031	12631
926.138	12639
926.245	12506
926.352	12509
926.459	12620
926.566	12677
926.673	12502
926.779	12422
926.886	12464
926.993	12327
927.099	12258
927.206	12209
927.312	12171
927.419	12308
927.525	12270
927.631	12289
927.737	12049
927.843	12182
927.95	11999
928.056	12019
928.162	12117
928.267	12098
928.373	12627
928.479	12144
928.585	11893
928.69	12022
928.796	12076
928.901	11939
929.007	11843
929.112	11878
929.218	11878
929.323	11836
929.428	11790
929.533	11980
929.638	11676
929.743	11783
929.848	11764
929.953	11710
930.058	11611
930.163	11448
930.267	11474
930.372	11596
930.477	11406
930.581	11699
930.685	11490
930.79	11368
930.894	11433
930.998	11433
931.103	11516
931.207	11124
931.311	11018
931.415	11029
931.519	10767
931.623	10767
