Data from test_V78500241_3367.txt Node
Date: Fri Mar 25 15:33:18 CST 2022
User: usil
Spectrometer: V785-0024
Trigger mode: 0
Integration Time (sec): 4.000000E-1
Scans to average: 1
Nonlinearity correction enabled: false
Boxcar width: 0
Storing dark spectrum: false
XAxis mode: Wavelengths
Number of Pixels in Spectrum: 1024
>>>>>Begin Spectral Data<<<<<
801.071	27138
801.214	27051
801.356	27058
801.499	26842
801.641	26705
801.783	26815
801.926	26746
802.068	26716
802.211	26640
802.353	26590
802.496	26442
802.638	26495
802.78	26370
802.923	26122
803.065	26256
803.208	26317
803.35	26290
803.492	26495
803.635	26587
803.777	26530
803.919	26473
804.061	26765
804.204	26507
804.346	26450
804.488	26393
804.63	26442
804.773	26358
804.915	26590
805.057	26568
805.199	26644
805.341	26552
805.483	26693
805.626	26697
805.768	26499
805.91	26575
806.052	26667
806.194	26552
806.336	26735
806.478	26651
806.62	26507
806.762	26651
806.904	26792
807.046	27108
807.188	27005
807.33	26933
807.472	26952
807.614	26933
807.756	26899
807.898	26899
808.04	26697
808.182	26727
808.324	26925
808.465	26769
808.607	27005
808.749	27192
808.891	27233
809.033	27272
809.174	27310
809.316	27249
809.458	27100
809.6	27161
809.741	27119
809.883	27363
810.025	27336
810.166	27374
810.308	27469
810.45	27458
810.591	27332
810.733	27062
810.875	27119
811.016	27058
811.158	26960
811.299	27325
811.441	27359
811.582	27226
811.724	27154
811.865	27043
812.007	27154
812.148	27077
812.29	27161
812.431	27405
812.573	27496
812.714	27515
812.855	27606
812.997	27778
813.138	27846
813.279	27762
813.421	27743
813.562	27538
813.703	27557
813.845	27264
813.986	27009
814.127	26998
814.268	26651
814.41	26807
814.551	26788
814.692	26792
814.833	26689
814.974	26701
815.115	26720
815.256	26644
815.397	26590
815.539	26674
815.68	26564
815.821	26438
815.962	26583
816.103	26503
816.244	26450
816.385	26343
816.526	26244
816.666	26202
816.807	26027
816.948	26092
817.089	26275
817.23	26050
817.371	26012
817.512	25940
817.653	25966
817.793	26012
817.934	26107
818.075	26073
818.216	26065
818.356	26024
818.497	26046
818.638	25723
818.778	25894
818.919	25864
819.06	25799
819.2	25978
819.341	26122
819.481	26020
819.622	26069
819.762	26393
819.903	26237
820.043	26324
820.184	26130
820.324	26191
820.465	26320
820.605	26092
820.746	26100
820.886	25959
821.026	26168
821.167	26115
821.307	26267
821.447	26065
821.588	25959
821.728	25795
821.868	25639
822.008	25681
822.149	25476
822.289	25552
822.429	25343
822.569	25209
822.709	25274
822.849	25046
822.99	24958
823.13	24973
823.27	25023
823.41	24772
823.55	24726
823.69	24833
823.83	24882
823.97	24779
824.11	24563
824.25	24589
824.389	24616
824.529	24658
824.669	24791
824.809	24707
824.949	24798
825.089	24642
825.228	24738
825.368	24433
825.508	24498
825.648	24509
825.787	24471
825.927	24551
826.067	24464
826.206	24437
826.346	24521
826.485	24707
826.625	24654
826.765	24582
826.904	24597
827.044	24315
827.183	24369
827.323	24174
827.462	24353
827.601	24133
827.741	24315
827.88	24376
828.02	24201
828.159	24098
828.298	24266
828.437	24308
828.577	24228
828.716	24289
828.855	24129
828.994	23939
829.134	23961
829.273	24011
829.412	23977
829.551	23802
829.69	23935
829.829	24053
829.968	23965
830.107	23893
830.246	23920
830.385	23904
830.524	23870
830.663	23809
830.802	23634
830.941	23661
831.08	23486
831.219	23615
831.357	23665
831.496	23813
831.635	23577
831.774	23486
831.913	23341
832.051	23376
832.19	23330
832.329	23376
832.467	23288
832.606	23315
832.744	23280
832.883	23227
833.022	23322
833.16	23258
833.299	23159
833.437	23315
833.576	23349
833.714	23391
833.852	23379
833.991	23326
834.129	23463
834.267	23391
834.406	23307
834.544	23322
834.682	23398
834.821	23299
834.959	23421
835.097	23299
835.235	23417
835.373	23417
835.511	23349
835.65	23151
835.788	23239
835.926	23170
836.064	23029
836.202	22972
836.34	23147
836.478	23356
836.615	23193
836.753	23231
836.891	23223
837.029	23105
837.167	23147
837.305	23029
837.443	23064
837.58	23037
837.718	23117
837.856	22968
837.993	23143
838.131	22957
838.269	22949
838.406	22900
838.544	22942
838.681	22713
838.819	22694
838.956	22432
839.094	22462
839.231	22577
839.369	22721
839.506	22908
839.643	22729
839.781	22462
839.918	22398
840.055	22478
840.193	22447
840.33	22432
840.467	22466
840.604	22626
840.742	22725
840.879	22341
841.016	22428
841.153	22249
841.29	22485
841.427	22405
841.564	22417
841.701	22356
841.838	22398
841.975	22242
842.112	22421
842.249	22318
842.385	22143
842.522	22398
842.659	22226
842.796	22200
842.933	22322
843.069	22261
843.206	22173
843.343	22284
843.479	22124
843.616	22329
843.752	22044
843.889	22044
844.025	22173
844.162	22051
844.298	22116
844.435	21960
844.571	21937
844.708	22002
844.844	22040
844.98	22063
845.117	22078
845.253	21911
845.389	21781
845.525	21880
845.661	21846
845.798	21652
845.934	21675
846.07	21720
846.206	21717
846.342	21846
846.478	21701
846.614	21473
846.75	21428
846.886	21580
847.022	21515
847.158	21428
847.294	21523
847.429	21428
847.565	21435
847.701	21663
847.837	21150
847.972	21154
848.108	21287
848.244	21260
848.379	21055
848.515	21089
848.65	21032
848.786	20998
848.921	21028
849.057	21157
849.192	21077
849.328	21077
849.463	21195
849.598	21074
849.734	20948
849.869	20956
850.004	20845
850.14	20861
850.275	20785
850.41	20826
850.545	20883
850.68	20804
850.815	20861
850.95	20887
851.085	20929
851.22	20910
851.355	20849
851.49	20872
851.625	20838
851.76	20830
851.895	20819
852.03	20769
852.165	20785
852.299	20811
852.434	20842
852.569	20845
852.703	20826
852.838	20769
852.973	20826
853.107	20975
853.242	20788
853.376	20716
853.511	20708
853.645	20545
853.78	20731
853.914	20682
854.048	20655
854.183	20659
854.317	20644
854.451	20895
854.585	20697
854.72	20735
854.854	20670
854.988	20560
855.122	20625
855.256	20541
855.39	20636
855.524	20686
855.658	20648
855.792	20598
855.926	20724
856.06	20758
856.194	20743
856.327	20590
856.461	20667
856.595	20484
856.729	20571
856.862	20735
856.996	20727
857.13	20708
857.263	20758
857.397	20727
857.53	20590
857.664	20826
857.797	20651
857.931	20731
858.064	20606
858.197	20727
858.331	20541
858.464	20632
858.597	20556
858.731	20609
858.864	20750
858.997	20583
859.13	20678
859.263	20663
859.396	20857
859.529	20617
859.662	20613
859.795	20450
859.928	20686
860.061	20857
860.194	20796
860.327	20606
860.46	20674
860.592	20823
860.725	20811
860.858	20788
860.99	20537
861.123	20457
861.256	20556
861.388	20621
861.521	21359
861.653	20495
861.786	20454
861.918	20473
862.05	20571
862.183	20488
862.315	20625
862.447	20640
862.58	20541
862.712	20233
862.844	20161
862.976	20374
863.108	20457
863.24	20838
863.372	20309
863.504	20351
863.636	20389
863.768	20389
863.9	20256
864.032	20240
864.164	20309
864.296	20499
864.428	20355
864.559	20514
864.691	20442
864.823	20332
864.954	20355
865.086	20278
865.217	20244
865.349	20202
865.48	20252
865.612	20225
865.743	20404
865.875	20218
866.006	20271
866.137	20149
866.269	20290
866.4	20210
866.531	20161
866.662	20191
866.793	20172
866.924	20153
867.055	20317
867.186	20229
867.317	20187
867.448	20183
867.579	20145
867.71	20191
867.841	20092
867.972	20259
868.103	20111
868.233	20149
868.364	20218
868.495	20237
868.625	20355
868.756	20530
868.886	20385
869.017	20362
869.147	20545
869.278	20511
869.408	20412
869.539	20473
869.669	20564
869.799	20556
869.929	20461
870.06	20457
870.19	20796
870.32	20758
870.45	20815
870.58	20857
870.71	20925
870.84	20971
870.97	20872
871.1	20883
871.23	21024
871.36	21077
871.489	20948
871.619	20994
871.749	21043
871.879	21123
872.008	21230
872.138	21116
872.267	21001
872.397	20883
872.526	20826
872.656	20906
872.785	20918
872.915	21077
873.044	21203
873.173	21036
873.303	21055
873.432	21138
873.561	21112
873.69	21112
873.819	21058
873.948	21112
874.077	21104
874.206	21085
874.335	21180
874.464	21127
874.593	21283
874.722	21317
874.851	21291
874.979	21268
875.108	21329
875.237	21363
875.365	21184
875.494	21332
875.623	21458
875.751	21252
875.88	21359
876.008	21386
876.136	21504
876.265	21701
876.393	21854
876.521	21766
876.65	21698
876.778	21679
876.906	21717
877.034	21747
877.162	21713
877.29	21648
877.418	21595
877.546	21701
877.674	21549
877.802	21568
877.93	21770
878.058	21652
878.185	21614
878.313	21545
878.441	21644
878.568	21439
878.696	21568
878.824	21698
878.951	21831
879.079	21861
879.206	21991
879.333	21945
879.461	21713
879.588	21732
879.715	21823
879.842	21972
879.97	21743
880.097	21477
880.224	21500
880.351	21530
880.478	21492
880.605	21431
880.732	21458
880.859	21732
880.986	21504
881.112	21492
881.239	21378
881.366	21336
881.493	21142
881.619	21066
881.746	21268
881.872	21096
881.999	20971
882.125	21055
882.252	21062
882.378	20952
882.505	21230
882.631	20864
882.757	20769
882.883	20883
883.01	20811
883.136	20769
883.262	20564
883.388	20693
883.514	20754
883.64	20785
883.766	20811
883.892	20564
884.018	20621
884.143	20689
884.269	20826
884.395	20438
884.52	20377
884.646	20533
884.772	20275
884.897	20389
885.023	20431
885.148	20549
885.274	20564
885.399	20568
885.524	20336
885.65	20476
885.775	20377
885.9	20370
886.025	20568
886.15	20480
886.275	20328
886.4	20317
886.525	20313
886.65	20389
886.775	20457
886.9	20571
887.025	20556
887.149	20427
887.274	20206
887.399	20259
887.523	20221
887.648	20237
887.773	20161
887.897	20362
888.021	20263
888.146	20191
888.27	20366
888.395	20339
888.519	20248
888.643	20210
888.767	20362
888.891	20214
889.015	19974
889.139	20103
889.263	20031
889.387	20065
889.511	20218
889.635	20180
889.759	20058
889.883	20008
890.006	20195
890.13	20240
890.254	19845
890.377	19978
890.501	19845
890.624	19822
890.748	19879
890.871	19601
890.995	19563
891.118	19655
891.241	19605
891.364	19658
891.488	19818
891.611	19681
891.734	19696
891.857	19693
891.98	19693
892.103	19712
892.226	19696
892.349	19620
892.471	19441
892.594	19426
892.717	19571
892.839	19540
892.962	19480
893.085	19556
893.207	19540
893.33	19441
893.452	19491
893.575	19556
893.697	19502
893.819	19719
893.941	19826
894.064	19693
894.186	19445
894.308	19525
894.43	19533
894.552	19761
894.674	19651
894.796	19426
894.918	19556
895.04	19464
895.161	19533
895.283	19597
895.405	19491
895.526	19487
895.648	19518
895.769	19510
895.891	19632
896.012	19666
896.134	19578
896.255	19548
896.376	19540
896.498	19609
896.619	19628
896.74	19521
896.861	19738
896.982	19928
897.103	20039
897.224	19959
897.345	19841
897.466	19712
897.587	19746
897.708	19849
897.828	19830
897.949	19826
898.07	19700
898.19	19700
898.311	19963
898.431	19860
898.552	19761
898.672	19765
898.792	19913
898.913	19833
899.033	19742
899.153	19563
899.273	19586
899.393	19537
899.513	19552
899.633	19502
899.753	19567
899.873	19453
899.993	19616
900.113	19499
900.232	19586
900.352	19438
900.472	19499
900.591	19289
900.711	19343
900.83	19217
900.95	19483
901.069	19403
901.189	19114
901.308	18977
901.427	18856
901.546	18916
901.665	18970
901.784	18981
901.904	18916
902.023	18703
902.141	18551
902.26	18426
902.379	18456
902.498	18471
902.617	18422
902.735	18509
902.854	18403
902.973	18304
903.091	18197
903.21	18106
903.328	18011
903.446	18098
903.565	17954
903.683	17939
903.801	17859
903.919	17908
904.038	17855
904.156	17710
904.274	17790
904.392	17710
904.51	17551
904.627	17703
904.745	17790
904.863	17699
904.981	17524
905.098	17387
905.216	17440
905.334	17398
905.451	17296
905.569	17258
905.686	17383
905.803	17402
905.921	17140
906.038	17200
906.155	17121
906.272	17075
906.389	17094
906.506	16892
906.623	16911
906.74	17010
906.857	16729
906.974	16729
907.091	17037
907.208	17014
907.324	16908
907.441	16694
907.557	16656
907.674	16664
907.79	16675
907.907	16615
908.023	16622
908.139	16607
908.256	16706
908.372	16577
908.488	16558
908.604	16356
908.72	16329
908.836	16402
908.952	16322
909.068	16344
909.184	16622
909.3	16303
909.415	16303
909.531	16379
909.647	16276
909.762	16086
909.878	16010
909.993	16116
910.108	16093
910.224	16101
910.339	16090
910.454	15895
910.57	15884
910.685	15812
910.8	16196
910.915	15930
911.03	15915
911.145	15698
911.259	15724
911.374	15603
911.489	15603
911.604	15633
911.718	15576
911.833	15424
911.947	15332
912.062	15408
912.176	15386
912.291	15515
912.405	15363
912.519	15637
912.633	15599
912.748	15557
912.862	15431
912.976	15268
913.09	15150
913.204	15222
913.318	15260
913.431	15363
913.545	15329
913.659	15329
913.772	15245
913.886	15055
914	15009
914.113	15093
914.226	15123
914.34	15085
914.453	15005
914.566	15085
914.68	15051
914.793	14933
914.906	14712
915.019	14693
915.132	14689
915.245	14629
915.358	14651
915.47	14674
915.583	14693
915.696	14606
915.809	14800
915.921	14811
916.034	14693
916.146	14613
916.259	14590
916.371	14629
916.483	14503
916.595	14503
916.708	14507
916.82	14594
916.932	14473
917.044	14484
917.156	14473
917.268	14389
917.38	14370
917.491	14377
917.603	14278
917.715	14400
917.826	14362
917.938	14301
918.049	14202
918.161	14267
918.272	14423
918.384	14393
918.495	14244
918.606	14164
918.717	14081
918.828	14100
918.939	14054
919.05	14138
919.161	14024
919.272	13917
919.383	13906
919.494	14130
919.604	14294
919.715	14164
919.826	14119
919.936	14046
920.047	14138
920.157	14119
920.267	14210
920.378	14077
920.488	14054
920.598	14206
920.708	14377
920.818	14202
920.928	14214
921.038	14343
921.148	14332
921.258	14062
921.368	13906
921.477	13868
921.587	13868
921.697	13639
921.806	13750
921.916	13670
922.025	13552
922.134	13445
922.244	13468
922.353	13491
922.462	13358
922.571	13274
922.68	13221
922.789	13118
922.898	13232
923.007	13031
923.116	13164
923.224	13099
923.333	13061
923.442	12958
923.55	12985
923.659	13027
923.767	13053
923.876	12894
923.984	13000
924.092	12856
924.201	12943
924.309	12943
924.417	12939
924.525	12829
924.633	12867
924.741	13780
924.849	12563
924.956	12696
925.064	12601
925.172	12555
925.279	12578
925.387	12616
925.494	12547
925.602	12696
925.709	12650
925.816	12437
925.924	12471
926.031	12612
926.138	12456
926.245	12544
926.352	12448
926.459	12525
926.566	12650
926.673	12399
926.779	12361
926.886	12296
926.993	12232
927.099	12163
927.206	12019
927.312	12136
927.419	12155
927.525	12171
927.631	12239
927.737	12041
927.843	12057
927.95	11893
928.056	11920
928.162	11893
928.267	11984
928.373	12555
928.479	12064
928.585	11745
928.69	11935
928.796	11931
928.901	11893
929.007	11672
929.112	11798
929.218	11863
929.323	11737
929.428	11668
929.533	11802
929.638	11653
929.743	11646
929.848	11718
929.953	11661
930.058	11653
930.163	11387
930.267	11436
930.372	11528
930.477	11398
930.581	11558
930.685	11444
930.79	11372
930.894	11330
930.998	11341
931.103	11341
931.207	11094
931.311	11010
931.415	10915
931.519	10702
931.623	10672
