Data from test_V78500241_2973.txt Node
Date: Fri Mar 25 15:30:33 CST 2022
User: usil
Spectrometer: V785-0024
Trigger mode: 0
Integration Time (sec): 4.000000E-1
Scans to average: 1
Nonlinearity correction enabled: false
Boxcar width: 0
Storing dark spectrum: false
XAxis mode: Wavelengths
Number of Pixels in Spectrum: 1024
>>>>>Begin Spectral Data<<<<<
801.071	27157
801.214	27039
801.356	26842
801.499	26864
801.641	26724
801.783	26678
801.926	26640
802.068	26689
802.211	26457
802.353	26568
802.496	26206
802.638	26305
802.78	26336
802.923	26221
803.065	26024
803.208	26172
803.35	26298
803.492	26377
803.635	26294
803.777	26317
803.919	26374
804.061	26735
804.204	26461
804.346	26286
804.488	26263
804.63	26355
804.773	26339
804.915	26396
805.057	26469
805.199	26381
805.341	26522
805.483	26655
805.626	26453
805.768	26351
805.91	26465
806.052	26423
806.194	26461
806.336	26678
806.478	26560
806.62	26419
806.762	26564
806.904	26788
807.046	26967
807.188	26849
807.33	27005
807.472	26948
807.614	26750
807.756	26823
807.898	26727
808.04	26606
808.182	26781
808.324	26640
808.465	26834
808.607	27039
808.749	27039
808.891	27184
809.033	27176
809.174	27214
809.316	27138
809.458	27051
809.6	26975
809.741	27226
809.883	27344
810.025	27279
810.166	27329
810.308	27359
810.45	27283
810.591	27218
810.733	27169
810.875	27173
811.016	26887
811.158	27055
811.299	27169
811.441	27332
811.582	27180
811.724	27222
811.865	27039
812.007	27108
812.148	27077
812.29	27195
812.431	27260
812.573	27408
812.714	27492
812.855	27504
812.997	27580
813.138	27686
813.279	27580
813.421	27595
813.562	27515
813.703	27397
813.845	27378
813.986	26883
814.127	26842
814.268	26727
814.41	26838
814.551	26632
814.692	26796
814.833	26667
814.974	26587
815.115	26781
815.256	26644
815.397	26807
815.539	26667
815.68	26511
815.821	26556
815.962	26374
816.103	26514
816.244	26408
816.385	26347
816.526	26240
816.666	26149
816.807	25906
816.948	26084
817.089	25917
817.23	25997
817.371	25879
817.512	26027
817.653	25955
817.793	25837
817.934	25986
818.075	25966
818.216	26031
818.356	25974
818.497	25803
818.638	25727
818.778	25780
818.919	25723
819.06	25887
819.2	25936
819.341	26035
819.481	25966
819.622	26100
819.762	26233
819.903	26256
820.043	26180
820.184	26065
820.324	25997
820.465	26161
820.605	26027
820.746	26024
820.886	25947
821.026	26069
821.167	26054
821.307	25932
821.447	25875
821.588	25966
821.728	25826
821.868	25700
822.008	25472
822.149	25537
822.289	25449
822.429	25263
822.569	25236
822.709	25107
822.849	24928
822.99	24985
823.13	24905
823.27	24935
823.41	24802
823.55	24635
823.69	24833
823.83	24798
823.97	24730
824.11	24585
824.25	24486
824.389	24479
824.529	24608
824.669	24597
824.809	24661
824.949	24688
825.089	24665
825.228	24661
825.368	24544
825.508	24414
825.648	24372
825.787	24547
825.927	24616
826.067	24494
826.206	24616
826.346	24467
826.485	24407
826.625	24479
826.765	24700
826.904	24475
827.044	24296
827.183	24285
827.323	24125
827.462	24258
827.601	24216
827.741	24155
827.88	24205
828.02	24068
828.159	24174
828.298	24186
828.437	24220
828.577	24049
828.716	24327
828.855	23996
828.994	23923
829.134	23817
829.273	23901
829.412	23843
829.551	23935
829.69	23714
829.829	23863
829.968	23901
830.107	23939
830.246	23802
830.385	23821
830.524	23843
830.663	23832
830.802	23642
830.941	23406
831.08	23452
831.219	23509
831.357	23543
831.496	23748
831.635	23429
831.774	23315
831.913	23372
832.051	23322
832.19	23189
832.329	23204
832.467	23299
832.606	23124
832.744	23056
832.883	23113
833.022	23067
833.16	23170
833.299	23124
833.437	23303
833.576	23242
833.714	23178
833.852	23223
833.991	23067
834.129	23288
834.267	23280
834.406	23166
834.544	23242
834.682	23258
834.821	23143
834.959	23452
835.097	23109
835.235	23330
835.373	23231
835.511	23121
835.65	22965
835.788	22953
835.926	23067
836.064	22915
836.202	22889
836.34	23056
836.478	23109
836.615	22987
836.753	23121
836.891	23113
837.029	22919
837.167	23006
837.305	22953
837.443	22805
837.58	22729
837.718	22923
837.856	22824
837.993	22881
838.131	22873
838.269	22831
838.406	22774
838.544	22618
838.681	22462
838.819	22489
838.956	22405
839.094	22379
839.231	22459
839.369	22489
839.506	22767
839.643	22668
839.781	22318
839.918	22268
840.055	22379
840.193	22375
840.33	22356
840.467	22363
840.604	22413
840.742	22622
840.879	22280
841.016	22261
841.153	22211
841.29	22379
841.427	22185
841.564	22367
841.701	22348
841.838	22196
841.975	22211
842.112	22223
842.249	22230
842.385	22067
842.522	22379
842.659	22185
842.796	21994
842.933	22051
843.069	21983
843.206	22013
843.343	22128
843.479	22032
843.616	21827
843.752	21846
843.889	21846
844.025	22048
844.162	21816
844.298	21987
844.435	21827
844.571	21595
844.708	21800
844.844	22017
844.98	21895
845.117	21956
845.253	21774
845.389	21542
845.525	21701
845.661	21629
845.798	21564
845.934	21561
846.07	21534
846.206	21534
846.342	21766
846.478	21492
846.614	21412
846.75	21283
846.886	21336
847.022	21348
847.158	21245
847.294	21302
847.429	21348
847.565	21294
847.701	21641
847.837	20990
847.972	20937
848.108	21024
848.244	21142
848.379	20895
848.515	20910
848.65	20792
848.786	20826
848.921	20861
849.057	20982
849.192	20994
849.328	20956
849.463	20906
849.598	20857
849.734	20811
849.869	20739
850.004	20575
850.14	20648
850.275	20739
850.41	20537
850.545	20613
850.68	20613
850.815	20636
850.95	20659
851.085	20796
851.22	20838
851.355	20724
851.49	20571
851.625	20541
851.76	20575
851.895	20583
852.03	20655
852.165	20636
852.299	20613
852.434	20754
852.569	20788
852.703	20583
852.838	20686
852.973	20746
853.107	20792
853.242	20549
853.376	20488
853.511	20332
853.645	20442
853.78	20495
853.914	20518
854.048	20533
854.183	20598
854.317	20431
854.451	20739
854.585	20629
854.72	20511
854.854	20613
854.988	20457
855.122	20545
855.256	20419
855.39	20377
855.524	20492
855.658	20541
855.792	20598
855.926	20526
856.06	20552
856.194	20613
856.327	20469
856.461	20495
856.595	20396
856.729	20450
856.862	20473
856.996	20511
857.13	20473
857.263	20518
857.397	20625
857.53	20438
857.664	20560
857.797	20598
857.931	20545
858.064	20454
858.197	20465
858.331	20476
858.464	20377
858.597	20332
858.731	20476
858.864	20374
858.997	20476
859.13	20469
859.263	20484
859.396	20541
859.529	20457
859.662	20442
859.795	20419
859.928	20473
860.061	20667
860.194	20606
860.327	20457
860.46	20499
860.592	20541
860.725	20678
860.858	20590
860.99	20492
861.123	20419
861.256	20400
861.388	20503
861.521	21081
861.653	20290
861.786	20256
861.918	20225
862.05	20434
862.183	20438
862.315	20514
862.447	20480
862.58	20324
862.712	20256
862.844	20157
862.976	20248
863.108	20240
863.24	20682
863.372	20164
863.504	20100
863.636	20134
863.768	20298
863.9	20206
864.032	20149
864.164	20233
864.296	20221
864.428	20259
864.559	20313
864.691	20309
864.823	20157
864.954	20271
865.086	20183
865.217	20130
865.349	19860
865.48	20119
865.612	20103
865.743	20259
865.875	20138
866.006	19997
866.137	20069
866.269	20077
866.4	20100
866.531	20001
866.662	19974
866.793	20096
866.924	20100
867.055	20062
867.186	20126
867.317	20107
867.448	20031
867.579	19944
867.71	19986
867.841	19993
867.972	20020
868.103	20069
868.233	20176
868.364	20119
868.495	20062
868.625	20362
868.756	20381
868.886	20187
869.017	20256
869.147	20457
869.278	20385
869.408	20267
869.539	20320
869.669	20282
869.799	20320
869.929	20362
870.06	20362
870.19	20663
870.32	20526
870.45	20606
870.58	20655
870.71	20811
870.84	20739
870.97	20815
871.1	20640
871.23	20849
871.36	20815
871.489	20765
871.619	20804
871.749	20967
871.879	20868
872.008	21020
872.138	20979
872.267	20948
872.397	20781
872.526	20651
872.656	20727
872.785	20674
872.915	20952
873.044	21028
873.173	20910
873.303	21074
873.432	20986
873.561	21058
873.69	20914
873.819	20861
873.948	21017
874.077	20944
874.206	20887
874.335	20899
874.464	20982
874.593	21135
874.722	21058
874.851	21176
874.979	21214
875.108	21252
875.237	21093
875.365	21055
875.494	21233
875.623	21146
875.751	21157
875.88	21157
876.008	21275
876.136	21439
876.265	21526
876.393	21603
876.521	21580
876.65	21675
876.778	21519
876.906	21606
877.034	21428
877.162	21428
877.29	21389
877.418	21496
877.546	21633
877.674	21466
877.802	21481
877.93	21424
878.058	21469
878.185	21351
878.313	21610
878.441	21428
878.568	21260
878.696	21321
878.824	21462
878.951	21435
879.079	21675
879.206	21770
879.333	21606
879.461	21580
879.588	21576
879.715	21545
879.842	21781
879.97	21538
880.097	21393
880.224	21272
880.351	21306
880.478	21291
880.605	21272
880.732	21329
880.859	21561
880.986	21302
881.112	21477
881.239	21226
881.366	21028
881.493	21051
881.619	20880
881.746	20876
881.872	20963
881.999	20880
882.125	20815
882.252	20990
882.378	20819
882.505	21005
882.631	20705
882.757	20667
882.883	20682
883.01	20606
883.136	20549
883.262	20579
883.388	20503
883.514	20602
883.64	20686
883.766	20693
883.892	20431
884.018	20393
884.143	20568
884.269	20625
884.395	20324
884.52	20313
884.646	20298
884.772	20244
884.897	20043
885.023	20362
885.148	20427
885.274	20404
885.399	20332
885.524	20275
885.65	20191
885.775	20263
885.9	20225
886.025	20328
886.15	20358
886.275	20309
886.4	20111
886.525	20157
886.65	20206
886.775	20199
886.9	20370
887.025	20393
887.149	20107
887.274	20107
887.399	20058
887.523	20122
887.648	20081
887.773	19928
887.897	20126
888.021	20027
888.146	20058
888.27	20142
888.395	20202
888.519	20016
888.643	20065
888.767	20168
888.891	19963
889.015	19860
889.139	20005
889.263	19658
889.387	20027
889.511	20126
889.635	20008
889.759	19811
889.883	19833
890.006	19822
890.13	20039
890.254	19849
890.377	19788
890.501	19704
890.624	19605
890.748	19662
890.871	19502
890.995	19354
891.118	19441
891.241	19419
891.364	19373
891.488	19556
891.611	19533
891.734	19400
891.857	19525
891.98	19457
892.103	19381
892.226	19529
892.349	19384
892.471	19225
892.594	19278
892.717	19373
892.839	19430
892.962	19377
893.085	19373
893.207	19350
893.33	19228
893.452	19247
893.575	19396
893.697	19358
893.819	19381
893.941	19441
894.064	19476
894.186	19324
894.308	19278
894.43	19434
894.552	19533
894.674	19575
894.796	19179
894.918	19308
895.04	19346
895.161	19392
895.283	19358
895.405	19259
895.526	19301
895.648	19320
895.769	19335
895.891	19343
896.012	19480
896.134	19384
896.255	19343
896.376	19297
896.498	19282
896.619	19468
896.74	19282
896.861	19358
896.982	19727
897.103	19887
897.224	19670
897.345	19525
897.466	19544
897.587	19571
897.708	19822
897.828	19651
897.949	19613
898.07	19434
898.19	19540
898.311	19719
898.431	19472
898.552	19635
898.672	19670
898.792	19639
898.913	19677
899.033	19384
899.153	19472
899.273	19350
899.393	19434
899.513	19476
899.633	19274
899.753	19365
899.873	19308
899.993	19419
900.113	19308
900.232	19460
900.352	19346
900.472	19289
900.591	19080
900.711	19110
900.83	19145
900.95	19206
901.069	19251
901.189	19084
901.308	18856
901.427	18707
901.546	18802
901.665	18760
901.784	18696
901.904	18631
902.023	18486
902.141	18258
902.26	18403
902.379	18311
902.498	18262
902.617	18213
902.735	18391
902.854	18152
902.973	18209
903.091	17916
903.21	17893
903.328	17942
903.446	17904
903.565	17718
903.683	17737
903.801	17634
903.919	17615
904.038	17733
904.156	17596
904.274	17668
904.392	17532
904.51	17467
904.627	17551
904.745	17604
904.863	17577
904.981	17376
905.098	17174
905.216	17288
905.334	17258
905.451	17288
905.569	17090
905.686	17147
905.803	17181
905.921	16953
906.038	17124
906.155	17075
906.272	16885
906.389	16824
906.506	16687
906.623	16725
906.74	16771
906.857	16622
906.974	16634
907.091	16752
907.208	16957
907.324	16774
907.441	16588
907.557	16462
907.674	16405
907.79	16485
907.907	16478
908.023	16459
908.139	16550
908.256	16455
908.372	16382
908.488	16204
908.604	16268
908.72	16223
908.836	16219
908.952	16173
909.068	16284
909.184	16363
909.3	16181
909.415	16204
909.531	16204
909.647	15915
909.762	15846
909.878	15857
909.993	15892
910.108	15899
910.224	15850
910.339	15774
910.454	15895
910.57	15660
910.685	15622
910.8	15903
910.915	15827
911.03	15652
911.145	15587
911.259	15504
911.374	15488
911.489	15450
911.604	15389
911.718	15237
911.833	15340
911.947	15195
912.062	15135
912.176	15294
912.291	15264
912.405	15348
912.519	15439
912.633	15382
912.748	15458
912.862	15237
912.976	15146
913.09	14994
913.204	15013
913.318	15123
913.431	15218
913.545	15131
913.659	15127
913.772	15043
913.886	14990
914	14910
914.113	15055
914.226	14899
914.34	14899
914.453	14769
914.566	14944
914.68	14796
914.793	14716
914.906	14530
915.019	14606
915.132	14526
915.245	14533
915.358	14480
915.47	14492
915.583	14560
915.696	14617
915.809	14590
915.921	14659
916.034	14450
916.146	14461
916.259	14374
916.371	14518
916.483	14393
916.595	14313
916.708	14450
916.82	14343
916.932	14366
917.044	14370
917.156	14343
917.268	14199
917.38	14221
917.491	14153
917.603	14202
917.715	14244
917.826	14286
917.938	14126
918.049	14043
918.161	14195
918.272	14400
918.384	14237
918.495	14100
918.606	13967
918.717	13982
918.828	13986
918.939	13959
919.05	13909
919.161	13974
919.272	13738
919.383	13887
919.494	13986
919.604	14191
919.715	13986
919.826	13898
919.936	13928
920.047	14012
920.157	13852
920.267	13944
920.378	13955
920.488	13875
920.598	14115
920.708	14267
920.818	14187
920.928	14092
921.038	14237
921.148	14271
921.258	13955
921.368	13814
921.477	13674
921.587	13731
921.697	13499
921.806	13681
921.916	13514
922.025	13495
922.134	13381
922.244	13285
922.353	13400
922.462	13278
922.571	13164
922.68	13099
922.789	13031
922.898	13110
923.007	12829
923.116	13027
923.224	12985
923.333	12985
923.442	12798
923.55	12867
923.659	12833
923.767	12844
923.876	12875
923.984	12871
924.092	12616
924.201	12776
924.309	12726
924.417	12833
924.525	12662
924.633	12669
924.741	13445
924.849	12479
924.956	12631
925.064	12429
925.172	12391
925.279	12369
925.387	12448
925.494	12475
925.602	12509
925.709	12475
925.816	12350
925.924	12376
926.031	12464
926.138	12365
926.245	12506
926.352	12319
926.459	12388
926.566	12452
926.673	12243
926.779	12239
926.886	12125
926.993	12053
927.099	11988
927.206	12022
927.312	11969
927.419	11954
927.525	12022
927.631	11965
927.737	11916
927.843	11992
927.95	11786
928.056	11828
928.162	11863
928.267	11939
928.373	12555
928.479	11923
928.585	11714
928.69	11847
928.796	11878
928.901	11756
929.007	11554
929.112	11733
929.218	11714
929.323	11619
929.428	11600
929.533	11771
929.638	11505
929.743	11520
929.848	11638
929.953	11577
930.058	11490
930.163	11296
930.267	11330
930.372	11421
930.477	11136
930.581	11501
930.685	11341
930.79	11162
930.894	11151
930.998	11204
931.103	11315
931.207	11018
931.311	10896
931.415	10843
931.519	10584
931.623	10546
