Data from test_V78500241_21.txt Node
Date: Fri Mar 25 15:10:00 CST 2022
User: usil
Spectrometer: V785-0024
Trigger mode: 0
Integration Time (sec): 4.000000E-1
Scans to average: 1
Nonlinearity correction enabled: false
Boxcar width: 0
Storing dark spectrum: false
XAxis mode: Wavelengths
Number of Pixels in Spectrum: 1024
>>>>>Begin Spectral Data<<<<<
801.071	28261
801.214	28154
801.356	27876
801.499	27892
801.641	27720
801.783	27778
801.926	27797
802.068	27576
802.211	27709
802.353	27641
802.496	27370
802.638	27351
802.78	27264
802.923	27306
803.065	27093
803.208	27135
803.35	27268
803.492	27180
803.635	27382
803.777	27401
803.919	27443
804.061	27736
804.204	27397
804.346	27317
804.488	27233
804.63	27367
804.773	27256
804.915	27370
805.057	27504
805.199	27279
805.341	27351
805.483	27500
805.626	27466
805.768	27329
805.91	27363
806.052	27382
806.194	27332
806.336	27633
806.478	27416
806.62	27519
806.762	27504
806.904	27538
807.046	27827
807.188	27736
807.33	27808
807.472	27739
807.614	27778
807.756	27705
807.898	27614
808.04	27473
808.182	27519
808.324	27530
808.465	27542
808.607	27690
808.749	27819
808.891	27914
809.033	28006
809.174	27865
809.316	27823
809.458	27781
809.6	27800
809.741	27873
809.883	27911
810.025	28116
810.166	28135
810.308	28158
810.45	28017
810.591	27972
810.733	27781
810.875	27854
811.016	27587
811.158	27595
811.299	27766
811.441	27934
811.582	27827
811.724	27766
811.865	27644
812.007	27709
812.148	27648
812.29	27812
812.431	27842
812.573	27972
812.714	28166
812.855	28128
812.997	28162
813.138	28462
813.279	28455
813.421	28360
813.562	28128
813.703	28143
813.845	27880
813.986	27496
814.127	27485
814.268	27325
814.41	27332
814.551	27321
814.692	27408
814.833	27378
814.974	27195
815.115	27211
815.256	27195
815.397	27127
815.539	27089
815.68	26940
815.821	26937
815.962	27036
816.103	26986
816.244	26891
816.385	26689
816.526	26754
816.666	26526
816.807	26453
816.948	26488
817.089	26617
817.23	26609
817.371	26336
817.512	26457
817.653	26256
817.793	26343
817.934	26313
818.075	26442
818.216	26282
818.356	26275
818.497	26187
818.638	26081
818.778	26210
818.919	26214
819.06	26046
819.2	26069
819.341	26221
819.481	26290
819.622	26442
819.762	26670
819.903	26655
820.043	26450
820.184	26366
820.324	26389
820.465	26446
820.605	26621
820.746	26355
820.886	26256
821.026	26202
821.167	26317
821.307	26362
821.447	26225
821.588	26252
821.728	25986
821.868	26012
822.008	25715
822.149	25753
822.289	25670
822.429	25476
822.569	25293
822.709	25324
822.849	25274
822.99	25263
823.13	25179
823.27	25042
823.41	25046
823.55	25015
823.69	24920
823.83	25103
823.97	24924
824.11	24798
824.25	24696
824.389	24658
824.529	24840
824.669	24840
824.809	24844
824.949	24821
825.089	24825
825.228	24814
825.368	24517
825.508	24467
825.648	24612
825.787	24631
825.927	24608
826.067	24441
826.206	24570
826.346	24540
826.485	24502
826.625	24544
826.765	24612
826.904	24502
827.044	24376
827.183	24285
827.323	24152
827.462	24311
827.601	24201
827.741	24190
827.88	24129
828.02	24121
828.159	24159
828.298	24220
828.437	24163
828.577	24098
828.716	24235
828.855	24045
828.994	23840
829.134	23817
829.273	23916
829.412	23836
829.551	23874
829.69	23863
829.829	23863
829.968	23851
830.107	23832
830.246	23965
830.385	23809
830.524	23703
830.663	23665
830.802	23490
830.941	23414
831.08	23402
831.219	23497
831.357	23547
831.496	23566
831.635	23364
831.774	23391
831.913	23353
832.051	23208
832.19	23181
832.329	23181
832.467	23052
832.606	22953
832.744	22961
832.883	22972
833.022	23105
833.16	23067
833.299	23010
833.437	22919
833.576	23029
833.714	22957
833.852	23014
833.991	23075
834.129	22991
834.267	23083
834.406	22968
834.544	23113
834.682	23060
834.821	22980
834.959	23098
835.097	22892
835.235	23052
835.373	23006
835.511	22968
835.65	22877
835.788	22782
835.926	22706
836.064	22771
836.202	22615
836.34	22831
836.478	23010
836.615	22820
836.753	22824
836.891	22999
837.029	22877
837.167	22748
837.305	22744
837.443	22744
837.58	22653
837.718	22771
837.856	22687
837.993	22744
838.131	22656
838.269	22607
838.406	22637
838.544	22550
838.681	22314
838.819	22215
838.956	22158
839.094	22128
839.231	22226
839.369	22253
839.506	22607
839.643	22257
839.781	22063
839.918	22025
840.055	21979
840.193	22032
840.33	21922
840.467	21975
840.604	22078
840.742	22226
840.879	21713
841.016	22013
841.153	21823
841.29	21972
841.427	21968
841.564	21937
841.701	22002
841.838	21880
841.975	21800
842.112	21876
842.249	21831
842.385	21644
842.522	21812
842.659	21766
842.796	21713
842.933	21580
843.069	21530
843.206	21705
843.343	21785
843.479	21789
843.616	21622
843.752	21397
843.889	21424
844.025	21709
844.162	21435
844.298	21462
844.435	21370
844.571	21249
844.708	21447
844.844	21481
844.98	21420
845.117	21496
845.253	21370
845.389	21207
845.525	21256
845.661	21279
845.798	21180
845.934	21169
846.07	21036
846.206	21093
846.342	21302
846.478	21028
846.614	20952
846.75	20842
846.886	20804
847.022	21009
847.158	20887
847.294	20902
847.429	20921
847.565	20815
847.701	21055
847.837	20674
847.972	20434
848.108	20788
848.244	20533
848.379	20442
848.515	20450
848.65	20336
848.786	20415
848.921	20442
849.057	20499
849.192	20454
849.328	20377
849.463	20533
849.598	20362
849.734	20263
849.869	20259
850.004	20191
850.14	20145
850.275	20149
850.41	20035
850.545	20195
850.68	20126
850.815	20191
850.95	20122
851.085	20233
851.22	20176
851.355	20111
851.49	20069
851.625	20130
851.76	20058
851.895	19936
852.03	19951
852.165	20111
852.299	20180
852.434	20199
852.569	20176
852.703	20142
852.838	20119
852.973	20138
853.107	20267
853.242	20001
853.376	20077
853.511	19837
853.645	19894
853.78	20050
853.914	19959
854.048	20012
854.183	19860
854.317	19868
854.451	20107
854.585	19921
854.72	19803
854.854	19860
854.988	19883
855.122	19887
855.256	19772
855.39	19875
855.524	19791
855.658	19932
855.792	19894
855.926	19928
856.06	20027
856.194	19967
856.327	19906
856.461	19849
856.595	19849
856.729	19875
856.862	20039
856.996	19989
857.13	19989
857.263	19967
857.397	20024
857.53	19906
857.664	19959
857.797	20050
857.931	20024
858.064	19944
858.197	19883
858.331	19803
858.464	19811
858.597	19738
858.731	19765
858.864	19841
858.997	19822
859.13	19818
859.263	19890
859.396	19860
859.529	19772
859.662	19803
859.795	19780
859.928	19871
860.061	20012
860.194	20077
860.327	19772
860.46	19677
860.592	19940
860.725	19906
860.858	19925
860.99	19742
861.123	19708
861.256	19750
861.388	19811
861.521	20396
861.653	19639
861.786	19655
861.918	19731
862.05	19772
862.183	19879
862.315	19890
862.447	19997
862.58	19875
862.712	19559
862.844	19567
862.976	19624
863.108	19670
863.24	20058
863.372	19616
863.504	19594
863.636	19403
863.768	19666
863.9	19506
864.032	19533
864.164	19377
864.296	19514
864.428	19639
864.559	19559
864.691	19647
864.823	19453
864.954	19487
865.086	19556
865.217	19510
865.349	19403
865.48	19411
865.612	19499
865.743	19441
865.875	19426
866.006	19365
866.137	19392
866.269	19457
866.4	19400
866.531	19407
866.662	19293
866.793	19358
866.924	19354
867.055	19487
867.186	19521
867.317	19293
867.448	19206
867.579	19327
867.71	19301
867.841	19126
867.972	19343
868.103	19358
868.233	19354
868.364	19320
868.495	19419
868.625	19559
868.756	19765
868.886	19449
869.017	19499
869.147	19677
869.278	19635
869.408	19609
869.539	19567
869.669	19529
869.799	19681
869.929	19651
870.06	19605
870.19	19928
870.32	19921
870.45	19989
870.58	19982
870.71	20027
870.84	20134
870.97	19963
871.1	19959
871.23	20134
871.36	20275
871.489	20027
871.619	20069
871.749	20092
871.879	20252
872.008	20351
872.138	20206
872.267	20153
872.397	20119
872.526	20016
872.656	20046
872.785	19928
872.915	20176
873.044	20252
873.173	20195
873.303	20301
873.432	20259
873.561	20400
873.69	20225
873.819	20164
873.948	20305
874.077	20301
874.206	20134
874.335	20206
874.464	20362
874.593	20511
874.722	20396
874.851	20594
874.979	20583
875.108	20530
875.237	20480
875.365	20343
875.494	20347
875.623	20473
875.751	20415
875.88	20457
876.008	20636
876.136	20625
876.265	20937
876.393	20929
876.521	20906
876.65	21009
876.778	20910
876.906	20788
877.034	20796
877.162	20918
877.29	20716
877.418	20712
877.546	20804
877.674	20746
877.802	20910
877.93	20727
878.058	20720
878.185	20777
878.313	20712
878.441	20800
878.568	20575
878.696	20788
878.824	20921
878.951	20883
879.079	20994
879.206	21180
879.333	21013
879.461	20830
879.588	20963
879.715	20986
879.842	21096
879.97	20800
880.097	20640
880.224	20590
880.351	20693
880.478	20621
880.605	20518
880.732	20667
880.859	20857
880.986	20613
881.112	20648
881.239	20602
881.366	20286
881.493	20282
881.619	20180
881.746	20275
881.872	20309
881.999	20218
882.125	20275
882.252	20294
882.378	20305
882.505	20431
882.631	20092
882.757	20134
882.883	20039
883.01	19989
883.136	19970
883.262	19795
883.388	19772
883.514	20073
883.64	20062
883.766	19887
883.892	19830
884.018	19780
884.143	20039
884.269	20016
884.395	19734
884.52	19628
884.646	19753
884.772	19655
884.897	19472
885.023	19704
885.148	19822
885.274	19841
885.399	19715
885.524	19616
885.65	19723
885.775	19689
885.9	19662
886.025	19753
886.15	19769
886.275	19559
886.4	19506
886.525	19510
886.65	19559
886.775	19502
886.9	19738
887.025	19837
887.149	19655
887.274	19548
887.399	19316
887.523	19407
887.648	19377
887.773	19297
887.897	19396
888.021	19403
888.146	19453
888.27	19502
888.395	19609
888.519	19453
888.643	19540
888.767	19369
888.891	19358
889.015	19137
889.139	19251
889.263	19156
889.387	19228
889.511	19453
889.635	19209
889.759	19088
889.883	19255
890.006	19217
890.13	19194
890.254	19225
890.377	19141
890.501	19023
890.624	18954
890.748	19034
890.871	18856
890.995	18764
891.118	18745
891.241	18825
891.364	18837
891.488	18932
891.611	18810
891.734	18837
891.857	18738
891.98	18745
892.103	18837
892.226	18806
892.349	18863
892.471	18642
892.594	18783
892.717	18913
892.839	18654
892.962	18878
893.085	18779
893.207	18734
893.33	18650
893.452	18589
893.575	18749
893.697	18711
893.819	18856
893.941	19000
894.064	18844
894.186	18749
894.308	18642
894.43	18760
894.552	18901
894.674	18882
894.796	18639
894.918	18795
895.04	18722
895.161	18837
895.283	18798
895.405	18757
895.526	18757
895.648	18776
895.769	18863
895.891	18783
896.012	18890
896.134	18837
896.255	18795
896.376	18749
896.498	18875
896.619	18890
896.74	18821
896.861	18909
896.982	19095
897.103	19289
897.224	19137
897.345	19057
897.466	18878
897.587	19015
897.708	19183
897.828	19107
897.949	19103
898.07	18897
898.19	19031
898.311	18981
898.431	18954
898.552	18989
898.672	19031
898.792	18996
898.913	18958
899.033	18817
899.153	18798
899.273	18654
899.393	18726
899.513	18700
899.633	18722
899.753	18787
899.873	18608
899.993	18764
900.113	18677
900.232	18684
900.352	18798
900.472	18551
900.591	18372
900.711	18681
900.83	18498
900.95	18570
901.069	18547
901.189	18566
901.308	18182
901.427	18178
901.546	18163
901.665	18228
901.784	18171
901.904	18041
902.023	17878
902.141	17726
902.26	17638
902.379	17691
902.498	17661
902.617	17653
902.735	17638
902.854	17596
902.973	17535
903.091	17383
903.21	17280
903.328	17387
903.446	17204
903.565	17132
903.683	17212
903.801	17010
903.919	17193
904.038	17083
904.156	16869
904.274	17037
904.392	16831
904.51	16858
904.627	16877
904.745	16900
904.863	16930
904.981	16721
905.098	16531
905.216	16573
905.334	16622
905.451	16656
905.569	16573
905.686	16645
905.803	16573
905.921	16394
906.038	16523
906.155	16360
906.272	16219
906.389	16363
906.506	16131
906.623	16116
906.74	16025
906.857	16063
906.974	15991
907.091	16131
907.208	16230
907.324	16150
907.441	16013
907.557	15854
907.674	15785
907.79	15751
907.907	15793
908.023	15888
908.139	15774
908.256	15724
908.372	15701
908.488	15641
908.604	15519
908.72	15580
908.836	15637
908.952	15587
909.068	15568
909.184	15492
909.3	15576
909.415	15504
909.531	15507
909.647	15203
909.762	15279
909.878	15298
909.993	15256
910.108	15211
910.224	15272
910.339	15180
910.454	15100
910.57	14967
910.685	14937
910.8	15275
910.915	15173
911.03	15009
911.145	14788
911.259	14785
911.374	14777
911.489	14686
911.604	14606
911.718	14537
911.833	14610
911.947	14446
912.062	14309
912.176	14537
912.291	14480
912.405	14499
912.519	14727
912.633	14667
912.748	14579
912.862	14503
912.976	14389
913.09	14206
913.204	14271
913.318	14408
913.431	14480
913.545	14492
913.659	14450
913.772	14370
913.886	14275
914	14183
914.113	14355
914.226	14328
914.34	14214
914.453	14176
914.566	14301
914.68	14084
914.793	14096
914.906	13978
915.019	13947
915.132	13746
915.245	13807
915.358	13951
915.47	13803
915.583	13871
915.696	14008
915.809	14062
915.921	14065
916.034	13845
916.146	13784
916.259	13753
916.371	13837
916.483	13871
916.595	13719
916.708	13765
916.82	13719
916.932	13708
917.044	13761
917.156	13632
917.268	13605
917.38	13719
917.491	13556
917.603	13571
917.715	13693
917.826	13765
917.938	13430
918.049	13403
918.161	13609
918.272	13639
918.384	13590
918.495	13510
918.606	13396
918.717	13285
918.828	13346
918.939	13392
919.05	13335
919.161	13232
919.272	13122
919.383	13164
919.494	13419
919.604	13582
919.715	13365
919.826	13270
919.936	13297
920.047	13441
920.157	13327
920.267	13449
920.378	13289
920.488	13346
920.598	13556
920.708	13670
920.818	13419
920.928	13411
921.038	13632
921.148	13575
921.258	13297
921.368	13187
921.477	13118
921.587	13141
921.697	12951
921.806	13050
921.916	13004
922.025	12837
922.134	12753
922.244	12654
922.353	12764
922.462	12601
922.571	12589
922.68	12361
922.789	12346
922.898	12376
923.007	12327
923.116	12490
923.224	12346
923.333	12254
923.442	12232
923.55	12266
923.659	12285
923.767	12270
923.876	12163
923.984	12247
924.092	12224
924.201	12152
924.309	12182
924.417	12144
924.525	12049
924.633	12079
924.741	12833
924.849	11958
924.956	12007
925.064	11908
925.172	11828
925.279	11870
925.387	11836
925.494	11840
925.602	11992
925.709	11893
925.816	11748
925.924	11863
926.031	11897
926.138	11775
926.245	11813
926.352	11756
926.459	11912
926.566	11961
926.673	11809
926.779	11596
926.886	11653
926.993	11493
927.099	11509
927.206	11433
927.312	11433
927.419	11566
927.525	11516
927.631	11490
927.737	11410
927.843	11284
927.95	11208
928.056	11280
928.162	11254
928.267	11364
928.373	11973
928.479	11417
928.585	11147
928.69	11269
928.796	11326
928.901	11155
929.007	11079
929.112	11178
929.218	11121
929.323	11086
929.428	11079
929.533	11170
929.638	10972
929.743	11041
929.848	11121
929.953	11018
930.058	10892
930.163	10782
930.267	10767
930.372	10927
930.477	10649
930.581	10953
930.685	10847
930.79	10626
930.894	10596
930.998	10607
931.103	10733
931.207	10337
931.311	10363
931.415	10268
931.519	10040
931.623	10036
