Data from test_V78500241_33.txt Node
Date: Fri Mar 25 15:10:05 CST 2022
User: usil
Spectrometer: V785-0024
Trigger mode: 0
Integration Time (sec): 4.000000E-1
Scans to average: 1
Nonlinearity correction enabled: false
Boxcar width: 0
Storing dark spectrum: false
XAxis mode: Wavelengths
Number of Pixels in Spectrum: 1024
>>>>>Begin Spectral Data<<<<<
801.071	28607
801.214	28660
801.356	28493
801.499	28310
801.641	28192
801.783	28200
801.926	28291
802.068	28246
802.211	28086
802.353	28166
802.496	27857
802.638	27979
802.78	27800
802.923	27743
803.065	27686
803.208	27660
803.35	27663
803.492	27816
803.635	27884
803.777	27842
803.919	27911
804.061	28295
804.204	27945
804.346	27857
804.488	27747
804.63	27903
804.773	27705
804.915	27922
805.057	28021
805.199	27842
805.341	27987
805.483	27972
805.626	27987
805.768	27922
805.91	28044
806.052	28010
806.194	27827
806.336	28086
806.478	27960
806.62	28040
806.762	28017
806.904	28223
807.046	28443
807.188	28363
807.33	28249
807.472	28333
807.614	28150
807.756	28192
807.898	28150
808.04	27903
808.182	28051
808.324	28280
808.465	28048
808.607	28150
808.749	28436
808.891	28504
809.033	28470
809.174	28436
809.316	28409
809.458	28363
809.6	28257
809.741	28622
809.883	28394
810.025	28421
810.166	28698
810.308	28660
810.45	28577
810.591	28478
810.733	28379
810.875	28432
811.016	28234
811.158	28097
811.299	28234
811.441	28352
811.582	28440
811.724	28398
811.865	28173
812.007	28185
812.148	28265
812.29	28337
812.431	28485
812.573	28592
812.714	28698
812.855	28801
812.997	28953
813.138	29014
813.279	28923
813.421	28892
813.562	28900
813.703	28656
813.845	28550
813.986	28143
814.127	27994
814.268	27899
814.41	27770
814.551	27914
814.692	27926
814.833	27842
814.974	27831
815.115	27816
815.256	27751
815.397	27812
815.539	27629
815.68	27564
815.821	27572
815.962	27637
816.103	27682
816.244	27462
816.385	27412
816.526	27344
816.666	27150
816.807	27009
816.948	27100
817.089	27074
817.23	27058
817.371	26925
817.512	27081
817.653	26944
817.793	27085
817.934	26963
818.075	26952
818.216	26887
818.356	26963
818.497	26739
818.638	26571
818.778	26590
818.919	26750
819.06	26716
819.2	26807
819.341	26777
819.481	26830
819.622	26967
819.762	27180
819.903	27249
820.043	27070
820.184	26906
820.324	26986
820.465	27116
820.605	26925
820.746	26929
820.886	26853
821.026	26819
821.167	26883
821.307	27081
821.447	26819
821.588	26758
821.728	26541
821.868	26473
822.008	26343
822.149	26415
822.289	26278
822.429	26073
822.569	26024
822.709	25951
822.849	25780
822.99	25849
823.13	25932
823.27	25746
823.41	25639
823.55	25537
823.69	25514
823.83	25666
823.97	25571
824.11	25468
824.25	25145
824.389	25308
824.529	25457
824.669	25460
824.809	25495
824.949	25548
825.089	25464
825.228	25346
825.368	25156
825.508	25236
825.648	25141
825.787	25168
825.927	25232
826.067	25240
826.206	25236
826.346	25118
826.485	25266
826.625	25137
826.765	25251
826.904	25289
827.044	24890
827.183	24928
827.323	24848
827.462	24779
827.601	24745
827.741	24833
827.88	24798
828.02	24669
828.159	24829
828.298	24829
828.437	24848
828.577	24745
828.716	24825
828.855	24661
828.994	24536
829.134	24532
829.273	24574
829.412	24559
829.551	24334
829.69	24323
829.829	24475
829.968	24563
830.107	24525
830.246	24525
830.385	24308
830.524	24357
830.663	24292
830.802	24205
830.941	24026
831.08	23988
831.219	24201
831.357	24136
831.496	24338
831.635	24026
831.774	23897
831.913	23897
832.051	23779
832.19	23695
832.329	23790
832.467	23680
832.606	23672
832.744	23668
832.883	23623
833.022	23699
833.16	23665
833.299	23710
833.437	23585
833.576	23695
833.714	23646
833.852	23726
833.991	23653
834.129	23874
834.267	23684
834.406	23634
834.544	23646
834.682	23687
834.821	23627
834.959	23745
835.097	23531
835.235	23668
835.373	23585
835.511	23562
835.65	23376
835.788	23543
835.926	23261
836.064	23223
836.202	23273
836.34	23448
836.478	23444
836.615	23493
836.753	23539
836.891	23611
837.029	23444
837.167	23303
837.305	23273
837.443	23410
837.58	23303
837.718	23436
837.856	23387
837.993	23425
838.131	23360
838.269	23208
838.406	23086
838.544	23258
838.681	23048
838.819	22938
838.956	22710
839.094	22618
839.231	22809
839.369	22835
839.506	23109
839.643	22953
839.781	22736
839.918	22668
840.055	22599
840.193	22561
840.33	22603
840.467	22668
840.604	22835
840.742	22843
840.879	22413
841.016	22561
841.153	22577
841.29	22660
841.427	22573
841.564	22573
841.701	22668
841.838	22455
841.975	22500
842.112	22504
842.249	22299
842.385	22207
842.522	22417
842.659	22242
842.796	22261
842.933	22230
843.069	22276
843.206	22261
843.343	22356
843.479	22428
843.616	22344
843.752	22029
843.889	21949
844.025	22192
844.162	21975
844.298	22200
844.435	21964
844.571	21953
844.708	22048
844.844	22169
844.98	22082
845.117	22128
845.253	22013
845.389	21930
845.525	21941
845.661	21865
845.798	21667
845.934	21781
846.07	21671
846.206	21766
846.342	21907
846.478	21614
846.614	21576
846.75	21443
846.886	21359
847.022	21370
847.158	21469
847.294	21401
847.429	21462
847.565	21542
847.701	21614
847.837	21211
847.972	21184
848.108	21104
848.244	21184
848.379	21081
848.515	20998
848.65	20842
848.786	20963
848.921	21043
849.057	21039
849.192	21058
849.328	20967
849.463	20982
849.598	20971
849.734	20872
849.869	20819
850.004	20686
850.14	20716
850.275	20697
850.41	20663
850.545	20800
850.68	20781
850.815	20724
850.95	20743
851.085	20948
851.22	20788
851.355	20667
851.49	20663
851.625	20689
851.76	20609
851.895	20625
852.03	20590
852.165	20727
852.299	20670
852.434	20689
852.569	20842
852.703	20724
852.838	20655
852.973	20781
853.107	20788
853.242	20606
853.376	20484
853.511	20438
853.645	20457
853.78	20579
853.914	20469
854.048	20442
854.183	20454
854.317	20568
854.451	20788
854.585	20522
854.72	20400
854.854	20537
854.988	20450
855.122	20537
855.256	20389
855.39	20526
855.524	20644
855.658	20556
855.792	20640
855.926	20541
856.06	20415
856.194	20560
856.327	20446
856.461	20404
856.595	20389
856.729	20393
856.862	20549
856.996	20343
857.13	20587
857.263	20594
857.397	20465
857.53	20518
857.664	20450
857.797	20454
857.931	20537
858.064	20499
858.197	20552
858.331	20450
858.464	20362
858.597	20374
858.731	20423
858.864	20415
858.997	20336
859.13	20385
859.263	20415
859.396	20480
859.529	20358
859.662	20332
859.795	20480
859.928	20431
860.061	20609
860.194	20583
860.327	20492
860.46	20419
860.592	20484
860.725	20434
860.858	20499
860.99	20389
861.123	20237
861.256	20347
861.388	20415
861.521	20998
861.653	20381
861.786	20142
861.918	20210
862.05	20389
862.183	20461
862.315	20377
862.447	20389
862.58	20385
862.712	20183
862.844	20122
862.976	20320
863.108	20176
863.24	20545
863.372	20020
863.504	20149
863.636	20088
863.768	20126
863.9	20069
864.032	19986
864.164	19936
864.296	20100
864.428	20142
864.559	20058
864.691	20218
864.823	20100
864.954	20161
865.086	20035
865.217	20149
865.349	19940
865.48	20008
865.612	20092
865.743	20172
865.875	20081
866.006	19997
866.137	20001
866.269	19936
866.4	20001
866.531	19837
866.662	19860
866.793	19940
866.924	19967
867.055	19951
867.186	19909
867.317	19944
867.448	19849
867.579	19864
867.71	19791
867.841	19837
867.972	19963
868.103	19997
868.233	19890
868.364	19818
868.495	20031
868.625	20126
868.756	20263
868.886	20100
869.017	20161
869.147	20195
869.278	20313
869.408	20111
869.539	20199
869.669	20294
869.799	20096
869.929	20309
870.06	20229
870.19	20473
870.32	20389
870.45	20450
870.58	20541
870.71	20678
870.84	20678
870.97	20579
871.1	20632
871.23	20804
871.36	20834
871.489	20644
871.619	20708
871.749	20640
871.879	20769
872.008	20754
872.138	20735
872.267	20853
872.397	20648
872.526	20564
872.656	20670
872.785	20640
872.915	20746
873.044	20800
873.173	20788
873.303	20921
873.432	20838
873.561	20769
873.69	20765
873.819	20815
873.948	20872
874.077	20682
874.206	20800
874.335	20796
874.464	20921
874.593	20979
874.722	20994
874.851	21100
874.979	21043
875.108	21127
875.237	20914
875.365	20929
875.494	21100
875.623	21028
875.751	20986
875.88	20990
876.008	21142
876.136	21226
876.265	21443
876.393	21519
876.521	21431
876.65	21500
876.778	21462
876.906	21382
877.034	21386
877.162	21325
877.29	21340
877.418	21336
877.546	21340
877.674	21412
877.802	21283
877.93	21329
878.058	21260
878.185	21226
878.313	21367
878.441	21378
878.568	21195
878.696	21218
878.824	21348
878.951	21462
879.079	21583
879.206	21622
879.333	21572
879.461	21416
879.588	21378
879.715	21561
879.842	21580
879.97	21481
880.097	21237
880.224	21047
880.351	21256
880.478	21226
880.605	21173
880.732	21165
880.859	21466
880.986	21161
881.112	21100
881.239	21116
881.366	21055
881.493	20933
881.619	20724
881.746	20750
881.872	20849
881.999	20777
882.125	20720
882.252	20906
882.378	20834
882.505	20975
882.631	20682
882.757	20609
882.883	20583
883.01	20575
883.136	20461
883.262	20358
883.388	20442
883.514	20625
883.64	20545
883.766	20412
883.892	20233
884.018	20332
884.143	20450
884.269	20689
884.395	20298
884.52	20183
884.646	20210
884.772	20142
884.897	20058
885.023	20183
885.148	20324
885.274	20377
885.399	20324
885.524	20161
885.65	20275
885.775	20168
885.9	20142
886.025	20229
886.15	20309
886.275	20088
886.4	20115
886.525	20069
886.65	20122
886.775	20149
886.9	20305
887.025	20286
887.149	20100
887.274	19963
887.399	19852
887.523	19803
887.648	19974
887.773	19826
887.897	19982
888.021	19955
888.146	19795
888.27	19940
888.395	19947
888.519	19982
888.643	19906
888.767	20001
888.891	19811
889.015	19841
889.139	19776
889.263	19708
889.387	19822
889.511	19887
889.635	19784
889.759	19795
889.883	19658
890.006	19765
890.13	19841
890.254	19567
890.377	19624
890.501	19472
890.624	19362
890.748	19525
890.871	19384
890.995	19244
891.118	19160
891.241	19400
891.364	19293
891.488	19388
891.611	19274
891.734	19369
891.857	19339
891.98	19396
892.103	19304
892.226	19301
892.349	19209
892.471	19088
892.594	19240
892.717	19183
892.839	19168
892.962	19160
893.085	19358
893.207	19187
893.33	19069
893.452	19126
893.575	19251
893.697	19171
893.819	19472
893.941	19426
894.064	19308
894.186	19110
894.308	19148
894.43	19316
894.552	19377
894.674	19365
894.796	19187
894.918	19209
895.04	19171
895.161	19312
895.283	19255
895.405	19251
895.526	19240
895.648	19160
895.769	19304
895.891	19282
896.012	19343
896.134	19247
896.255	19335
896.376	19316
896.498	19263
896.619	19388
896.74	19396
896.861	19403
896.982	19525
897.103	19799
897.224	19578
897.345	19464
897.466	19472
897.587	19377
897.708	19590
897.828	19495
897.949	19434
898.07	19396
898.19	19381
898.311	19495
898.431	19422
898.552	19445
898.672	19510
898.792	19365
898.913	19506
899.033	19221
899.153	19251
899.273	19183
899.393	19114
899.513	19259
899.633	19183
899.753	19183
899.873	19084
899.993	19228
900.113	19099
900.232	19133
900.352	19065
900.472	19046
900.591	19015
900.711	19072
900.83	18867
900.95	19095
901.069	19004
901.189	18859
901.308	18776
901.427	18627
901.546	18585
901.665	18464
901.784	18604
901.904	18384
902.023	18319
902.141	18178
902.26	18167
902.379	18254
902.498	18102
902.617	17954
902.735	18079
902.854	17954
902.973	17984
903.091	17813
903.21	17809
903.328	17790
903.446	17604
903.565	17501
903.683	17512
903.801	17543
903.919	17509
904.038	17570
904.156	17372
904.274	17471
904.392	17322
904.51	17303
904.627	17261
904.745	17288
904.863	17360
904.981	17136
905.098	17010
905.216	16995
905.334	16980
905.451	17079
905.569	16961
905.686	16984
905.803	16942
905.921	16786
906.038	16793
906.155	16816
906.272	16790
906.389	16668
906.506	16500
906.623	16508
906.74	16523
906.857	16504
906.974	16428
907.091	16592
907.208	16660
907.324	16599
907.441	16436
907.557	16272
907.674	16238
907.79	16185
907.907	16261
908.023	16299
908.139	16234
908.256	16223
908.372	16154
908.488	16093
908.604	16032
908.72	15907
908.836	15895
908.952	15926
909.068	15922
909.184	16051
909.3	15835
909.415	15907
909.531	15838
909.647	15648
909.762	15652
909.878	15538
909.993	15595
910.108	15469
910.224	15496
910.339	15572
910.454	15507
910.57	15462
910.685	15359
910.8	15629
910.915	15553
911.03	15458
911.145	15279
911.259	15294
911.374	15241
911.489	15135
911.604	15207
911.718	14933
911.833	14948
911.947	14895
912.062	14762
912.176	14895
912.291	14952
912.405	14762
912.519	15131
912.633	15116
912.748	15024
912.862	14887
912.976	14819
913.09	14663
913.204	14705
913.318	14727
913.431	14868
913.545	14887
913.659	14834
913.772	14785
913.886	14610
914	14640
914.113	14693
914.226	14765
914.34	14693
914.453	14457
914.566	14674
914.68	14434
914.793	14454
914.906	14298
915.019	14267
915.132	14138
915.245	14237
915.358	14290
915.47	14267
915.583	14237
915.696	14275
915.809	14419
915.921	14351
916.034	14233
916.146	14199
916.259	14130
916.371	14248
916.483	14191
916.595	14149
916.708	14138
916.82	14111
916.932	13978
917.044	14092
917.156	14092
917.268	13890
917.38	13993
917.491	13868
917.603	13864
917.715	13951
917.826	13940
917.938	13772
918.049	13807
918.161	13909
918.272	14027
918.384	13997
918.495	13864
918.606	13674
918.717	13731
918.828	13685
918.939	13750
919.05	13544
919.161	13628
919.272	13506
919.383	13438
919.494	13681
919.604	13894
919.715	13704
919.826	13601
919.936	13575
920.047	13738
920.157	13582
920.267	13784
920.378	13651
920.488	13636
920.598	13807
920.708	13970
920.818	13875
920.928	13647
921.038	13963
921.148	13951
921.258	13567
921.368	13502
921.477	13339
921.587	13293
921.697	13232
921.806	13331
921.916	13141
922.025	13107
922.134	13046
922.244	12947
922.353	13019
922.462	12916
922.571	12798
922.68	12681
922.789	12677
922.898	12764
923.007	12544
923.116	12642
923.224	12589
923.333	12570
923.442	12399
923.55	12445
923.659	12475
923.767	12517
923.876	12464
923.984	12528
924.092	12380
924.201	12464
924.309	12464
924.417	12403
924.525	12289
924.633	12380
924.741	13160
924.849	12102
924.956	12266
925.064	12148
925.172	12098
925.279	12102
925.387	12167
925.494	12095
925.602	12155
925.709	12201
925.816	12098
925.924	12144
926.031	12159
926.138	12011
926.245	12095
926.352	11935
926.459	12068
926.566	12190
926.673	11927
926.779	11897
926.886	11840
926.993	11737
927.099	11714
927.206	11707
927.312	11611
927.419	11802
927.525	11604
927.631	11733
927.737	11630
927.843	11592
927.95	11436
928.056	11493
928.162	11520
928.267	11649
928.373	12289
928.479	11619
928.585	11360
928.69	11520
928.796	11486
928.901	11421
929.007	11239
929.112	11406
929.218	11421
929.323	11250
929.428	11353
929.533	11379
929.638	11220
929.743	11239
929.848	11303
929.953	11227
930.058	11098
930.163	10995
930.267	10968
930.372	11117
930.477	10881
930.581	11181
930.685	11052
930.79	10965
930.894	10866
930.998	10797
931.103	10980
931.207	10588
931.311	10504
931.415	10508
931.519	10287
931.623	10253
