Data from test_V78500241_1484.txt Node
Date: Fri Mar 25 15:20:11 CST 2022
User: usil
Spectrometer: V785-0024
Trigger mode: 0
Integration Time (sec): 4.000000E-1
Scans to average: 1
Nonlinearity correction enabled: false
Boxcar width: 0
Storing dark spectrum: false
XAxis mode: Wavelengths
Number of Pixels in Spectrum: 1024
>>>>>Begin Spectral Data<<<<<
801.071	28135
801.214	28006
801.356	27694
801.499	27572
801.641	27667
801.783	27610
801.926	27610
802.068	27523
802.211	27576
802.353	27408
802.496	27401
802.638	27279
802.78	27241
802.923	27279
803.065	27032
803.208	27096
803.35	27222
803.492	27310
803.635	27424
803.777	27291
803.919	27545
804.061	27789
804.204	27523
804.346	27450
804.488	27431
804.63	27370
804.773	27317
804.915	27469
805.057	27633
805.199	27329
805.341	27595
805.483	27633
805.626	27656
805.768	27511
805.91	27496
806.052	27500
806.194	27427
806.336	27850
806.478	27667
806.62	27553
806.762	27717
806.904	27823
807.046	28048
807.188	28002
807.33	28010
807.472	27895
807.614	27975
807.756	27998
807.898	27831
808.04	27797
808.182	27846
808.324	27937
808.465	27869
808.607	27949
808.749	28173
808.891	28352
809.033	28348
809.174	28154
809.316	28265
809.458	28135
809.6	28162
809.741	28215
809.883	28344
810.025	28451
810.166	28474
810.308	28611
810.45	28489
810.591	28432
810.733	28219
810.875	28276
811.016	28109
811.158	28154
811.299	28249
811.441	28421
811.582	28386
811.724	28177
811.865	28257
812.007	28246
812.148	28196
812.29	28204
812.431	28401
812.573	28508
812.714	28733
812.855	28736
812.997	28744
813.138	28976
813.279	28976
813.421	28824
813.562	28656
813.703	28557
813.845	28557
813.986	28128
814.127	28055
814.268	27953
814.41	27857
814.551	27857
814.692	27869
814.833	27747
814.974	27869
815.115	27953
815.256	27766
815.397	27785
815.539	27739
815.68	27633
815.821	27641
815.962	27694
816.103	27835
816.244	27526
816.385	27401
816.526	27538
816.666	27317
816.807	27252
816.948	27298
817.089	27355
817.23	27252
817.371	27089
817.512	27165
817.653	27161
817.793	27279
817.934	27268
818.075	27233
818.216	27294
818.356	27195
818.497	27005
818.638	27074
818.778	26902
818.919	26826
819.06	27032
819.2	27123
819.341	27142
819.481	27188
819.622	27325
819.762	27599
819.903	27500
820.043	27397
820.184	27245
820.324	27325
820.465	27344
820.605	27378
820.746	27302
820.886	27127
821.026	27260
821.167	27188
821.307	27370
821.447	27192
821.588	27123
821.728	26956
821.868	26918
822.008	26823
822.149	26632
822.289	26663
822.429	26389
822.569	26362
822.709	26381
822.849	26199
822.99	26130
823.13	26275
823.27	26225
823.41	26103
823.55	25727
823.69	25993
823.83	25963
823.97	26107
824.11	25681
824.25	25883
824.389	25845
824.529	25932
824.669	25765
824.809	25913
824.949	25970
825.089	25909
825.228	26035
825.368	25651
825.508	25704
825.648	25700
825.787	25795
825.927	25738
826.067	25814
826.206	25742
826.346	25715
826.485	25750
826.625	25689
826.765	25799
826.904	25784
827.044	25624
827.183	25506
827.323	25392
827.462	25495
827.601	25510
827.741	25350
827.88	25343
828.02	25206
828.159	25472
828.298	25438
828.437	25483
828.577	25422
828.716	25632
828.855	25266
828.994	25160
829.134	25152
829.273	25156
829.412	25031
829.551	25110
829.69	25129
829.829	25076
829.968	25213
830.107	25118
830.246	25187
830.385	25080
830.524	25084
830.663	24875
830.802	24875
830.941	24688
831.08	24738
831.219	24760
831.357	24715
831.496	24935
831.635	24779
831.774	24677
831.913	24692
832.051	24589
832.19	24593
832.329	24570
832.467	24509
832.606	24483
832.744	24433
832.883	24254
833.022	24327
833.16	24338
833.299	24513
833.437	24365
833.576	24475
833.714	24452
833.852	24536
833.991	24505
834.129	24540
834.267	24566
834.406	24460
834.544	24566
834.682	24502
834.821	24414
834.959	24661
835.097	24323
835.235	24544
835.373	24498
835.511	24597
835.65	24224
835.788	24353
835.926	24098
836.064	24239
836.202	24136
836.34	24289
836.478	24380
836.615	24167
836.753	24361
836.891	24315
837.029	24216
837.167	24163
837.305	24106
837.443	24243
837.58	24041
837.718	24174
837.856	24060
837.993	24041
838.131	24007
838.269	23988
838.406	24064
838.544	23980
838.681	23786
838.819	23741
838.956	23497
839.094	23547
839.231	23592
839.369	23707
839.506	24106
839.643	23714
839.781	23642
839.918	23551
840.055	23558
840.193	23627
840.33	23531
840.467	23531
840.604	23482
840.742	23737
840.879	23372
841.016	23349
841.153	23318
841.29	23707
841.427	23478
841.564	23570
841.701	23429
841.838	23414
841.975	23353
842.112	23299
842.249	23212
842.385	23311
842.522	23433
842.659	23216
842.796	23204
842.933	23265
843.069	23220
843.206	23147
843.343	23345
843.479	23288
843.616	23231
843.752	23056
843.889	23044
844.025	23124
844.162	23003
844.298	23128
844.435	22949
844.571	22930
844.708	22923
844.844	23242
844.98	23147
845.117	23079
845.253	22923
845.389	22919
845.525	22908
845.661	22843
845.798	22828
845.934	22774
846.07	22786
846.206	22755
846.342	23006
846.478	22748
846.614	22455
846.75	22303
846.886	22592
847.022	22588
847.158	22466
847.294	22474
847.429	22504
847.565	22440
847.701	22767
847.837	22230
847.972	22166
848.108	22272
848.244	22147
848.379	22219
848.515	21956
848.65	22181
848.786	21964
848.921	22032
849.057	22337
849.192	22109
849.328	22135
849.463	22230
849.598	22051
849.734	21964
849.869	21915
850.004	21785
850.14	21945
850.275	21819
850.41	21751
850.545	21793
850.68	21812
850.815	21899
850.95	21812
851.085	21972
851.22	21983
851.355	21842
851.49	21808
851.625	21812
851.76	21846
851.895	21751
852.03	21679
852.165	21865
852.299	21861
852.434	21899
852.569	21816
852.703	21907
852.838	21968
852.973	22025
853.107	21968
853.242	21755
853.376	21732
853.511	21542
853.645	21603
853.78	21785
853.914	21633
854.048	21591
854.183	21545
854.317	21629
854.451	21789
854.585	21644
854.72	21720
854.854	21644
854.988	21736
855.122	21717
855.256	21443
855.39	21606
855.524	21819
855.658	21606
855.792	21667
855.926	21705
856.06	21705
856.194	21720
856.327	21595
856.461	21629
856.595	21485
856.729	21538
856.862	21857
856.996	21652
857.13	21705
857.263	21728
857.397	21667
857.53	21610
857.664	21622
857.797	21694
857.931	21865
858.064	21618
858.197	21816
858.331	21671
858.464	21572
858.597	21580
858.731	21641
858.864	21572
858.997	21694
859.13	21679
859.263	21648
859.396	21732
859.529	21583
859.662	21572
859.795	21644
859.928	21679
860.061	21785
860.194	21781
860.327	21732
860.46	21603
860.592	21770
860.725	21876
860.858	21682
860.99	21644
861.123	21545
861.256	21538
861.388	21564
861.521	22226
861.653	21542
861.786	21477
861.918	21439
862.05	21443
862.183	21370
862.315	21595
862.447	21545
862.58	21538
862.712	21291
862.844	21359
862.976	21443
863.108	21325
863.24	21812
863.372	21222
863.504	21367
863.636	21310
863.768	21416
863.9	21367
864.032	21291
864.164	21310
864.296	21386
864.428	21401
864.559	21496
864.691	21321
864.823	21382
864.954	21321
865.086	21344
865.217	21233
865.349	21142
865.48	21214
865.612	21237
865.743	21466
865.875	21294
866.006	21188
866.137	21245
866.269	21283
866.4	21157
866.531	21108
866.662	21165
866.793	21176
866.924	21051
867.055	21214
867.186	21169
867.317	21199
867.448	21146
867.579	21161
867.71	21230
867.841	21085
867.972	21013
868.103	21047
868.233	21272
868.364	21173
868.495	21184
868.625	21424
868.756	21542
868.886	21279
869.017	21313
869.147	21435
869.278	21534
869.408	21428
869.539	21397
869.669	21542
869.799	21477
869.929	21530
870.06	21492
870.19	21652
870.32	21641
870.45	21671
870.58	21778
870.71	21842
870.84	21869
870.97	21861
871.1	21816
871.23	21907
871.36	21797
871.489	21998
871.619	21816
871.749	21956
871.879	22048
872.008	22055
872.138	21975
872.267	21975
872.397	21876
872.526	21770
872.656	21785
872.785	21876
872.915	22078
873.044	22105
873.173	21991
873.303	22101
873.432	22185
873.561	22131
873.69	22059
873.819	21934
873.948	22067
874.077	21941
874.206	21934
874.335	22124
874.464	22147
874.593	22234
874.722	22375
874.851	22299
874.979	22363
875.108	22333
875.237	22177
875.365	22070
875.494	22135
875.623	22204
875.751	22272
875.88	22246
876.008	22421
876.136	22459
876.265	22706
876.393	22656
876.521	22710
876.65	22694
876.778	22546
876.906	22645
877.034	22611
877.162	22504
877.29	22569
877.418	22527
877.546	22713
877.674	22455
877.802	22577
877.93	22557
878.058	22474
878.185	22417
878.313	22470
878.441	22580
878.568	22341
878.696	22554
878.824	22637
878.951	22725
879.079	22660
879.206	22767
879.333	22759
879.461	22634
879.588	22679
879.715	22748
879.842	22816
879.97	22649
880.097	22379
880.224	22341
880.351	22413
880.478	22424
880.605	22394
880.732	22516
880.859	22694
880.986	22322
881.112	22344
881.239	22204
881.366	22139
881.493	22097
881.619	21960
881.746	22044
881.872	21960
881.999	21934
882.125	21861
882.252	21941
882.378	21945
882.505	22158
882.631	21968
882.757	21854
882.883	21717
883.01	21770
883.136	21572
883.262	21530
883.388	21466
883.514	21652
883.64	21633
883.766	21557
883.892	21340
884.018	21363
884.143	21724
884.269	21690
884.395	21382
884.52	21275
884.646	21428
884.772	21138
884.897	21119
885.023	21230
885.148	21473
885.274	21351
885.399	21431
885.524	21355
885.65	21188
885.775	21405
885.9	21135
886.025	21245
886.15	21382
886.275	21207
886.4	21135
886.525	21211
886.65	21294
886.775	21077
886.9	21420
887.025	21553
887.149	21230
887.274	21184
887.399	21131
887.523	20979
887.648	21047
887.773	20921
887.897	21123
888.021	21039
888.146	21074
888.27	21176
888.395	21142
888.519	21173
888.643	21116
888.767	20982
888.891	20982
889.015	20895
889.139	20925
889.263	20941
889.387	21017
889.511	21055
889.635	21036
889.759	20807
889.883	20800
890.006	20910
890.13	21013
890.254	20823
890.377	20834
890.501	20670
890.624	20492
890.748	20697
890.871	20579
890.995	20431
891.118	20438
891.241	20423
891.364	20495
891.488	20541
891.611	20492
891.734	20385
891.857	20419
891.98	20549
892.103	20473
892.226	20404
892.349	20301
892.471	20218
892.594	20339
892.717	20385
892.839	20267
892.962	20305
893.085	20377
893.207	20355
893.33	20199
893.452	20240
893.575	20427
893.697	20358
893.819	20476
893.941	20545
894.064	20419
894.186	20145
894.308	20214
894.43	20377
894.552	20404
894.674	20503
894.796	20069
894.918	20168
895.04	20301
895.161	20317
895.283	20336
895.405	20229
895.526	20355
895.648	20317
895.769	20309
895.891	20259
896.012	20377
896.134	20294
896.255	20355
896.376	20229
896.498	20488
896.619	20374
896.74	20271
896.861	20282
896.982	20629
897.103	20834
897.224	20507
897.345	20480
897.466	20549
897.587	20583
897.708	20674
897.828	20655
897.949	20507
898.07	20400
898.19	20393
898.311	20507
898.431	20507
898.552	20518
898.672	20625
898.792	20629
898.913	20667
899.033	20362
899.153	20317
899.273	20275
899.393	20286
899.513	20278
899.633	20431
899.753	20332
899.873	20244
899.993	20351
900.113	20153
900.232	20161
900.352	20225
900.472	20187
900.591	19951
900.711	20016
900.83	20001
900.95	20214
901.069	20103
901.189	19986
901.308	19822
901.427	19704
901.546	19601
901.665	19628
901.784	19518
901.904	19472
902.023	19434
902.141	19099
902.26	19065
902.379	19228
902.498	19240
902.617	19069
902.735	19145
902.854	19015
902.973	19137
903.091	18787
903.21	18840
903.328	18894
903.446	18654
903.565	18722
903.683	18513
903.801	18601
903.919	18525
904.038	18509
904.156	18350
904.274	18486
904.392	18342
904.51	18296
904.627	18490
904.745	18327
904.863	18410
904.981	18194
905.098	18064
905.216	18015
905.334	18136
905.451	18106
905.569	18003
905.686	18045
905.803	18026
905.921	17939
906.038	17870
906.155	17874
906.272	17703
906.389	17722
906.506	17627
906.623	17649
906.74	17562
906.857	17467
906.974	17539
907.091	17558
907.208	17634
907.324	17554
907.441	17532
907.557	17330
907.674	17231
907.79	17288
907.907	17299
908.023	17185
908.139	17254
908.256	17166
908.372	17098
908.488	17159
908.604	17098
908.72	17136
908.836	16976
908.952	17003
909.068	16957
909.184	17075
909.3	17006
909.415	17003
909.531	16991
909.647	16793
909.762	16691
909.878	16763
909.993	16637
910.108	16774
910.224	16656
910.339	16710
910.454	16493
910.57	16508
910.685	16466
910.8	16721
910.915	16565
911.03	16451
911.145	16352
911.259	16405
911.374	16261
911.489	16207
911.604	16162
911.718	16048
911.833	16044
911.947	15994
912.062	15903
912.176	16071
912.291	16101
912.405	16051
912.519	16230
912.633	16135
912.748	16013
912.862	16002
912.976	15899
913.09	15785
913.204	15804
913.318	15892
913.431	15964
913.545	15987
913.659	15907
913.772	15736
913.886	15545
914	15641
914.113	15781
914.226	15808
914.34	15739
914.453	15561
914.566	15789
914.68	15591
914.793	15500
914.906	15313
915.019	15336
915.132	15233
915.245	15294
915.358	15321
915.47	15241
915.583	15230
915.696	15283
915.809	15389
915.921	15424
916.034	15249
916.146	15100
916.259	15207
916.371	15302
916.483	15291
916.595	15017
916.708	15154
916.82	15097
916.932	14994
917.044	14986
917.156	15032
917.268	14876
917.38	14937
917.491	14823
917.603	14944
917.715	14994
917.826	15081
917.938	14758
918.049	14754
918.161	14883
918.272	15013
918.384	15062
918.495	14845
918.606	14625
918.717	14693
918.828	14701
918.939	14689
919.05	14632
919.161	14644
919.272	14423
919.383	14511
919.494	14682
919.604	14796
919.715	14629
919.826	14610
919.936	14495
920.047	14674
920.157	14648
920.267	14849
920.378	14686
920.488	14617
920.598	14788
920.708	14891
920.818	14781
920.928	14758
921.038	14971
921.148	14872
921.258	14526
921.368	14579
921.477	14336
921.587	14305
921.697	14343
921.806	14339
921.916	14218
922.025	14012
922.134	13974
922.244	14039
922.353	14035
922.462	13864
922.571	13811
922.68	13628
922.789	13655
922.898	13685
923.007	13590
923.116	13616
923.224	13559
923.333	13597
923.442	13559
923.55	13468
923.659	13411
923.767	13487
923.876	13384
923.984	13407
924.092	13358
924.201	13419
924.309	13388
924.417	13312
924.525	13327
924.633	13285
924.741	14081
924.849	13145
924.956	13331
925.064	13171
925.172	13031
925.279	13076
925.387	13088
925.494	13107
925.602	13251
925.709	13072
925.816	13012
925.924	13038
926.031	13069
926.138	12920
926.245	13023
926.352	12962
926.459	13034
926.566	13152
926.673	12916
926.779	12833
926.886	12738
926.993	12589
927.099	12650
927.206	12578
927.312	12593
927.419	12582
927.525	12608
927.631	12665
927.737	12414
927.843	12391
927.95	12292
928.056	12369
928.162	12395
928.267	12445
928.373	12928
928.479	12555
928.585	12296
928.69	12338
928.796	12464
928.901	12262
929.007	12197
929.112	12365
929.218	12190
929.323	12251
929.428	12159
929.533	12224
929.638	12098
929.743	12098
929.848	12159
929.953	12114
930.058	11866
930.163	11741
930.267	11802
930.372	12053
930.477	11775
930.581	12034
930.685	11824
930.79	11760
930.894	11878
930.998	11726
931.103	11870
931.207	11467
931.311	11341
931.415	11360
931.519	11075
931.623	11079
