Data from test_V78500241_1640.txt Node
Date: Fri Mar 25 15:21:16 CST 2022
User: usil
Spectrometer: V785-0024
Trigger mode: 0
Integration Time (sec): 4.000000E-1
Scans to average: 1
Nonlinearity correction enabled: false
Boxcar width: 0
Storing dark spectrum: false
XAxis mode: Wavelengths
Number of Pixels in Spectrum: 1024
>>>>>Begin Spectral Data<<<<<
801.071	27633
801.214	27610
801.356	27367
801.499	27260
801.641	27355
801.783	27218
801.926	27294
802.068	27310
802.211	27245
802.353	27051
802.496	26998
802.638	27001
802.78	26872
802.923	26834
803.065	26804
803.208	26792
803.35	26823
803.492	26982
803.635	27138
803.777	26944
803.919	27036
804.061	27332
804.204	27127
804.346	26986
804.488	27100
804.63	26952
804.773	26853
804.915	27047
805.057	27214
805.199	27104
805.341	27154
805.483	27176
805.626	27211
805.768	27123
805.91	27154
806.052	27184
806.194	27176
806.336	27450
806.478	27214
806.62	27252
806.762	27336
806.904	27424
807.046	27701
807.188	27572
807.33	27663
807.472	27644
807.614	27485
807.756	27614
807.898	27511
808.04	27485
808.182	27313
808.324	27447
808.465	27473
808.607	27583
808.749	27770
808.891	27888
809.033	28002
809.174	27812
809.316	27781
809.458	27736
809.6	27701
809.741	28070
809.883	27857
810.025	28147
810.166	28112
810.308	28166
810.45	28192
810.591	27964
810.733	27899
810.875	27781
811.016	27789
811.158	27698
811.299	27835
811.441	27964
811.582	27941
811.724	27983
811.865	27747
812.007	27800
812.148	27972
812.29	27804
812.431	27968
812.573	28124
812.714	28443
812.855	28348
812.997	28432
813.138	28531
813.279	28360
813.421	28371
813.562	28188
813.703	28116
813.845	28143
813.986	27766
814.127	27561
814.268	27545
814.41	27500
814.551	27310
814.692	27504
814.833	27408
814.974	27424
815.115	27538
815.256	27466
815.397	27294
815.539	27275
815.68	27173
815.821	27161
815.962	27279
816.103	27363
816.244	27062
816.385	27028
816.526	27055
816.666	26853
816.807	26651
816.948	26807
817.089	26990
817.23	26944
817.371	26731
817.512	26796
817.653	26857
817.793	26644
817.934	26712
818.075	26785
818.216	26830
818.356	26731
818.497	26648
818.638	26522
818.778	26533
818.919	26617
819.06	26564
819.2	26659
819.341	26727
819.481	26617
819.622	26975
819.762	27085
819.903	26982
820.043	26891
820.184	26914
820.324	26823
820.465	26937
820.605	26876
820.746	26914
820.886	26712
821.026	26937
821.167	26773
821.307	26838
821.447	26834
821.588	26724
821.728	26575
821.868	26423
822.008	26374
822.149	26206
822.289	26214
822.429	26096
822.569	26001
822.709	25947
822.849	25700
822.99	25742
823.13	25635
823.27	25662
823.41	25556
823.55	25419
823.69	25655
823.83	25658
823.97	25540
824.11	25335
824.25	25335
824.389	25449
824.529	25525
824.669	25457
824.809	25460
824.949	25457
825.089	25434
825.228	25575
825.368	25320
825.508	25343
825.648	25274
825.787	25259
825.927	25285
826.067	25156
826.206	25251
826.346	25327
826.485	25244
826.625	25266
826.765	25373
826.904	25126
827.044	25038
827.183	25027
827.323	24943
827.462	25000
827.601	24901
827.741	24928
827.88	25004
828.02	24829
828.159	24951
828.298	24867
828.437	25000
828.577	24905
828.716	25050
828.855	24806
828.994	24711
829.134	24650
829.273	24658
829.412	24509
829.551	24585
829.69	24620
829.829	24810
829.968	24844
830.107	24719
830.246	24783
830.385	24703
830.524	24604
830.663	24437
830.802	24285
830.941	24224
831.08	24292
831.219	24433
831.357	24330
831.496	24429
831.635	24281
831.774	24144
831.913	24064
832.051	24091
832.19	24159
832.329	24072
832.467	23931
832.606	24041
832.744	23954
832.883	23901
833.022	23912
833.16	23965
833.299	23931
833.437	23939
833.576	23882
833.714	23988
833.852	24026
833.991	24159
834.129	24026
834.267	24098
834.406	24053
834.544	24060
834.682	24022
834.821	24011
834.959	24083
835.097	23958
835.235	24068
835.373	24026
835.511	24049
835.65	23923
835.788	23851
835.926	23840
836.064	23745
836.202	23676
836.34	23805
836.478	23874
836.615	23832
836.753	23741
836.891	23996
837.029	23878
837.167	23779
837.305	23741
837.443	23684
837.58	23748
837.718	23832
837.856	23786
837.993	23657
838.131	23604
838.269	23524
838.406	23642
838.544	23501
838.681	23292
838.819	23296
838.956	23216
839.094	23155
839.231	23140
839.369	23455
839.506	23570
839.643	23459
839.781	23235
839.918	23067
840.055	23117
840.193	23075
840.33	22999
840.467	23143
840.604	23086
840.742	23410
840.879	22927
841.016	22976
841.153	23083
841.29	23155
841.427	23124
841.564	23242
841.701	23170
841.838	23006
841.975	22930
842.112	23037
842.249	23010
842.385	22828
842.522	23098
842.659	22930
842.796	22900
842.933	22869
843.069	22771
843.206	22812
843.343	23079
843.479	22915
843.616	22934
843.752	22660
843.889	22797
844.025	22881
844.162	22584
844.298	22664
844.435	22603
844.571	22736
844.708	22641
844.844	22805
844.98	22778
845.117	22679
845.253	22618
845.389	22466
845.525	22481
845.661	22554
845.798	22398
845.934	22538
846.07	22398
846.206	22337
846.342	22577
846.478	22314
846.614	22120
846.75	22006
846.886	22078
847.022	22253
847.158	22230
847.294	22070
847.429	22306
847.565	22131
847.701	22310
847.837	21850
847.972	21816
848.108	21983
848.244	22013
848.379	21705
848.515	21808
848.65	21770
848.786	21652
848.921	21717
849.057	21835
849.192	21755
849.328	21675
849.463	21641
849.598	21648
849.734	21576
849.869	21583
850.004	21572
850.14	21447
850.275	21496
850.41	21466
850.545	21519
850.68	21412
850.815	21580
850.95	21428
851.085	21663
851.22	21576
851.355	21534
851.49	21408
851.625	21408
851.76	21336
851.895	21321
852.03	21348
852.165	21507
852.299	21538
852.434	21538
852.569	21431
852.703	21469
852.838	21519
852.973	21629
853.107	21587
853.242	21473
853.376	21287
853.511	21245
853.645	21256
853.78	21359
853.914	21283
854.048	21435
854.183	21218
854.317	21420
854.451	21424
854.585	21279
854.72	21291
854.854	21511
854.988	21256
855.122	21291
855.256	21313
855.39	21199
855.524	21405
855.658	21397
855.792	21218
855.926	21351
856.06	21378
856.194	21397
856.327	21264
856.461	21294
856.595	21214
856.729	21226
856.862	21351
856.996	21344
857.13	21389
857.263	21389
857.397	21272
857.53	21180
857.664	21332
857.797	21370
857.931	21359
858.064	21249
858.197	21454
858.331	21260
858.464	21142
858.597	21256
858.731	21317
858.864	21233
858.997	21245
859.13	21264
859.263	21287
859.396	21431
859.529	21249
859.662	21180
859.795	21325
859.928	21317
860.061	21355
860.194	21466
860.327	21329
860.46	21355
860.592	21321
860.725	21310
860.858	21264
860.99	21279
861.123	21256
861.256	21199
861.388	21405
861.521	21949
861.653	21135
861.786	21066
861.918	21131
862.05	21161
862.183	21138
862.315	21233
862.447	21397
862.58	21165
862.712	20986
862.844	21062
862.976	21116
863.108	20982
863.24	21386
863.372	20960
863.504	20990
863.636	21017
863.768	21051
863.9	20952
864.032	20887
864.164	20899
864.296	21020
864.428	21024
864.559	20990
864.691	20990
864.823	20967
864.954	20982
865.086	21039
865.217	20960
865.349	20811
865.48	20819
865.612	20975
865.743	21135
865.875	21017
866.006	20906
866.137	20921
866.269	20925
866.4	20868
866.531	20842
866.662	20754
866.793	20777
866.924	20815
867.055	20876
867.186	20876
867.317	20823
867.448	20682
867.579	20804
867.71	20743
867.841	20644
867.972	20849
868.103	20788
868.233	20925
868.364	20857
868.495	20815
868.625	21123
868.756	21195
868.886	20956
869.017	20891
869.147	21192
869.278	21218
869.408	21093
869.539	21058
869.669	20979
869.799	21089
869.929	21055
870.06	21157
870.19	21435
870.32	21329
870.45	21393
870.58	21466
870.71	21564
870.84	21485
870.97	21416
871.1	21428
871.23	21633
871.36	21583
871.489	21553
871.619	21644
871.749	21698
871.879	21679
872.008	21804
872.138	21561
872.267	21686
872.397	21538
872.526	21424
872.656	21511
872.785	21450
872.915	21641
873.044	21739
873.173	21724
873.303	21701
873.432	21724
873.561	21778
873.69	21736
873.819	21701
873.948	21698
874.077	21724
874.206	21656
874.335	21724
874.464	21865
874.593	21895
874.722	21930
874.851	21895
874.979	21892
875.108	21884
875.237	21892
875.365	21797
875.494	21819
875.623	21895
875.751	21873
875.88	21972
876.008	22120
876.136	22078
876.265	22318
876.393	22497
876.521	22386
876.65	22405
876.778	22299
876.906	22116
877.034	22253
877.162	22348
877.29	22181
877.418	22356
877.546	22219
877.674	22261
877.802	22310
877.93	22207
878.058	22181
878.185	22204
878.313	22249
878.441	22131
878.568	22086
878.696	22211
878.824	22306
878.951	22390
879.079	22516
879.206	22470
879.333	22447
879.461	22325
879.588	22344
879.715	22341
879.842	22382
879.97	22249
880.097	22147
880.224	21994
880.351	22105
880.478	22090
880.605	21972
880.732	22078
880.859	22329
880.986	22017
881.112	22101
881.239	22048
881.366	21857
881.493	21819
881.619	21637
881.746	21766
881.872	21736
881.999	21572
882.125	21587
882.252	21713
882.378	21599
882.505	21717
882.631	21481
882.757	21313
882.883	21462
883.01	21332
883.136	21298
883.262	21211
883.388	21142
883.514	21359
883.64	21378
883.766	21344
883.892	21188
884.018	21211
884.143	21340
884.269	21450
884.395	21070
884.52	21036
884.646	20952
884.772	20960
884.897	20975
885.023	21032
885.148	21070
885.274	21074
885.399	21081
885.524	21017
885.65	21039
885.775	21058
885.9	20982
886.025	21081
886.15	21070
886.275	20891
886.4	20971
886.525	20960
886.65	20838
886.775	20956
886.9	21085
887.025	21146
887.149	20971
887.274	20796
887.399	20754
887.523	20670
887.648	20640
887.773	20735
887.897	20857
888.021	20853
888.146	20617
888.27	20853
888.395	20765
888.519	20807
888.643	20750
888.767	20823
888.891	20602
889.015	20629
889.139	20667
889.263	20625
889.387	20720
889.511	20792
889.635	20750
889.759	20549
889.883	20651
890.006	20438
890.13	20735
890.254	20488
890.377	20415
890.501	20317
890.624	20362
890.748	20351
890.871	20183
890.995	20122
891.118	20084
891.241	20202
891.364	20084
891.488	20202
891.611	20202
891.734	20134
891.857	20176
891.98	20164
892.103	20142
892.226	20134
892.349	20020
892.471	19978
892.594	20073
892.717	20046
892.839	20081
892.962	20103
893.085	20172
893.207	20027
893.33	19830
893.452	19974
893.575	20046
893.697	19963
893.819	20180
893.941	20237
894.064	20164
894.186	19970
894.308	20073
894.43	20149
894.552	20206
894.674	20088
894.796	20008
894.918	20081
895.04	20084
895.161	20119
895.283	20039
895.405	19936
895.526	20046
895.648	20062
895.769	20001
895.891	20119
896.012	20069
896.134	20062
896.255	20081
896.376	20172
896.498	20100
896.619	20035
896.74	20134
896.861	20103
896.982	20294
897.103	20465
897.224	20229
897.345	20309
897.466	20252
897.587	20275
897.708	20347
897.828	20134
897.949	20149
898.07	20115
898.19	20130
898.311	20358
898.431	20187
898.552	20320
898.672	20282
898.792	20324
898.913	20244
899.033	20100
899.153	20062
899.273	20027
899.393	19959
899.513	19898
899.633	19974
899.753	20031
899.873	19989
899.993	20088
900.113	19940
900.232	19936
900.352	19807
900.472	19769
900.591	19811
900.711	19871
900.83	19765
900.95	19696
901.069	19944
901.189	19578
901.308	19468
901.427	19304
901.546	19369
901.665	19335
901.784	19373
901.904	19289
902.023	19168
902.141	18916
902.26	18829
902.379	18985
902.498	18878
902.617	18764
902.735	18833
902.854	18833
902.973	18795
903.091	18532
903.21	18654
903.328	18536
903.446	18357
903.565	18330
903.683	18357
903.801	18209
903.919	18285
904.038	18361
904.156	18152
904.274	18152
904.392	18121
904.51	18144
904.627	18083
904.745	18079
904.863	18228
904.981	17912
905.098	17859
905.216	17676
905.334	17722
905.451	17794
905.569	17726
905.686	17726
905.803	17794
905.921	17581
906.038	17710
906.155	17657
906.272	17528
906.389	17505
906.506	17425
906.623	17353
906.74	17387
906.857	17159
906.974	17223
907.091	17395
907.208	17444
907.324	17398
907.441	17204
907.557	17029
907.674	17045
907.79	16892
907.907	17075
908.023	17014
908.139	17003
908.256	17025
908.372	17003
908.488	17018
908.604	16763
908.72	16767
908.836	16748
908.952	16645
909.068	16706
909.184	16843
909.3	16721
909.415	16839
909.531	16691
909.647	16569
909.762	16405
909.878	16432
909.993	16504
910.108	16451
910.224	16398
910.339	16329
910.454	16230
910.57	16352
910.685	16337
910.8	16462
910.915	16459
911.03	16188
911.145	16150
911.259	16021
911.374	16002
911.489	15994
911.604	15930
911.718	15915
911.833	15835
911.947	15614
912.062	15625
912.176	15728
912.291	15819
912.405	15835
912.519	16010
912.633	15949
912.748	15846
912.862	15793
912.976	15625
913.09	15370
913.204	15606
913.318	15603
913.431	15713
913.545	15732
913.659	15793
913.772	15587
913.886	15466
914	15344
914.113	15469
914.226	15545
914.34	15500
914.453	15382
914.566	15454
914.68	15412
914.793	15268
914.906	15131
915.019	15093
915.132	15070
915.245	15032
915.358	15066
915.47	15032
915.583	15005
915.696	15001
915.809	15165
915.921	15176
916.034	15013
916.146	14967
916.259	14842
916.371	14960
916.483	14990
916.595	14990
916.708	14857
916.82	14826
916.932	14906
917.044	14823
917.156	14861
917.268	14769
917.38	14613
917.491	14693
917.603	14712
917.715	14864
917.826	14762
917.938	14613
918.049	14587
918.161	14621
918.272	14796
918.384	14762
918.495	14720
918.606	14590
918.717	14404
918.828	14480
918.939	14503
919.05	14370
919.161	14476
919.272	14206
919.383	14358
919.494	14499
919.604	14682
919.715	14419
919.826	14484
919.936	14412
920.047	14522
920.157	14454
920.267	14769
920.378	14457
920.488	14423
920.598	14613
920.708	14708
920.818	14514
920.928	14590
921.038	14697
921.148	14686
921.258	14362
921.368	14240
921.477	14210
921.587	14157
921.697	13947
921.806	14107
921.916	14123
922.025	13883
922.134	13849
922.244	13723
922.353	13890
922.462	13750
922.571	13586
922.68	13544
922.789	13468
922.898	13468
923.007	13453
923.116	13495
923.224	13407
923.333	13468
923.442	13445
923.55	13251
923.659	13285
923.767	13422
923.876	13244
923.984	13369
924.092	13320
924.201	13289
924.309	13251
924.417	13228
924.525	13088
924.633	13152
924.741	14069
924.849	13046
924.956	13118
925.064	12829
925.172	12951
925.279	12856
925.387	12932
925.494	12916
925.602	13038
925.709	12916
925.816	12757
925.924	12795
926.031	12905
926.138	12772
926.245	12943
926.352	12764
926.459	12894
926.566	12829
926.673	12757
926.779	12650
926.886	12681
926.993	12490
927.099	12490
927.206	12399
927.312	12407
927.419	12525
927.525	12460
927.631	12391
927.737	12361
927.843	12308
927.95	12194
928.056	12296
928.162	12270
928.267	12304
928.373	12989
928.479	12380
928.585	12110
928.69	12197
928.796	12289
928.901	12197
929.007	11965
929.112	12079
929.218	12136
929.323	12003
929.428	12053
929.533	12144
929.638	11920
929.743	11984
929.848	11977
929.953	11969
930.058	11843
930.163	11729
930.267	11771
930.372	11893
930.477	11748
930.581	11908
930.685	11684
930.79	11600
930.894	11600
930.998	11520
931.103	11695
931.207	11356
931.311	11284
931.415	11147
931.519	11041
931.623	10919
