Data from test_V78500241_3589.txt Node
Date: Fri Mar 25 15:34:50 CST 2022
User: usil
Spectrometer: V785-0024
Trigger mode: 0
Integration Time (sec): 4.000000E-1
Scans to average: 1
Nonlinearity correction enabled: false
Boxcar width: 0
Storing dark spectrum: false
XAxis mode: Wavelengths
Number of Pixels in Spectrum: 1024
>>>>>Begin Spectral Data<<<<<
801.071	27412
801.214	27249
801.356	27024
801.499	27039
801.641	27104
801.783	26838
801.926	26864
802.068	26887
802.211	26872
802.353	26739
802.496	26769
802.638	26526
802.78	26587
802.923	26457
803.065	26286
803.208	26602
803.35	26488
803.492	26708
803.635	26686
803.777	26465
803.919	26701
804.061	27032
804.204	26743
804.346	26587
804.488	26621
804.63	26697
804.773	26499
804.915	26659
805.057	26693
805.199	26613
805.341	26971
805.483	26853
805.626	26796
805.768	26807
805.91	26857
806.052	26838
806.194	26735
806.336	26853
806.478	26807
806.62	26781
806.762	26937
806.904	27017
807.046	27275
807.188	27241
807.33	27131
807.472	27184
807.614	27211
807.756	27096
807.898	27233
808.04	26956
808.182	26979
808.324	26998
808.465	27074
808.607	27245
808.749	27485
808.891	27542
809.033	27614
809.174	27454
809.316	27466
809.458	27241
809.6	27359
809.741	27530
809.883	27564
810.025	27660
810.166	27637
810.308	27705
810.45	27720
810.591	27641
810.733	27610
810.875	27249
811.016	27401
811.158	27393
811.299	27595
811.441	27572
811.582	27568
811.724	27462
811.865	27443
812.007	27317
812.148	27325
812.29	27618
812.431	27538
812.573	27682
812.714	27785
812.855	27914
812.997	28048
813.138	28055
813.279	28036
813.421	27953
813.562	27922
813.703	27720
813.845	27641
813.986	27279
814.127	27233
814.268	27085
814.41	26990
814.551	26937
814.692	27142
814.833	27032
814.974	26910
815.115	27032
815.256	26895
815.397	26944
815.539	27055
815.68	26914
815.821	26644
815.962	26845
816.103	26940
816.244	26670
816.385	26636
816.526	26724
816.666	26305
816.807	26294
816.948	26389
817.089	26404
817.23	26438
817.371	26328
817.512	26358
817.653	26267
817.793	26149
817.934	26427
818.075	26457
818.216	26343
818.356	26324
818.497	26256
818.638	26103
818.778	26035
818.919	26088
819.06	26210
819.2	26252
819.341	26450
819.481	26377
819.622	26389
819.762	26617
819.903	26617
820.043	26415
820.184	26450
820.324	26457
820.465	26503
820.605	26575
820.746	26499
820.886	26252
821.026	26370
821.167	26492
821.307	26507
821.447	26385
821.588	26214
821.728	26046
821.868	25909
822.008	25852
822.149	25822
822.289	25769
822.429	25594
822.569	25468
822.709	25540
822.849	25441
822.99	25232
823.13	25278
823.27	25266
823.41	25107
823.55	25053
823.69	25148
823.83	25206
823.97	25099
824.11	24909
824.25	24897
824.389	24905
824.529	25046
824.669	24871
824.809	25069
824.949	25046
825.089	24992
825.228	24863
825.368	24817
825.508	24810
825.648	24848
825.787	24795
825.927	24878
826.067	24741
826.206	24935
826.346	24878
826.485	24783
826.625	24966
826.765	25012
826.904	24848
827.044	24631
827.183	24688
827.323	24650
827.462	24589
827.601	24722
827.741	24433
827.88	24528
828.02	24490
828.159	24528
828.298	24559
828.437	24574
828.577	24441
828.716	24589
828.855	24448
828.994	24304
829.134	24338
829.273	24346
829.412	24186
829.551	24201
829.69	24209
829.829	24395
829.968	24342
830.107	24213
830.246	24266
830.385	24133
830.524	24155
830.663	24083
830.802	24003
830.941	23984
831.08	23817
831.219	23836
831.357	23920
831.496	24136
831.635	23927
831.774	23714
831.913	23756
832.051	23665
832.19	23668
832.329	23524
832.467	23691
832.606	23558
832.744	23486
832.883	23551
833.022	23512
833.16	23748
833.299	23813
833.437	23619
833.576	23596
833.714	23703
833.852	23745
833.991	23745
834.129	23649
834.267	23562
834.406	23554
834.544	23589
834.682	23630
834.821	23570
834.959	23813
835.097	23570
835.235	23665
835.373	23680
835.511	23528
835.65	23334
835.788	23501
835.926	23334
836.064	23083
836.202	23303
836.34	23417
836.478	23482
836.615	23509
836.753	23497
836.891	23531
837.029	23440
837.167	23368
837.305	23368
837.443	23349
837.58	23185
837.718	23398
837.856	23376
837.993	23258
838.131	23322
838.269	23185
838.406	23265
838.544	23216
838.681	22927
838.819	22908
838.956	22778
839.094	22839
839.231	22896
839.369	23105
839.506	23246
839.643	23086
839.781	22858
839.918	22736
840.055	22767
840.193	22656
840.33	22596
840.467	22763
840.604	22801
840.742	22965
840.879	22668
841.016	22592
841.153	22584
841.29	22645
841.427	22664
841.564	22683
841.701	22691
841.838	22641
841.975	22691
842.112	22675
842.249	22550
842.385	22519
842.522	22607
842.659	22668
842.796	22485
842.933	22390
843.069	22265
843.206	22394
843.343	22531
843.479	22455
843.616	22466
843.752	22284
843.889	22246
844.025	22291
844.162	22234
844.298	22337
844.435	22398
844.571	22207
844.708	22253
844.844	22428
844.98	22485
845.117	22413
845.253	22246
845.389	22139
845.525	22173
845.661	22093
845.798	21937
845.934	21968
846.07	21903
846.206	22055
846.342	22105
846.478	21918
846.614	21732
846.75	21641
846.886	21656
847.022	21728
847.158	21614
847.294	21618
847.429	21846
847.565	21778
847.701	22013
847.837	21500
847.972	21363
848.108	21526
848.244	21591
848.379	21348
848.515	21317
848.65	21294
848.786	21363
848.921	21275
849.057	21287
849.192	21450
849.328	21382
849.463	21256
849.598	21306
849.734	21188
849.869	21252
850.004	21005
850.14	21123
850.275	21081
850.41	21070
850.545	21131
850.68	21047
850.815	21089
850.95	21157
851.085	21336
851.22	21085
851.355	21104
851.49	21032
851.625	20948
851.76	21051
851.895	21001
852.03	20986
852.165	21180
852.299	21157
852.434	21131
852.569	21089
852.703	21024
852.838	21119
852.973	21207
853.107	21222
853.242	21009
853.376	21009
853.511	20872
853.645	20788
853.78	20967
853.914	21024
854.048	20876
854.183	20914
854.317	20895
854.451	21096
854.585	20880
854.72	20910
854.854	20998
854.988	20891
855.122	20975
855.256	20804
855.39	20994
855.524	21009
855.658	20994
855.792	20842
855.926	20998
856.06	20975
856.194	21081
856.327	20845
856.461	20849
856.595	20807
856.729	20956
856.862	21096
856.996	20971
857.13	21036
857.263	20990
857.397	20963
857.53	20872
857.664	20929
857.797	20963
857.931	20998
858.064	21028
858.197	20963
858.331	20864
858.464	20899
858.597	20800
858.731	20914
858.864	20849
858.997	20842
859.13	20925
859.263	20998
859.396	20956
859.529	20857
859.662	20849
859.795	20815
859.928	20880
860.061	21077
860.194	21108
860.327	21017
860.46	20929
860.592	21032
860.725	21180
860.858	21081
860.99	20952
861.123	20648
861.256	20849
861.388	20990
861.521	21854
861.653	20800
861.786	20746
861.918	20678
862.05	20807
862.183	20883
862.315	20705
862.447	20982
862.58	20845
862.712	20727
862.844	20613
862.976	20708
863.108	20686
863.24	21001
863.372	20609
863.504	20575
863.636	20651
863.768	20712
863.9	20590
864.032	20659
864.164	20636
864.296	20621
864.428	20792
864.559	20758
864.691	20617
864.823	20629
864.954	20579
865.086	20579
865.217	20526
865.349	20484
865.48	20454
865.612	20427
865.743	20636
865.875	20530
866.006	20480
866.137	20602
866.269	20609
866.4	20541
866.531	20511
866.662	20499
866.793	20495
866.924	20465
867.055	20522
867.186	20617
867.317	20419
867.448	20415
867.579	20385
867.71	20473
867.841	20499
867.972	20484
868.103	20511
868.233	20419
868.364	20476
868.495	20613
868.625	20678
868.756	20777
868.886	20705
869.017	20701
869.147	20849
869.278	20857
869.408	20804
869.539	20625
869.669	20746
869.799	20838
869.929	20861
870.06	20800
870.19	21028
870.32	20963
870.45	21024
870.58	21165
870.71	21184
870.84	21291
870.97	21157
871.1	21005
871.23	21378
871.36	21287
871.489	21321
871.619	21317
871.749	21298
871.879	21431
872.008	21363
872.138	21325
872.267	21435
872.397	21252
872.526	21291
872.656	21283
872.785	21256
872.915	21355
873.044	21515
873.173	21321
873.303	21275
873.432	21450
873.561	21405
873.69	21450
873.819	21344
873.948	21389
874.077	21397
874.206	21245
874.335	21393
874.464	21511
874.593	21652
874.722	21622
874.851	21625
874.979	21701
875.108	21614
875.237	21587
875.365	21580
875.494	21606
875.623	21641
875.751	21675
875.88	21557
876.008	21686
876.136	21709
876.265	21968
876.393	22120
876.521	21991
876.65	22158
876.778	21987
876.906	21972
877.034	21895
877.162	21865
877.29	21884
877.418	21972
877.546	22032
877.674	21797
877.802	22074
877.93	22010
878.058	21842
878.185	21644
878.313	22063
878.441	21987
878.568	21705
878.696	21873
878.824	22006
878.951	22055
879.079	22029
879.206	22257
879.333	22116
879.461	21869
879.588	21994
879.715	22116
879.842	22246
879.97	22105
880.097	21656
880.224	21705
880.351	21812
880.478	21759
880.605	21724
880.732	21751
880.859	22112
880.986	21755
881.112	21835
881.239	21660
881.366	21420
881.493	21367
881.619	21336
881.746	21336
881.872	21348
881.999	21408
882.125	21249
882.252	21340
882.378	21344
882.505	21481
882.631	21154
882.757	21043
882.883	21051
883.01	20998
883.136	20982
883.262	20952
883.388	20921
883.514	21112
883.64	21077
883.766	21017
883.892	20804
884.018	20845
884.143	20971
884.269	21020
884.395	20811
884.52	20636
884.646	20678
884.772	20575
884.897	20579
885.023	20754
885.148	20781
885.274	20887
885.399	20758
885.524	20701
885.65	20670
885.775	20708
885.9	20686
886.025	20716
886.15	20758
886.275	20697
886.4	20560
886.525	20689
886.65	20629
886.775	20594
886.9	20708
887.025	20929
887.149	20746
887.274	20438
887.399	20423
887.523	20469
887.648	20294
887.773	20305
887.897	20533
888.021	20598
888.146	20415
888.27	20461
888.395	20522
888.519	20507
888.643	20476
888.767	20617
888.891	20381
889.015	20267
889.139	20328
889.263	20259
889.387	20366
889.511	20438
889.635	20400
889.759	20237
889.883	20366
890.006	20317
890.13	20309
890.254	20290
890.377	20317
890.501	20005
890.624	20043
890.748	20126
890.871	19955
890.995	19940
891.118	19788
891.241	19913
891.364	19871
891.488	20008
891.611	19909
891.734	19932
891.857	19883
891.98	19822
892.103	19860
892.226	19856
892.349	19753
892.471	19742
892.594	19746
892.717	19788
892.839	19845
892.962	19822
893.085	19845
893.207	19723
893.33	19643
893.452	19753
893.575	19814
893.697	19769
893.819	19993
893.941	19883
894.064	19940
894.186	19784
894.308	19662
894.43	19811
894.552	19830
894.674	19856
894.796	19693
894.918	19704
895.04	19655
895.161	19727
895.283	19772
895.405	19639
895.526	19681
895.648	19681
895.769	19685
895.891	19765
896.012	19723
896.134	19814
896.255	19780
896.376	19776
896.498	19734
896.619	19776
896.74	19906
896.861	19830
896.982	20050
897.103	20248
897.224	20153
897.345	20024
897.466	20016
897.587	19940
897.708	20054
897.828	20054
897.949	19887
898.07	19769
898.19	19845
898.311	19925
898.431	20008
898.552	20100
898.672	19936
898.792	20088
898.913	19967
899.033	19845
899.153	19765
899.273	19727
899.393	19677
899.513	19833
899.633	19799
899.753	19700
899.873	19761
899.993	19750
900.113	19594
900.232	19708
900.352	19674
900.472	19552
900.591	19487
900.711	19540
900.83	19529
900.95	19590
901.069	19597
901.189	19552
901.308	19221
901.427	19042
901.546	19148
901.665	19206
901.784	19110
901.904	18867
902.023	18905
902.141	18757
902.26	18684
902.379	18810
902.498	18612
902.617	18578
902.735	18608
902.854	18616
902.973	18513
903.091	18403
903.21	18254
903.328	18323
903.446	18235
903.565	18045
903.683	18129
903.801	17980
903.919	18026
904.038	18133
904.156	17866
904.274	17874
904.392	17832
904.51	17828
904.627	17866
904.745	17912
904.863	17916
904.981	17680
905.098	17570
905.216	17611
905.334	17554
905.451	17604
905.569	17482
905.686	17524
905.803	17467
905.921	17368
906.038	17391
906.155	17383
906.272	17178
906.389	17410
906.506	17124
906.623	16995
906.74	17094
906.857	17014
906.974	16946
907.091	17124
907.208	17223
907.324	17079
907.441	16946
907.557	16744
907.674	16900
907.79	16748
907.907	16790
908.023	16858
908.139	16717
908.256	16733
908.372	16698
908.488	16683
908.604	16504
908.72	16588
908.836	16596
908.952	16558
909.068	16599
909.184	16622
909.3	16550
909.415	16531
909.531	16500
909.647	16272
909.762	16287
909.878	16147
909.993	16238
910.108	16162
910.224	16177
910.339	16223
910.454	16109
910.57	16135
910.685	15968
910.8	16310
910.915	16147
911.03	16051
911.145	15941
911.259	15838
911.374	15827
911.489	15728
911.604	15766
911.718	15637
911.833	15644
911.947	15530
912.062	15564
912.176	15656
912.291	15637
912.405	15667
912.519	15766
912.633	15812
912.748	15587
912.862	15473
912.976	15485
913.09	15389
913.204	15378
913.318	15420
913.431	15431
913.545	15416
913.659	15606
913.772	15294
913.886	15302
914	15214
914.113	15325
914.226	15222
914.34	15317
914.453	15119
914.566	15150
914.68	15093
914.793	14994
914.906	14998
915.019	14838
915.132	14762
915.245	14811
915.358	14845
915.47	14788
915.583	14842
915.696	14887
915.809	14819
915.921	15043
916.034	14731
916.146	14758
916.259	14667
916.371	14754
916.483	14750
916.595	14659
916.708	14731
916.82	14648
916.932	14625
917.044	14606
917.156	14610
917.268	14488
917.38	14518
917.491	14476
917.603	14530
917.715	14571
917.826	14610
917.938	14511
918.049	14309
918.161	14404
918.272	14549
918.384	14522
918.495	14393
918.606	14221
918.717	14218
918.828	14290
918.939	14286
919.05	14199
919.161	14202
919.272	14012
919.383	14221
919.494	14294
919.604	14396
919.715	14221
919.826	14168
919.936	14187
920.047	14374
920.157	14237
920.267	14385
920.378	14237
920.488	14176
920.598	14419
920.708	14507
920.818	14374
920.928	14370
921.038	14495
921.148	14442
921.258	14123
921.368	13993
921.477	13982
921.587	13993
921.697	13826
921.806	13974
921.916	13746
922.025	13715
922.134	13609
922.244	13582
922.353	13651
922.462	13506
922.571	13472
922.68	13236
922.789	13289
922.898	13358
923.007	13221
923.116	13331
923.224	13198
923.333	13141
923.442	13129
923.55	13034
923.659	13095
923.767	13107
923.876	13122
923.984	13126
924.092	12958
924.201	13126
924.309	13061
924.417	12981
924.525	12966
924.633	12939
924.741	13753
924.849	12692
924.956	12814
925.064	12798
925.172	12578
925.279	12722
925.387	12665
925.494	12688
925.602	12825
925.709	12703
925.816	12574
925.924	12585
926.031	12715
926.138	12642
926.245	12734
926.352	12627
926.459	12726
926.566	12684
926.673	12608
926.779	12479
926.886	12388
926.993	12372
927.099	12213
927.206	12155
927.312	12262
927.419	12361
927.525	12197
927.631	12285
927.737	12171
927.843	12076
927.95	11961
928.056	12171
928.162	12060
928.267	12186
928.373	12582
928.479	12110
928.585	11870
928.69	12034
928.796	12079
928.901	11965
929.007	11893
929.112	11904
929.218	11901
929.323	11882
929.428	11783
929.533	11939
929.638	11665
929.743	11817
929.848	11824
929.953	11752
930.058	11642
930.163	11486
930.267	11604
930.372	11748
930.477	11444
930.581	11779
930.685	11528
930.79	11425
930.894	11391
930.998	11391
931.103	11433
931.207	11132
931.311	11090
931.415	10987
931.519	10778
931.623	10740
