Data from test_V78500241_1450.txt Node
Date: Fri Mar 25 15:19:57 CST 2022
User: usil
Spectrometer: V785-0024
Trigger mode: 0
Integration Time (sec): 4.000000E-1
Scans to average: 1
Nonlinearity correction enabled: false
Boxcar width: 0
Storing dark spectrum: false
XAxis mode: Wavelengths
Number of Pixels in Spectrum: 1024
>>>>>Begin Spectral Data<<<<<
801.071	28272
801.214	28215
801.356	28032
801.499	27895
801.641	27819
801.783	27759
801.926	27907
802.068	27823
802.211	27717
802.353	27671
802.496	27492
802.638	27576
802.78	27462
802.923	27538
803.065	27431
803.208	27344
803.35	27500
803.492	27595
803.635	27557
803.777	27458
803.919	27812
804.061	28025
804.204	27728
804.346	27618
804.488	27564
804.63	27656
804.773	27762
804.915	27827
805.057	27762
805.199	27808
805.341	27724
805.483	27968
805.626	27842
805.768	27789
805.91	27819
806.052	27987
806.194	27922
806.336	28101
806.478	27797
806.62	27953
806.762	28040
806.904	28040
807.046	28314
807.188	28280
807.33	28196
807.472	28360
807.614	28135
807.756	28139
807.898	28124
808.04	28090
808.182	28230
808.324	28059
808.465	28055
808.607	28375
808.749	28561
808.891	28535
809.033	28790
809.174	28611
809.316	28508
809.458	28588
809.6	28565
809.741	28557
809.883	28790
810.025	28908
810.166	28862
810.308	28736
810.45	28843
810.591	28683
810.733	28577
810.875	28493
811.016	28447
811.158	28405
811.299	28618
811.441	28725
811.582	28584
811.724	28451
811.865	28550
812.007	28481
812.148	28504
812.29	28641
812.431	28839
812.573	28972
812.714	28919
812.855	29075
812.997	29212
813.138	29250
813.279	29220
813.421	29151
813.562	29140
813.703	28942
813.845	28892
813.986	28516
814.127	28428
814.268	28196
814.41	28223
814.551	28177
814.692	28386
814.833	28226
814.974	28261
815.115	28211
815.256	28135
815.397	28013
815.539	28169
815.68	28112
815.821	27918
815.962	27914
816.103	28029
816.244	27838
816.385	27884
816.526	27956
816.666	27690
816.807	27561
816.948	27644
817.089	27694
817.23	27580
817.371	27610
817.512	27629
817.653	27614
817.793	27576
817.934	27397
818.075	27534
818.216	27382
818.356	27439
818.497	27492
818.638	27287
818.778	27268
818.919	27268
819.06	27317
819.2	27401
819.341	27641
819.481	27603
819.622	27682
819.762	27838
819.903	27846
820.043	27698
820.184	27663
820.324	27663
820.465	27667
820.605	27747
820.746	27568
820.886	27473
821.026	27675
821.167	27656
821.307	27694
821.447	27542
821.588	27534
821.728	27306
821.868	27173
822.008	26960
822.149	27020
822.289	26902
822.429	26750
822.569	26750
822.709	26583
822.849	26495
822.99	26404
823.13	26469
823.27	26423
823.41	26400
823.55	26336
823.69	26461
823.83	26423
823.97	26328
824.11	26157
824.25	26107
824.389	26111
824.529	26389
824.669	26126
824.809	26446
824.949	26153
825.089	26229
825.228	26275
825.368	25921
825.508	25982
825.648	26081
825.787	26153
825.927	26069
826.067	25833
826.206	26005
826.346	26115
826.485	26016
826.625	26103
826.765	26062
826.904	25989
827.044	25765
827.183	25856
827.323	25677
827.462	25909
827.601	25811
827.741	25719
827.88	25780
828.02	25655
828.159	25670
828.298	25788
828.437	25723
828.577	25655
828.716	25769
828.855	25620
828.994	25346
829.134	25544
829.273	25419
829.412	25358
829.551	25384
829.69	25445
829.829	25392
829.968	25559
830.107	25586
830.246	25449
830.385	25312
830.524	25308
830.663	25278
830.802	25217
830.941	25053
831.08	25095
831.219	25095
831.357	25251
831.496	25285
831.635	24939
831.774	24973
831.913	24928
832.051	24764
832.19	24859
832.329	24844
832.467	24757
832.606	24753
832.744	24692
832.883	24608
833.022	24749
833.16	24677
833.299	24901
833.437	24726
833.576	24787
833.714	24730
833.852	24734
833.991	24848
834.129	24939
834.267	24852
834.406	24707
834.544	24783
834.682	24665
834.821	24745
834.959	24909
835.097	24749
835.235	24814
835.373	24821
835.511	24661
835.65	24722
835.788	24665
835.926	24460
836.064	24338
836.202	24498
836.34	24597
836.478	24601
836.615	24604
836.753	24688
836.891	24498
837.029	24642
837.167	24528
837.305	24486
837.443	24540
837.58	24407
837.718	24399
837.856	24452
837.993	24270
838.131	24414
838.269	24243
838.406	24277
838.544	24140
838.681	24011
838.819	24053
838.956	23980
839.094	23912
839.231	23988
839.369	24041
839.506	24346
839.643	24060
839.781	23973
839.918	23874
840.055	23847
840.193	23893
840.33	23786
840.467	23927
840.604	23817
840.742	24003
840.879	23611
841.016	23767
841.153	23836
841.29	23885
841.427	23638
841.564	23767
841.701	23767
841.838	23687
841.975	23726
842.112	23756
842.249	23672
842.385	23509
842.522	23729
842.659	23657
842.796	23455
842.933	23490
843.069	23566
843.206	23634
843.343	23657
843.479	23581
843.616	23581
843.752	23284
843.889	23402
844.025	23474
844.162	23345
844.298	23417
844.435	23425
844.571	23242
844.708	23353
844.844	23463
844.98	23387
845.117	23463
845.253	23212
845.389	23261
845.525	23151
845.661	23094
845.798	22991
845.934	23136
846.07	22972
846.206	22991
846.342	23041
846.478	23060
846.614	22915
846.75	22721
846.886	22687
847.022	22805
847.158	22866
847.294	22869
847.429	22839
847.565	22748
847.701	22953
847.837	22523
847.972	22481
848.108	22474
848.244	22596
848.379	22470
848.515	22394
848.65	22310
848.786	22341
848.921	22310
849.057	22504
849.192	22409
849.328	22447
849.463	22466
849.598	22341
849.734	22261
849.869	22173
850.004	22128
850.14	22177
850.275	22234
850.41	22143
850.545	22097
850.68	22196
850.815	22120
850.95	22139
851.085	22276
851.22	22204
851.355	22192
851.49	22067
851.625	22010
851.76	22074
851.895	22131
852.03	22017
852.165	21975
852.299	22105
852.434	22219
852.569	22169
852.703	22105
852.838	22173
852.973	22291
853.107	22204
853.242	22013
853.376	21941
853.511	21861
853.645	21975
853.78	22021
853.914	21888
854.048	22025
854.183	21895
854.317	21991
854.451	22044
854.585	21926
854.72	21953
854.854	21975
854.988	21842
855.122	21998
855.256	21876
855.39	21968
855.524	22116
855.658	22036
855.792	22055
855.926	21941
856.06	21930
856.194	22002
856.327	21934
856.461	21884
856.595	21846
856.729	21937
856.862	22051
856.996	21975
857.13	21945
857.263	22044
857.397	22067
857.53	21979
857.664	21983
857.797	22101
857.931	21968
858.064	21953
858.197	21895
858.331	21884
858.464	21934
858.597	21800
858.731	21907
858.864	21915
858.997	21941
859.13	21972
859.263	21945
859.396	21960
859.529	21907
859.662	21907
859.795	21838
859.928	21899
860.061	22120
860.194	22135
860.327	22086
860.46	21972
860.592	22040
860.725	22097
860.858	21975
860.99	22013
861.123	21846
861.256	21945
861.388	21876
861.521	22618
861.653	21774
861.786	21717
861.918	21701
862.05	21800
862.183	21816
862.315	21911
862.447	21857
862.58	21808
862.712	21656
862.844	21549
862.976	21873
863.108	21622
863.24	22032
863.372	21580
863.504	21545
863.636	21709
863.768	21762
863.9	21629
864.032	21511
864.164	21572
864.296	21622
864.428	21774
864.559	21720
864.691	21751
864.823	21660
864.954	21709
865.086	21519
865.217	21545
865.349	21557
865.48	21485
865.612	21530
865.743	21671
865.875	21545
866.006	21504
866.137	21557
866.269	21553
866.4	21443
866.531	21500
866.662	21485
866.793	21397
866.924	21443
867.055	21507
867.186	21469
867.317	21488
867.448	21424
867.579	21397
867.71	21424
867.841	21344
867.972	21405
868.103	21439
868.233	21485
868.364	21443
868.495	21553
868.625	21686
868.756	21911
868.886	21660
869.017	21667
869.147	21831
869.278	21679
869.408	21736
869.539	21690
869.669	21720
869.799	21755
869.929	21838
870.06	21880
870.19	22059
870.32	22017
870.45	22002
870.58	22059
870.71	22223
870.84	22238
870.97	22025
871.1	22112
871.23	22265
871.36	22204
871.489	22158
871.619	22150
871.749	22135
871.879	22348
872.008	22337
872.138	22356
872.267	22371
872.397	22177
872.526	22169
872.656	22120
872.785	22120
872.915	22417
873.044	22280
873.173	22207
873.303	22325
873.432	22379
873.561	22443
873.69	22226
873.819	22314
873.948	22360
874.077	22280
874.206	22234
874.335	22211
874.464	22329
874.593	22615
874.722	22554
874.851	22660
874.979	22481
875.108	22584
875.237	22546
875.365	22440
875.494	22538
875.623	22607
875.751	22367
875.88	22500
876.008	22611
876.136	22755
876.265	22862
876.393	23090
876.521	22987
876.65	22858
876.778	22896
876.906	22801
877.034	22774
877.162	22820
877.29	22763
877.418	22885
877.546	22930
877.674	22892
877.802	22885
877.93	22934
878.058	22782
878.185	22793
878.313	22691
878.441	22862
878.568	22634
878.696	22733
878.824	22972
878.951	22892
879.079	23113
879.206	23200
879.333	23022
879.461	22850
879.588	22896
879.715	22972
879.842	23147
879.97	22854
880.097	22683
880.224	22592
880.351	22790
880.478	22675
880.605	22573
880.732	22630
880.859	22908
880.986	22679
881.112	22729
881.239	22516
881.366	22428
881.493	22382
881.619	22223
881.746	22322
881.872	22246
881.999	22249
882.125	22139
882.252	22177
882.378	22284
882.505	22348
882.631	22265
882.757	21926
882.883	22093
883.01	21930
883.136	22040
883.262	21831
883.388	21743
883.514	21842
883.64	21903
883.766	21808
883.892	21671
884.018	21755
884.143	21873
884.269	21907
884.395	21504
884.52	21473
884.646	21610
884.772	21492
884.897	21454
885.023	21644
885.148	21622
885.274	21641
885.399	21656
885.524	21542
885.65	21618
885.775	21648
885.9	21458
886.025	21781
886.15	21713
886.275	21526
886.4	21431
886.525	21458
886.65	21530
886.775	21386
886.9	21629
887.025	21804
887.149	21523
887.274	21317
887.399	21317
887.523	21363
887.648	21245
887.773	21199
887.897	21405
888.021	21260
888.146	21211
888.27	21348
888.395	21344
888.519	21428
888.643	21363
888.767	21310
888.891	21332
889.015	21154
889.139	21249
889.263	21058
889.387	21249
889.511	21283
889.635	21165
889.759	21199
889.883	21104
890.006	21104
890.13	21211
890.254	21127
890.377	21062
890.501	20952
890.624	20792
890.748	20819
890.871	20826
890.995	20689
891.118	20552
891.241	20686
891.364	20674
891.488	20781
891.611	20796
891.734	20735
891.857	20750
891.98	20659
892.103	20743
892.226	20640
892.349	20674
892.471	20476
892.594	20522
892.717	20758
892.839	20564
892.962	20488
893.085	20670
893.207	20484
893.33	20412
893.452	20632
893.575	20541
893.697	20537
893.819	20678
893.941	20720
894.064	20655
894.186	20499
894.308	20541
894.43	20640
894.552	20735
894.674	20609
894.796	20457
894.918	20571
895.04	20514
895.161	20621
895.283	20564
895.405	20419
895.526	20575
895.648	20488
895.769	20461
895.891	20522
896.012	20708
896.134	20670
896.255	20469
896.376	20446
896.498	20560
896.619	20648
896.74	20579
896.861	20575
896.982	20872
897.103	21074
897.224	20910
897.345	20769
897.466	20674
897.587	20731
897.708	20819
897.828	20792
897.949	20781
898.07	20530
898.19	20617
898.311	20941
898.431	20697
898.552	20682
898.672	20887
898.792	20853
898.913	20777
899.033	20655
899.153	20552
899.273	20575
899.393	20476
899.513	20518
899.633	20556
899.753	20526
899.873	20434
899.993	20511
900.113	20469
900.232	20400
900.352	20442
900.472	20317
900.591	20195
900.711	20347
900.83	20199
900.95	20423
901.069	20301
901.189	20092
901.308	19947
901.427	19849
901.546	19932
901.665	19902
901.784	19795
901.904	19712
902.023	19681
902.141	19350
902.26	19419
902.379	19521
902.498	19346
902.617	19388
902.735	19426
902.854	19362
902.973	19377
903.091	19122
903.21	19160
903.328	19080
903.446	19076
903.565	18913
903.683	18852
903.801	18696
903.919	18852
904.038	18711
904.156	18582
904.274	18738
904.392	18532
904.51	18646
904.627	18570
904.745	18612
904.863	18692
904.981	18479
905.098	18357
905.216	18330
905.334	18365
905.451	18311
905.569	18205
905.686	18273
905.803	18281
905.921	18026
906.038	18235
906.155	18030
906.272	18076
906.389	17878
906.506	17939
906.623	17775
906.74	17779
906.857	17699
906.974	17779
907.091	17893
907.208	17870
907.324	17916
907.441	17771
907.557	17516
907.674	17520
907.79	17448
907.907	17376
908.023	17505
908.139	17497
908.256	17452
908.372	17406
908.488	17368
908.604	17334
908.72	17208
908.836	17315
908.952	17246
909.068	17353
909.184	17349
909.3	17220
909.415	17311
909.531	17261
909.647	17006
909.762	16972
909.878	16965
909.993	16987
910.108	16934
910.224	16862
910.339	16889
910.454	16866
910.57	16740
910.685	16637
910.8	16881
910.915	16755
911.03	16778
911.145	16409
911.259	16531
911.374	16519
911.489	16466
911.604	16394
911.718	16284
911.833	16185
911.947	16196
912.062	15998
912.176	16177
912.291	16276
912.405	16249
912.519	16390
912.633	16432
912.748	16379
912.862	16253
912.976	16124
913.09	15975
913.204	16078
913.318	16116
913.431	16196
913.545	16246
913.659	16078
913.772	15991
913.886	15945
914	15861
914.113	15975
914.226	15991
914.34	15979
914.453	15705
914.566	15945
914.68	15682
914.793	15827
914.906	15481
915.019	15431
915.132	15332
915.245	15458
915.358	15534
915.47	15462
915.583	15488
915.696	15507
915.809	15576
915.921	15557
916.034	15332
916.146	15294
916.259	15359
916.371	15519
916.483	15488
916.595	15264
916.708	15317
916.82	15256
916.932	15207
917.044	15180
917.156	15157
917.268	15116
917.38	15268
917.491	15013
917.603	15066
917.715	15237
917.826	15138
917.938	15055
918.049	14979
918.161	15043
918.272	15161
918.384	15241
918.495	14986
918.606	14925
918.717	14933
918.828	14937
918.939	14872
919.05	14800
919.161	14800
919.272	14689
919.383	14682
919.494	14849
919.604	15089
919.715	14796
919.826	14781
919.936	14762
920.047	14842
920.157	14845
920.267	15005
920.378	14842
920.488	14716
920.598	14933
920.708	15093
920.818	14948
920.928	14899
921.038	15066
921.148	14960
921.258	14826
921.368	14674
921.477	14549
921.587	14545
921.697	14396
921.806	14571
921.916	14461
922.025	14221
922.134	14077
922.244	14153
922.353	14168
922.462	14043
922.571	13978
922.68	13811
922.789	13799
922.898	13913
923.007	13814
923.116	13845
923.224	13757
923.333	13852
923.442	13540
923.55	13616
923.659	13628
923.767	13769
923.876	13575
923.984	13563
924.092	13499
924.201	13578
924.309	13533
924.417	13552
924.525	13521
924.633	13533
924.741	14214
924.849	13343
924.956	13499
925.064	13282
925.172	13095
925.279	13282
925.387	13259
925.494	13293
925.602	13346
925.709	13266
925.816	13107
925.924	13175
926.031	13171
926.138	13126
926.245	13251
926.352	13008
926.459	13228
926.566	13175
926.673	13023
926.779	12875
926.886	12928
926.993	12829
927.099	12768
927.206	12764
927.312	12776
927.419	12677
927.525	12749
927.631	12783
927.737	12734
927.843	12650
927.95	12426
928.056	12574
928.162	12662
928.267	12612
928.373	13152
928.479	12639
928.585	12388
928.69	12544
928.796	12574
928.901	12528
929.007	12251
929.112	12445
929.218	12346
929.323	12300
929.428	12209
929.533	12350
929.638	12285
929.743	12365
929.848	12285
929.953	12258
930.058	12041
930.163	12011
930.267	12026
930.372	12144
930.477	11923
930.581	12106
930.685	12114
930.79	11824
930.894	11855
930.998	11802
931.103	11996
931.207	11562
931.311	11551
931.415	11482
931.519	11231
931.623	11159
