Data from test_V78500241_289.txt Node
Date: Fri Mar 25 15:11:52 CST 2022
User: usil
Spectrometer: V785-0024
Trigger mode: 0
Integration Time (sec): 4.000000E-1
Scans to average: 1
Nonlinearity correction enabled: false
Boxcar width: 0
Storing dark spectrum: false
XAxis mode: Wavelengths
Number of Pixels in Spectrum: 1024
>>>>>Begin Spectral Data<<<<<
801.071	27838
801.214	27679
801.356	27466
801.499	27374
801.641	27416
801.783	27283
801.926	27283
802.068	27306
802.211	27123
802.353	27051
802.496	26982
802.638	26933
802.78	26842
802.923	26811
803.065	26788
803.208	26765
803.35	26781
803.492	26963
803.635	27066
803.777	26815
803.919	26971
804.061	27329
804.204	27036
804.346	26914
804.488	26773
804.63	26914
804.773	26876
804.915	27028
805.057	27051
805.199	27024
805.341	26982
805.483	27005
805.626	27020
805.768	27028
805.91	27085
806.052	27081
806.194	27013
806.336	27222
806.478	27104
806.62	27169
806.762	27260
806.904	27146
807.046	27599
807.188	27359
807.33	27321
807.472	27568
807.614	27492
807.756	27405
807.898	27427
808.04	27348
808.182	27203
808.324	27405
808.465	27275
808.607	27557
808.749	27606
808.891	27724
809.033	27888
809.174	27724
809.316	27641
809.458	27747
809.6	27842
809.741	27694
809.883	27694
810.025	27968
810.166	28029
810.308	27911
810.45	27831
810.591	27797
810.733	27728
810.875	27717
811.016	27416
811.158	27591
811.299	27793
811.441	27770
811.582	27819
811.724	27545
811.865	27667
812.007	27625
812.148	27580
812.29	27663
812.431	27743
812.573	27941
812.714	27991
812.855	28074
812.997	28314
813.138	28478
813.279	28276
813.421	28181
813.562	28139
813.703	27960
813.845	27861
813.986	27500
814.127	27408
814.268	27230
814.41	27397
814.551	27161
814.692	27405
814.833	27180
814.974	27291
815.115	27313
815.256	27199
815.397	27154
815.539	27203
815.68	26906
815.821	27036
815.962	27081
816.103	27127
816.244	26948
816.385	26807
816.526	26815
816.666	26606
816.807	26606
816.948	26609
817.089	26537
817.23	26613
817.371	26564
817.512	26389
817.653	26495
817.793	26442
817.934	26488
818.075	26503
818.216	26484
818.356	26476
818.497	26377
818.638	26206
818.778	26134
818.919	26180
819.06	26157
819.2	26275
819.341	26370
819.481	26389
819.622	26526
819.762	26758
819.903	26689
820.043	26746
820.184	26575
820.324	26469
820.465	26533
820.605	26598
820.746	26522
820.886	26442
821.026	26556
821.167	26457
821.307	26381
821.447	26427
821.588	26377
821.728	26214
821.868	26103
822.008	25921
822.149	25887
822.289	25830
822.429	25674
822.569	25540
822.709	25643
822.849	25331
822.99	25510
823.13	25358
823.27	25259
823.41	25137
823.55	25164
823.69	25164
823.83	25065
823.97	25156
824.11	25122
824.25	24882
824.389	24939
824.529	24981
824.669	25076
824.809	25038
824.949	25126
825.089	25122
825.228	25057
825.368	24825
825.508	24947
825.648	24840
825.787	25015
825.927	24772
826.067	24779
826.206	24795
826.346	24757
826.485	24973
826.625	24905
826.765	24867
826.904	24825
827.044	24559
827.183	24547
827.323	24471
827.462	24513
827.601	24559
827.741	24525
827.88	24566
828.02	24327
828.159	24448
828.298	24570
828.437	24582
828.577	24490
828.716	24669
828.855	24357
828.994	24174
829.134	24194
829.273	24216
829.412	24281
829.551	24186
829.69	24167
829.829	24232
829.968	24338
830.107	24330
830.246	24182
830.385	24140
830.524	24144
830.663	24083
830.802	23992
830.941	23775
831.08	23714
831.219	24034
831.357	23958
831.496	24102
831.635	23737
831.774	23786
831.913	23733
832.051	23604
832.19	23630
832.329	23615
832.467	23665
832.606	23376
832.744	23429
832.883	23520
833.022	23376
833.16	23463
833.299	23520
833.437	23463
833.576	23638
833.714	23436
833.852	23551
833.991	23558
834.129	23657
834.267	23608
834.406	23512
834.544	23478
834.682	23471
834.821	23364
834.959	23615
835.097	23524
835.235	23638
835.373	23486
835.511	23570
835.65	23463
835.788	23356
835.926	23261
836.064	23246
836.202	23204
836.34	23398
836.478	23512
836.615	23376
836.753	23379
836.891	23490
837.029	23360
837.167	23372
837.305	23265
837.443	23356
837.58	23216
837.718	23273
837.856	23208
837.993	23220
838.131	23098
838.269	23151
838.406	23056
838.544	23098
838.681	22934
838.819	22767
838.956	22664
839.094	22721
839.231	22828
839.369	22881
839.506	22995
839.643	22987
839.781	22645
839.918	22580
840.055	22542
840.193	22596
840.33	22466
840.467	22577
840.604	22717
840.742	22831
840.879	22462
841.016	22508
841.153	22489
841.29	22645
841.427	22516
841.564	22554
841.701	22615
841.838	22398
841.975	22462
842.112	22443
842.249	22276
842.385	22268
842.522	22577
842.659	22409
842.796	22367
842.933	22295
843.069	22295
843.206	22310
843.343	22527
843.479	22234
843.616	22379
843.752	22162
843.889	22177
844.025	22249
844.162	22063
844.298	22253
844.435	22021
844.571	22097
844.708	22143
844.844	22230
844.98	22207
845.117	22280
845.253	22139
845.389	21926
845.525	21945
845.661	21926
845.798	21846
845.934	21899
846.07	21751
846.206	21926
846.342	22010
846.478	21774
846.614	21481
846.75	21462
846.886	21530
847.022	21606
847.158	21435
847.294	21534
847.429	21561
847.565	21549
847.701	21690
847.837	21325
847.972	21412
848.108	21370
848.244	21317
848.379	21138
848.515	21142
848.65	21135
848.786	21291
848.921	21077
849.057	21249
849.192	21173
849.328	21074
849.463	21108
849.598	21123
849.734	21028
849.869	20887
850.004	20804
850.14	20998
850.275	20834
850.41	20883
850.545	20857
850.68	20716
850.815	20868
850.95	20994
851.085	20971
851.22	20952
851.355	20845
851.49	20861
851.625	20796
851.76	20735
851.895	20758
852.03	20735
852.165	20910
852.299	20895
852.434	20990
852.569	20849
852.703	20887
852.838	20895
852.973	20872
853.107	20960
853.242	20708
853.376	20777
853.511	20541
853.645	20613
853.78	20758
853.914	20796
854.048	20625
854.183	20682
854.317	20625
854.451	20815
854.585	20583
854.72	20724
854.854	20781
854.988	20674
855.122	20629
855.256	20533
855.39	20583
855.524	20838
855.658	20724
855.792	20693
855.926	20716
856.06	20731
856.194	20735
856.327	20693
856.461	20625
856.595	20686
856.729	20594
856.862	20712
856.996	20674
857.13	20826
857.263	20773
857.397	20826
857.53	20705
857.664	20663
857.797	20731
857.931	20811
858.064	20754
858.197	20830
858.331	20785
858.464	20689
858.597	20530
858.731	20602
858.864	20667
858.997	20625
859.13	20712
859.263	20750
859.396	20777
859.529	20621
859.662	20545
859.795	20564
859.928	20629
860.061	20762
860.194	20735
860.327	20632
860.46	20602
860.592	20773
860.725	20716
860.858	20773
860.99	20731
861.123	20739
861.256	20457
861.388	20609
861.521	21207
861.653	20492
861.786	20412
861.918	20564
862.05	20552
862.183	20705
862.315	20640
862.447	20731
862.58	20564
862.712	20423
862.844	20374
862.976	20484
863.108	20366
863.24	20845
863.372	20210
863.504	20332
863.636	20442
863.768	20324
863.9	20358
864.032	20119
864.164	20305
864.296	20408
864.428	20446
864.559	20408
864.691	20431
864.823	20446
864.954	20263
865.086	20290
865.217	20332
865.349	20259
865.48	20244
865.612	20191
865.743	20446
865.875	20278
866.006	20111
866.137	20256
866.269	20142
866.4	20229
866.531	20218
866.662	20214
866.793	20176
866.924	20210
867.055	20275
867.186	20134
867.317	20130
867.448	20119
867.579	20031
867.71	20008
867.841	20008
867.972	20168
868.103	20282
868.233	20180
868.364	20294
868.495	20252
868.625	20423
868.756	20396
868.886	20434
869.017	20442
869.147	20575
869.278	20579
869.408	20461
869.539	20476
869.669	20507
869.799	20495
869.929	20613
870.06	20549
870.19	20754
870.32	20686
870.45	20883
870.58	20811
870.71	20948
870.84	20910
870.97	20845
871.1	20834
871.23	20960
871.36	20994
871.489	21024
871.619	20952
871.749	21043
871.879	20986
872.008	21157
872.138	21081
872.267	20853
872.397	20921
872.526	20804
872.656	20914
872.785	20819
872.915	21070
873.044	21077
873.173	21009
873.303	20975
873.432	21161
873.561	21214
873.69	21047
873.819	20986
873.948	21142
874.077	21138
874.206	21108
874.335	21001
874.464	21230
874.593	21275
874.722	21230
874.851	21184
874.979	21302
875.108	21306
875.237	21203
875.365	21085
875.494	21264
875.623	21473
875.751	21230
875.88	21252
876.008	21450
876.136	21439
876.265	21850
876.393	21728
876.521	21686
876.65	21918
876.778	21679
876.906	21629
877.034	21720
877.162	21625
877.29	21652
877.418	21618
877.546	21686
877.674	21507
877.802	21713
877.93	21644
878.058	21656
878.185	21603
878.313	21648
878.441	21549
878.568	21477
878.696	21652
878.824	21652
878.951	21747
879.079	21869
879.206	21922
879.333	21880
879.461	21580
879.588	21865
879.715	21701
879.842	21907
879.97	21766
880.097	21492
880.224	21424
880.351	21534
880.478	21450
880.605	21492
880.732	21534
880.859	21694
880.986	21382
881.112	21431
881.239	21329
881.366	21203
881.493	21142
881.619	21043
881.746	21135
881.872	21062
881.999	21024
882.125	20998
882.252	21108
882.378	21108
882.505	21180
882.631	20883
882.757	20902
882.883	20960
883.01	20823
883.136	20625
883.262	20708
883.388	20579
883.514	20800
883.64	20777
883.766	20575
883.892	20533
884.018	20632
884.143	20796
884.269	20758
884.395	20450
884.52	20522
884.646	20366
884.772	20533
884.897	20370
885.023	20454
885.148	20564
885.274	20533
885.399	20530
885.524	20275
885.65	20298
885.775	20419
885.9	20271
886.025	20484
886.15	20579
886.275	20438
886.4	20294
886.525	20339
886.65	20423
886.775	20347
886.9	20545
887.025	20579
887.149	20518
887.274	20214
887.399	20252
887.523	20168
887.648	20157
887.773	20130
887.897	20339
888.021	20210
888.146	20149
888.27	20324
888.395	20377
888.519	20199
888.643	20172
888.767	20161
888.891	19997
889.015	20058
889.139	20142
889.263	19936
889.387	20073
889.511	20180
889.635	20111
889.759	19989
889.883	19913
890.006	20149
890.13	20012
890.254	19944
890.377	19883
890.501	19643
890.624	19700
890.748	19677
890.871	19727
890.995	19487
891.118	19502
891.241	19521
891.364	19491
891.488	19704
891.611	19525
891.734	19525
891.857	19670
891.98	19601
892.103	19540
892.226	19647
892.349	19571
892.471	19411
892.594	19563
892.717	19499
892.839	19571
892.962	19491
893.085	19594
893.207	19491
893.33	19460
893.452	19518
893.575	19590
893.697	19453
893.819	19639
893.941	19639
894.064	19647
894.186	19449
894.308	19495
894.43	19609
894.552	19605
894.674	19594
894.796	19403
894.918	19362
895.04	19483
895.161	19571
895.283	19533
895.405	19350
895.526	19449
895.648	19472
895.769	19453
895.891	19506
896.012	19742
896.134	19590
896.255	19480
896.376	19468
896.498	19514
896.619	19578
896.74	19499
896.861	19460
896.982	19951
897.103	20046
897.224	19731
897.345	19750
897.466	19609
897.587	19746
897.708	19849
897.828	19734
897.949	19753
898.07	19575
898.19	19548
898.311	19750
898.431	19666
898.552	19719
898.672	19712
898.792	19826
898.913	19662
899.033	19605
899.153	19514
899.273	19358
899.393	19354
899.513	19544
899.633	19548
899.753	19468
899.873	19449
899.993	19411
900.113	19320
900.232	19491
900.352	19331
900.472	19266
900.591	19228
900.711	19274
900.83	19270
900.95	19350
901.069	19263
901.189	19194
901.308	19008
901.427	18806
901.546	18924
901.665	18932
901.784	18901
901.904	18764
902.023	18627
902.141	18391
902.26	18338
902.379	18521
902.498	18399
902.617	18361
902.735	18448
902.854	18361
902.973	18330
903.091	17977
903.21	18159
903.328	17961
903.446	18011
903.565	17901
903.683	17828
903.801	17756
903.919	17870
904.038	17771
904.156	17600
904.274	17771
904.392	17600
904.51	17577
904.627	17638
904.745	17687
904.863	17634
904.981	17406
905.098	17315
905.216	17311
905.334	17345
905.451	17296
905.569	17250
905.686	17334
905.803	17170
905.921	17094
906.038	17193
906.155	17170
906.272	16976
906.389	16976
906.506	16911
906.623	16797
906.74	16797
906.857	16675
906.974	16839
907.091	16786
907.208	16919
907.324	16835
907.441	16736
907.557	16565
907.674	16546
907.79	16565
907.907	16470
908.023	16542
908.139	16527
908.256	16455
908.372	16371
908.488	16432
908.604	16295
908.72	16181
908.836	16219
908.952	16253
909.068	16211
909.184	16382
909.3	16318
909.415	16337
909.531	16242
909.647	16032
909.762	16002
909.878	15956
909.993	15949
910.108	15888
910.224	15941
910.339	15941
910.454	15892
910.57	15823
910.685	15667
910.8	15945
910.915	15892
911.03	15755
911.145	15576
911.259	15515
911.374	15545
911.489	15370
911.604	15386
911.718	15355
911.833	15332
911.947	15119
912.062	15093
912.176	15222
912.291	15294
912.405	15279
912.519	15458
912.633	15378
912.748	15291
912.862	15252
912.976	15093
913.09	15043
913.204	15093
913.318	15176
913.431	15097
913.545	15211
913.659	15241
913.772	15051
913.886	14982
914	14937
914.113	14971
914.226	15036
914.34	14887
914.453	14754
914.566	14891
914.68	14781
914.793	14849
914.906	14579
915.019	14545
915.132	14511
915.245	14511
915.358	14590
915.47	14518
915.583	14503
915.696	14564
915.809	14689
915.921	14796
916.034	14537
916.146	14419
916.259	14511
916.371	14648
916.483	14571
916.595	14511
916.708	14431
916.82	14423
916.932	14362
917.044	14301
917.156	14286
917.268	14229
917.38	14187
917.491	14237
917.603	14202
917.715	14199
917.826	14233
917.938	14256
918.049	14016
918.161	14221
918.272	14294
918.384	14202
918.495	14149
918.606	14031
918.717	13932
918.828	14031
918.939	14062
919.05	13898
919.161	14012
919.272	13818
919.383	13917
919.494	13993
919.604	14187
919.715	13917
919.826	13811
919.936	13902
920.047	14134
920.157	13947
920.267	14161
920.378	13906
920.488	13890
920.598	14096
920.708	14237
920.818	14046
920.928	14043
921.038	14301
921.148	14187
921.258	13898
921.368	13852
921.477	13658
921.587	13723
921.697	13540
921.806	13689
921.916	13552
922.025	13324
922.134	13358
922.244	13304
922.353	13480
922.462	13225
922.571	13099
922.68	13076
922.789	13053
922.898	12973
923.007	12993
923.116	12935
923.224	12920
923.333	13057
923.442	12875
923.55	12783
923.659	12924
923.767	12894
923.876	12844
923.984	12863
924.092	12677
924.201	12837
924.309	12817
924.417	12760
924.525	12730
924.633	12783
924.741	13388
924.849	12536
924.956	12585
925.064	12582
925.172	12311
925.279	12475
925.387	12475
925.494	12490
925.602	12471
925.709	12540
925.816	12254
925.924	12327
926.031	12353
926.138	12361
926.245	12365
926.352	12235
926.459	12407
926.566	12483
926.673	12289
926.779	12163
926.886	12243
926.993	12068
927.099	12041
927.206	12038
927.312	11992
927.419	12076
927.525	12015
927.631	11977
927.737	11961
927.843	11851
927.95	11798
928.056	11863
928.162	11832
928.267	11874
928.373	12467
928.479	11760
928.585	11604
928.69	11726
928.796	11870
928.901	11752
929.007	11589
929.112	11695
929.218	11737
929.323	11657
929.428	11539
929.533	11729
929.638	11512
929.743	11520
929.848	11505
929.953	11573
930.058	11334
930.163	11296
930.267	11311
930.372	11448
930.477	11216
930.581	11474
930.685	11330
930.79	11254
930.894	11083
930.998	11117
931.103	11364
931.207	10968
931.311	10835
931.415	10778
931.519	10558
931.623	10527
