Data from test_V78500241_1592.txt Node
Date: Fri Mar 25 15:20:56 CST 2022
User: usil
Spectrometer: V785-0024
Trigger mode: 0
Integration Time (sec): 4.000000E-1
Scans to average: 1
Nonlinearity correction enabled: false
Boxcar width: 0
Storing dark spectrum: false
XAxis mode: Wavelengths
Number of Pixels in Spectrum: 1024
>>>>>Begin Spectral Data<<<<<
801.071	27934
801.214	27888
801.356	27778
801.499	27705
801.641	27576
801.783	27481
801.926	27473
802.068	27485
802.211	27439
802.353	27450
802.496	27287
802.638	27184
802.78	27169
802.923	27188
803.065	27089
803.208	27138
803.35	27245
803.492	27344
803.635	27500
803.777	27291
803.919	27355
804.061	27542
804.204	27466
804.346	27374
804.488	27367
804.63	27492
804.773	27336
804.915	27386
805.057	27370
805.199	27439
805.341	27507
805.483	27530
805.626	27603
805.768	27420
805.91	27538
806.052	27507
806.194	27450
806.336	27652
806.478	27618
806.62	27485
806.762	27717
806.904	27797
807.046	27937
807.188	28040
807.33	28029
807.472	28040
807.614	27838
807.756	27888
807.898	27823
808.04	27656
808.182	27823
808.324	27918
808.465	27911
808.607	28017
808.749	28295
808.891	28219
809.033	28401
809.174	28226
809.316	28090
809.458	28295
809.6	28249
809.741	28268
809.883	28200
810.025	28447
810.166	28405
810.308	28451
810.45	28455
810.591	28344
810.733	28200
810.875	28090
811.016	28143
811.158	28006
811.299	28261
811.441	28291
811.582	28230
811.724	28177
811.865	28242
812.007	28124
812.148	28223
812.29	28223
812.431	28421
812.573	28474
812.714	28561
812.855	28694
812.997	28911
813.138	28900
813.279	28847
813.421	28694
813.562	28596
813.703	28611
813.845	28424
813.986	28181
814.127	28090
814.268	27937
814.41	27857
814.551	27793
814.692	27991
814.833	27785
814.974	27743
815.115	27914
815.256	27690
815.397	27785
815.539	27751
815.68	27682
815.821	27629
815.962	27667
816.103	27701
816.244	27652
816.385	27420
816.526	27382
816.666	27203
816.807	27165
816.948	27241
817.089	27283
817.23	27135
817.371	27138
817.512	27116
817.653	27146
817.793	27020
817.934	27104
818.075	27260
818.216	27066
818.356	27085
818.497	26971
818.638	26864
818.778	26872
818.919	26910
819.06	27017
819.2	27089
819.341	27245
819.481	27116
819.622	27203
819.762	27450
819.903	27306
820.043	27500
820.184	27260
820.324	27211
820.465	27344
820.605	27203
820.746	27237
820.886	27211
821.026	27249
821.167	27154
821.307	27424
821.447	27058
821.588	27135
821.728	27020
821.868	26849
822.008	26648
822.149	26712
822.289	26552
822.429	26305
822.569	26431
822.709	26309
822.849	26069
822.99	26157
823.13	26016
823.27	26103
823.41	25944
823.55	25879
823.69	25799
823.83	25951
823.97	25932
824.11	25788
824.25	25860
824.389	25731
824.529	25845
824.669	25780
824.809	25928
824.949	25830
825.089	25803
825.228	25871
825.368	25582
825.508	25696
825.648	25769
825.787	25643
825.927	25681
826.067	25632
826.206	25594
826.346	25674
826.485	25708
826.625	25708
826.765	25753
826.904	25708
827.044	25411
827.183	25487
827.323	25316
827.462	25521
827.601	25354
827.741	25282
827.88	25384
828.02	25297
828.159	25354
828.298	25422
828.437	25430
828.577	25301
828.716	25453
828.855	25255
828.994	25126
829.134	25107
829.273	25053
829.412	25053
829.551	25057
829.69	25072
829.829	25057
829.968	25168
830.107	25065
830.246	25103
830.385	24928
830.524	24966
830.663	24878
830.802	24871
830.941	24669
831.08	24669
831.219	24677
831.357	24700
831.496	24962
831.635	24776
831.774	24604
831.913	24601
832.051	24525
832.19	24513
832.329	24369
832.467	24384
832.606	24205
832.744	24311
832.883	24327
833.022	24194
833.16	24433
833.299	24369
833.437	24308
833.576	24388
833.714	24471
833.852	24517
833.991	24486
834.129	24513
834.267	24505
834.406	24266
834.544	24475
834.682	24292
834.821	24422
834.959	24540
835.097	24422
835.235	24395
835.373	24353
835.511	24247
835.65	24353
835.788	24171
835.926	24140
836.064	24053
836.202	24155
836.34	24201
836.478	24300
836.615	24213
836.753	24209
836.891	24304
837.029	24209
837.167	24201
837.305	24117
837.443	24205
837.58	24159
837.718	24197
837.856	23973
837.993	24003
838.131	24026
838.269	24041
838.406	23901
838.544	23817
838.681	23687
838.819	23756
838.956	23516
839.094	23497
839.231	23638
839.369	23718
839.506	23984
839.643	23786
839.781	23554
839.918	23379
840.055	23562
840.193	23570
840.33	23486
840.467	23524
840.604	23547
840.742	23752
840.879	23242
841.016	23444
841.153	23284
841.29	23520
841.427	23531
841.564	23497
841.701	23444
841.838	23414
841.975	23269
842.112	23280
842.249	23212
842.385	23121
842.522	23391
842.659	23254
842.796	23296
842.933	23124
843.069	23117
843.206	23162
843.343	23296
843.479	23200
843.616	23265
843.752	22946
843.889	23075
844.025	23166
844.162	22904
844.298	23121
844.435	22961
844.571	22953
844.708	23079
844.844	23170
844.98	23200
845.117	23083
845.253	22915
845.389	22767
845.525	22873
845.661	22824
845.798	22691
845.934	22824
846.07	22637
846.206	22748
846.342	22866
846.478	22778
846.614	22538
846.75	22470
846.886	22470
847.022	22459
847.158	22462
847.294	22421
847.429	22432
847.565	22310
847.701	22634
847.837	22246
847.972	22192
848.108	22363
848.244	22405
848.379	22078
848.515	21994
848.65	22097
848.786	22070
848.921	22032
849.057	22242
849.192	22166
849.328	22105
849.463	22029
849.598	21979
849.734	21876
849.869	21987
850.004	21873
850.14	21861
850.275	21865
850.41	21637
850.545	21751
850.68	21781
850.815	21705
850.95	21770
851.085	21926
851.22	21964
851.355	21785
851.49	21812
851.625	21793
851.76	21812
851.895	21637
852.03	21698
852.165	21743
852.299	21724
852.434	21854
852.569	21823
852.703	21755
852.838	21827
852.973	21968
853.107	21880
853.242	21762
853.376	21694
853.511	21526
853.645	21538
853.78	21793
853.914	21694
854.048	21496
854.183	21675
854.317	21694
854.451	21762
854.585	21549
854.72	21553
854.854	21709
854.988	21488
855.122	21625
855.256	21492
855.39	21713
855.524	21686
855.658	21728
855.792	21663
855.926	21709
856.06	21603
856.194	21652
856.327	21435
856.461	21564
856.595	21504
856.729	21576
856.862	21728
856.996	21656
857.13	21644
857.263	21743
857.397	21606
857.53	21629
857.664	21728
857.797	21648
857.931	21762
858.064	21469
858.197	21736
858.331	21549
858.464	21454
858.597	21477
858.731	21568
858.864	21629
858.997	21599
859.13	21572
859.263	21656
859.396	21637
859.529	21576
859.662	21557
859.795	21622
859.928	21679
860.061	21793
860.194	21713
860.327	21618
860.46	21629
860.592	21835
860.725	21641
860.858	21789
860.99	21591
861.123	21481
861.256	21561
861.388	21682
861.521	22322
861.653	21515
861.786	21511
861.918	21481
862.05	21583
862.183	21576
862.315	21549
862.447	21534
862.58	21572
862.712	21416
862.844	21203
862.976	21431
863.108	21287
863.24	21587
863.372	21317
863.504	21298
863.636	21256
863.768	21348
863.9	21344
864.032	21279
864.164	21264
864.296	21344
864.428	21336
864.559	21389
864.691	21340
864.823	21241
864.954	21298
865.086	21218
865.217	21146
865.349	21135
865.48	21249
865.612	21218
865.743	21397
865.875	21260
866.006	21245
866.137	21252
866.269	21291
866.4	21230
866.531	21066
866.662	21169
866.793	21100
866.924	21116
867.055	21256
867.186	21329
867.317	21070
867.448	21066
867.579	20998
867.71	20960
867.841	21013
867.972	21192
868.103	21188
868.233	21154
868.364	21226
868.495	21260
868.625	21313
868.756	21530
868.886	21195
869.017	21348
869.147	21447
869.278	21538
869.408	21272
869.539	21405
869.669	21435
869.799	21458
869.929	21466
870.06	21576
870.19	21629
870.32	21614
870.45	21629
870.58	21861
870.71	21808
870.84	21819
870.97	21747
871.1	21861
871.23	21930
871.36	21983
871.489	21953
871.619	21983
871.749	21979
871.879	22025
872.008	21956
872.138	22112
872.267	22002
872.397	21934
872.526	21720
872.656	21793
872.785	21732
872.915	21918
873.044	22090
873.173	21960
873.303	22017
873.432	22093
873.561	22124
873.69	22010
873.819	21979
873.948	22105
874.077	21998
874.206	21934
874.335	22055
874.464	22101
874.593	22272
874.722	22143
874.851	22314
874.979	22181
875.108	22299
875.237	22116
875.365	22067
875.494	22226
875.623	22280
875.751	22268
875.88	22200
876.008	22295
876.136	22409
876.265	22531
876.393	22691
876.521	22668
876.65	22694
876.778	22573
876.906	22527
877.034	22504
877.162	22497
877.29	22478
877.418	22531
877.546	22592
877.674	22554
877.802	22622
877.93	22607
878.058	22516
878.185	22516
878.313	22535
878.441	22443
878.568	22489
878.696	22462
878.824	22599
878.951	22656
879.079	22698
879.206	22934
879.333	22782
879.461	22573
879.588	22592
879.715	22771
879.842	22790
879.97	22596
880.097	22459
880.224	22398
880.351	22344
880.478	22432
880.605	22417
880.732	22462
880.859	22611
880.986	22443
881.112	22352
881.239	22188
881.366	21998
881.493	21975
881.619	22101
881.746	21972
881.872	22048
881.999	21911
882.125	21907
882.252	21903
882.378	21884
882.505	22055
882.631	21766
882.757	21732
882.883	21789
883.01	21762
883.136	21583
883.262	21618
883.388	21462
883.514	21610
883.64	21713
883.766	21500
883.892	21405
884.018	21454
884.143	21576
884.269	21724
884.395	21348
884.52	21374
884.646	21359
884.772	21306
884.897	21211
885.023	21321
885.148	21397
885.274	21447
885.399	21443
885.524	21249
885.65	21256
885.775	21424
885.9	21256
886.025	21382
886.15	21355
886.275	21344
886.4	21195
886.525	21207
886.65	21279
886.775	21252
886.9	21439
887.025	21500
887.149	21260
887.274	21131
887.399	20990
887.523	21009
887.648	21005
887.773	20906
887.897	21123
888.021	21188
888.146	20960
888.27	21104
888.395	21161
888.519	21043
888.643	21020
888.767	21150
888.891	20929
889.015	20788
889.139	20857
889.263	20823
889.387	20937
889.511	21058
889.635	20979
889.759	20765
889.883	20819
890.006	20823
890.13	20925
890.254	20773
890.377	20720
890.501	20629
890.624	20659
890.748	20609
890.871	20473
890.995	20499
891.118	20457
891.241	20408
891.364	20434
891.488	20590
891.611	20412
891.734	20446
891.857	20446
891.98	20438
892.103	20480
892.226	20294
892.349	20358
892.471	20210
892.594	20469
892.717	20446
892.839	20294
892.962	20381
893.085	20404
893.207	20370
893.33	20347
893.452	20237
893.575	20278
893.697	20271
893.819	20415
893.941	20488
894.064	20503
894.186	20183
894.308	20259
894.43	20507
894.552	20415
894.674	20393
894.796	20271
894.918	20252
895.04	20138
895.161	20412
895.283	20320
895.405	20305
895.526	20263
895.648	20233
895.769	20347
895.891	20240
896.012	20305
896.134	20328
896.255	20332
896.376	20267
896.498	20343
896.619	20457
896.74	20275
896.861	20309
896.982	20781
897.103	20674
897.224	20526
897.345	20533
897.466	20415
897.587	20473
897.708	20499
897.828	20629
897.949	20511
898.07	20336
898.19	20473
898.311	20461
898.431	20564
898.552	20511
898.672	20594
898.792	20571
898.913	20522
899.033	20267
899.153	20385
899.273	20267
899.393	20237
899.513	20336
899.633	20244
899.753	20240
899.873	20084
899.993	20225
900.113	20199
900.232	20298
900.352	20142
900.472	20142
900.591	20012
900.711	20043
900.83	20024
900.95	20115
901.069	20138
901.189	20012
901.308	19761
901.427	19647
901.546	19609
901.665	19578
901.784	19556
901.904	19480
902.023	19369
902.141	19084
902.26	19107
902.379	19228
902.498	19141
902.617	19076
902.735	19168
902.854	19137
902.973	19012
903.091	18703
903.21	18764
903.328	18817
903.446	18749
903.565	18608
903.683	18540
903.801	18448
903.919	18532
904.038	18536
904.156	18475
904.274	18384
904.392	18376
904.51	18330
904.627	18315
904.745	18369
904.863	18433
904.981	18232
905.098	18102
905.216	17999
905.334	18045
905.451	18121
905.569	18049
905.686	17999
905.803	18007
905.921	17813
906.038	17961
906.155	17783
906.272	17710
906.389	17760
906.506	17608
906.623	17573
906.74	17570
906.857	17505
906.974	17463
907.091	17623
907.208	17661
907.324	17566
907.441	17436
907.557	17273
907.674	17284
907.79	17364
907.907	17212
908.023	17337
908.139	17349
908.256	17216
908.372	17170
908.488	17083
908.604	16873
908.72	16972
908.836	17010
908.952	17094
909.068	17006
909.184	17170
909.3	16999
909.415	17060
909.531	16946
909.647	16786
909.762	16721
909.878	16683
909.993	16752
910.108	16523
910.224	16679
910.339	16725
910.454	16573
910.57	16542
910.685	16592
910.8	16778
910.915	16710
911.03	16550
911.145	16352
911.259	16268
911.374	16360
911.489	16325
911.604	16226
911.718	16067
911.833	16055
911.947	15953
912.062	15884
912.176	15930
912.291	15972
912.405	15998
912.519	16238
912.633	16204
912.748	16048
912.862	15975
912.976	15846
913.09	15766
913.204	15823
913.318	15789
913.431	15964
913.545	15991
913.659	15937
913.772	15838
913.886	15705
914	15778
914.113	15762
914.226	15819
914.34	15736
914.453	15614
914.566	15709
914.68	15587
914.793	15576
914.906	15321
915.019	15157
915.132	15279
915.245	15207
915.358	15272
915.47	15321
915.583	15123
915.696	15283
915.809	15317
915.921	15386
916.034	15184
916.146	15188
916.259	15055
916.371	15188
916.483	15135
916.595	15089
916.708	15047
916.82	15093
916.932	15032
917.044	14975
917.156	14998
917.268	14960
917.38	14914
917.491	14933
917.603	14819
917.715	14960
917.826	14990
917.938	14895
918.049	14708
918.161	14842
918.272	14956
918.384	14895
918.495	14815
918.606	14648
918.717	14590
918.828	14632
918.939	14731
919.05	14693
919.161	14629
919.272	14427
919.383	14606
919.494	14689
919.604	14887
919.715	14648
919.826	14587
919.936	14636
920.047	14610
920.157	14522
920.267	14716
920.378	14613
920.488	14621
920.598	14815
920.708	14880
920.818	14777
920.928	14735
921.038	14914
921.148	14826
921.258	14484
921.368	14503
921.477	14419
921.587	14309
921.697	14111
921.806	14343
921.916	14309
922.025	14020
922.134	14058
922.244	13917
922.353	14065
922.462	13963
922.571	13822
922.68	13620
922.789	13632
922.898	13712
923.007	13559
923.116	13578
923.224	13586
923.333	13613
923.442	13499
923.55	13510
923.659	13480
923.767	13483
923.876	13381
923.984	13434
924.092	13324
924.201	13373
924.309	13434
924.417	13415
924.525	13308
924.633	13331
924.741	14309
924.849	13228
924.956	13122
925.064	13046
925.172	13114
925.279	13061
925.387	13103
925.494	13095
925.602	13225
925.709	13065
925.816	12947
925.924	13061
926.031	13031
926.138	12897
926.245	13076
926.352	12890
926.459	13050
926.566	13004
926.673	12863
926.779	12817
926.886	12859
926.993	12650
927.099	12559
927.206	12486
927.312	12654
927.419	12566
927.525	12646
927.631	12623
927.737	12437
927.843	12426
927.95	12338
928.056	12372
928.162	12429
928.267	12441
928.373	13034
928.479	12513
928.585	12171
928.69	12262
928.796	12475
928.901	12304
929.007	12209
929.112	12205
929.218	12171
929.323	12159
929.428	12068
929.533	12175
929.638	12038
929.743	12102
929.848	12216
929.953	12155
930.058	11980
930.163	11813
930.267	11840
930.372	12019
930.477	11752
930.581	12034
930.685	11942
930.79	11680
930.894	11748
930.998	11703
931.103	11764
931.207	11452
931.311	11379
931.415	11337
931.519	11105
931.623	11067
