Data from test_V78500241_1543.txt Node
Date: Fri Mar 25 15:20:36 CST 2022
User: usil
Spectrometer: V785-0024
Trigger mode: 0
Integration Time (sec): 4.000000E-1
Scans to average: 1
Nonlinearity correction enabled: false
Boxcar width: 0
Storing dark spectrum: false
XAxis mode: Wavelengths
Number of Pixels in Spectrum: 1024
>>>>>Begin Spectral Data<<<<<
801.071	28116
801.214	27975
801.356	27770
801.499	27827
801.641	27587
801.783	27618
801.926	27641
802.068	27679
802.211	27538
802.353	27641
802.496	27291
802.638	27382
802.78	27245
802.923	27146
803.065	27184
803.208	27146
803.35	27256
803.492	27389
803.635	27367
803.777	27321
803.919	27496
804.061	27759
804.204	27549
804.346	27439
804.488	27287
804.63	27412
804.773	27344
804.915	27435
805.057	27530
805.199	27485
805.341	27519
805.483	27667
805.626	27633
805.768	27473
805.91	27580
806.052	27720
806.194	27462
806.336	27736
806.478	27675
806.62	27633
806.762	27899
806.904	27907
807.046	28166
807.188	27945
807.33	28044
807.472	28185
807.614	27876
807.756	28032
807.898	27968
808.04	27884
808.182	27880
808.324	27949
808.465	28002
808.607	28230
808.749	28310
808.891	28421
809.033	28356
809.174	28352
809.316	28207
809.458	28409
809.6	28246
809.741	28295
809.883	28436
810.025	28565
810.166	28569
810.308	28599
810.45	28390
810.591	28447
810.733	28337
810.875	28291
811.016	28234
811.158	28112
811.299	28207
811.441	28519
811.582	28375
811.724	28166
811.865	28287
812.007	28291
812.148	28360
812.29	28280
812.431	28432
812.573	28698
812.714	28675
812.855	28748
812.997	28725
813.138	28995
813.279	28930
813.421	28835
813.562	28725
813.703	28691
813.845	28386
813.986	28341
814.127	28070
814.268	28032
814.41	27972
814.551	27846
814.692	27968
814.833	27907
814.974	27972
815.115	27888
815.256	27903
815.397	27804
815.539	27804
815.68	27682
815.821	27766
815.962	27705
816.103	27755
816.244	27519
816.385	27530
816.526	27405
816.666	27397
816.807	27370
816.948	27359
817.089	27344
817.23	27268
817.371	27192
817.512	27180
817.653	27135
817.793	27336
817.934	27279
818.075	27184
818.216	27249
818.356	27214
818.497	27176
818.638	26994
818.778	26910
818.919	27047
819.06	26891
819.2	27173
819.341	27203
819.481	27226
819.622	27389
819.762	27542
819.903	27424
820.043	27462
820.184	27469
820.324	27230
820.465	27534
820.605	27488
820.746	27298
820.886	27222
821.026	27294
821.167	27355
821.307	27412
821.447	27260
821.588	27161
821.728	27047
821.868	26773
822.008	26746
822.149	26773
822.289	26731
822.429	26499
822.569	26412
822.709	26309
822.849	26225
822.99	26385
823.13	26195
823.27	26111
823.41	26172
823.55	25944
823.69	26088
823.83	25986
823.97	26176
824.11	25913
824.25	25822
824.389	25826
824.529	25959
824.669	25906
824.809	26126
824.949	25856
825.089	25826
825.228	25902
825.368	25811
825.508	25776
825.648	25795
825.787	25738
825.927	25780
826.067	25639
826.206	25811
826.346	25719
826.485	25738
826.625	25799
826.765	25856
826.904	25871
827.044	25438
827.183	25529
827.323	25559
827.462	25495
827.601	25430
827.741	25422
827.88	25521
828.02	25441
828.159	25343
828.298	25430
828.437	25582
828.577	25331
828.716	25559
828.855	25388
828.994	25145
829.134	25194
829.273	25156
829.412	25145
829.551	25084
829.69	25095
829.829	25126
829.968	25251
830.107	25278
830.246	25217
830.385	25122
830.524	24954
830.663	24882
830.802	24909
830.941	24623
831.08	24753
831.219	24848
831.357	24943
831.496	25042
831.635	24779
831.774	24654
831.913	24673
832.051	24540
832.19	24528
832.329	24764
832.467	24334
832.606	24388
832.744	24403
832.883	24372
833.022	24369
833.16	24353
833.299	24407
833.437	24521
833.576	24608
833.714	24593
833.852	24570
833.991	24521
834.129	24597
834.267	24574
834.406	24399
834.544	24532
834.682	24498
834.821	24528
834.959	24646
835.097	24338
835.235	24574
835.373	24456
835.511	24502
835.65	24414
835.788	24304
835.926	24220
836.064	24186
836.202	24232
836.34	24315
836.478	24391
836.615	24315
836.753	24311
836.891	24342
837.029	24174
837.167	24270
837.305	24232
837.443	24270
837.58	24213
837.718	24205
837.856	24216
837.993	24007
838.131	24159
838.269	23916
838.406	24095
838.544	24026
838.681	23821
838.819	23863
838.956	23596
839.094	23604
839.231	23668
839.369	23741
839.506	23954
839.643	23809
839.781	23718
839.918	23516
840.055	23638
840.193	23562
840.33	23611
840.467	23615
840.604	23554
840.742	23851
840.879	23292
841.016	23440
841.153	23448
841.29	23589
841.427	23471
841.564	23585
841.701	23497
841.838	23463
841.975	23425
842.112	23395
842.249	23307
842.385	23280
842.522	23501
842.659	23322
842.796	23284
842.933	23376
843.069	23265
843.206	23269
843.343	23368
843.479	23364
843.616	23258
843.752	23079
843.889	23029
844.025	23159
844.162	22946
844.298	23174
844.435	23090
844.571	23044
844.708	23136
844.844	23132
844.98	23208
845.117	23277
845.253	22968
845.389	22934
845.525	23037
845.661	22896
845.798	22809
845.934	22889
846.07	22748
846.206	22793
846.342	22774
846.478	22820
846.614	22637
846.75	22352
846.886	22440
847.022	22645
847.158	22592
847.294	22424
847.429	22584
847.565	22615
847.701	22641
847.837	22322
847.972	22124
848.108	22314
848.244	22337
848.379	22025
848.515	22078
848.65	22120
848.786	22074
848.921	22116
849.057	22101
849.192	22086
849.328	22169
849.463	21972
849.598	22158
849.734	21945
849.869	21983
850.004	21926
850.14	22051
850.275	21865
850.41	21770
850.545	21835
850.68	21861
850.815	21926
850.95	21907
851.085	22032
851.22	21979
851.355	21934
851.49	21869
851.625	21762
851.76	21781
851.895	21759
852.03	21739
852.165	21922
852.299	21888
852.434	22013
852.569	21857
852.703	21857
852.838	21873
852.973	21987
853.107	21865
853.242	21732
853.376	21785
853.511	21671
853.645	21679
853.78	21747
853.914	21701
854.048	21686
854.183	21633
854.317	21743
854.451	21899
854.585	21641
854.72	21732
854.854	21679
854.988	21618
855.122	21698
855.256	21477
855.39	21603
855.524	21762
855.658	21888
855.792	21618
855.926	21713
856.06	21770
856.194	21732
856.327	21732
856.461	21720
856.595	21526
856.729	21717
856.862	21819
856.996	21717
857.13	21808
857.263	21682
857.397	21652
857.53	21663
857.664	21698
857.797	21785
857.931	21694
858.064	21686
858.197	21819
858.331	21622
858.464	21561
858.597	21603
858.731	21686
858.864	21610
858.997	21671
859.13	21625
859.263	21713
859.396	21739
859.529	21671
859.662	21618
859.795	21667
859.928	21637
860.061	21880
860.194	21899
860.327	21781
860.46	21789
860.592	21835
860.725	21827
860.858	21937
860.99	21679
861.123	21686
861.256	21679
861.388	21644
861.521	22409
861.653	21603
861.786	21439
861.918	21458
862.05	21538
862.183	21504
862.315	21713
862.447	21561
862.58	21523
862.712	21397
862.844	21382
862.976	21572
863.108	21523
863.24	21835
863.372	21344
863.504	21435
863.636	21370
863.768	21538
863.9	21519
864.032	21382
864.164	21321
864.296	21367
864.428	21530
864.559	21504
864.691	21526
864.823	21420
864.954	21401
865.086	21355
865.217	21367
865.349	21275
865.48	21302
865.612	21416
865.743	21386
865.875	21317
866.006	21260
866.137	21317
866.269	21272
866.4	21188
866.531	21249
866.662	21161
866.793	21275
866.924	21233
867.055	21264
867.186	21264
867.317	21188
867.448	21214
867.579	21157
867.71	21142
867.841	21127
867.972	21260
868.103	21237
868.233	21192
868.364	21135
868.495	21298
868.625	21420
868.756	21557
868.886	21401
869.017	21538
869.147	21538
869.278	21576
869.408	21534
869.539	21389
869.669	21530
869.799	21420
869.929	21511
870.06	21538
870.19	21690
870.32	21625
870.45	21781
870.58	21778
870.71	21918
870.84	21907
870.97	21827
871.1	21812
871.23	22002
871.36	22048
871.489	21991
871.619	22093
871.749	22120
871.879	22021
872.008	22192
872.138	22109
872.267	21983
872.397	22002
872.526	21823
872.656	21778
872.785	21838
872.915	22036
873.044	22063
873.173	22010
873.303	22021
873.432	22131
873.561	22158
873.69	22078
873.819	22059
873.948	22169
874.077	22082
874.206	21975
874.335	22059
874.464	22215
874.593	22318
874.722	22135
874.851	22318
874.979	22341
875.108	22344
875.237	22284
875.365	22253
875.494	22310
875.623	22284
875.751	22318
875.88	22356
876.008	22291
876.136	22413
876.265	22611
876.393	22736
876.521	22752
876.65	22733
876.778	22615
876.906	22645
877.034	22649
877.162	22611
877.29	22630
877.418	22725
877.546	22710
877.674	22637
877.802	22508
877.93	22596
878.058	22470
878.185	22550
878.313	22607
878.441	22580
878.568	22451
878.696	22523
878.824	22615
878.951	22653
879.079	22736
879.206	22904
879.333	22752
879.461	22656
879.588	22649
879.715	22790
879.842	22820
879.97	22683
880.097	22447
880.224	22512
880.351	22352
880.478	22580
880.605	22440
880.732	22474
880.859	22679
880.986	22398
881.112	22535
881.239	22386
881.366	22177
881.493	22150
881.619	22021
881.746	22124
881.872	22078
881.999	22017
882.125	21934
882.252	21888
882.378	21979
882.505	22131
882.631	21922
882.757	21705
882.883	21835
883.01	21797
883.136	21671
883.262	21644
883.388	21557
883.514	21599
883.64	21728
883.766	21686
883.892	21458
884.018	21538
884.143	21660
884.269	21701
884.395	21359
884.52	21351
884.646	21374
884.772	21207
884.897	21241
885.023	21378
885.148	21431
885.274	21481
885.399	21378
885.524	21317
885.65	21252
885.775	21428
885.9	21344
886.025	21378
886.15	21431
886.275	21325
886.4	21173
886.525	21332
886.65	21325
886.775	21230
886.9	21481
887.025	21511
887.149	21302
887.274	21074
887.399	21119
887.523	21176
887.648	21017
887.773	20971
887.897	21203
888.021	21138
888.146	21089
888.27	21154
888.395	21222
888.519	21104
888.643	21093
888.767	21218
888.891	21028
889.015	20853
889.139	20819
889.263	20895
889.387	20998
889.511	21096
889.635	21055
889.759	20830
889.883	20876
890.006	20910
890.13	20952
890.254	20872
890.377	20826
890.501	20678
890.624	20655
890.748	20674
890.871	20602
890.995	20450
891.118	20438
891.241	20545
891.364	20423
891.488	20552
891.611	20476
891.734	20431
891.857	20575
891.98	20530
892.103	20560
892.226	20556
892.349	20526
892.471	20298
892.594	20305
892.717	20457
892.839	20290
892.962	20423
893.085	20450
893.207	20313
893.33	20320
893.452	20320
893.575	20362
893.697	20294
893.819	20514
893.941	20522
894.064	20583
894.186	20286
894.308	20294
894.43	20450
894.552	20533
894.674	20511
894.796	20271
894.918	20294
895.04	20275
895.161	20434
895.283	20347
895.405	20256
895.526	20256
895.648	20454
895.769	20339
895.891	20389
896.012	20533
896.134	20385
896.255	20225
896.376	20336
896.498	20400
896.619	20396
896.74	20324
896.861	20320
896.982	20731
897.103	20773
897.224	20587
897.345	20609
897.466	20480
897.587	20431
897.708	20667
897.828	20530
897.949	20480
898.07	20400
898.19	20533
898.311	20632
898.431	20518
898.552	20514
898.672	20629
898.792	20674
898.913	20530
899.033	20385
899.153	20336
899.273	20305
899.393	20370
899.513	20370
899.633	20415
899.753	20339
899.873	20317
899.993	20328
900.113	20214
900.232	20332
900.352	20088
900.472	20126
900.591	20039
900.711	20115
900.83	20046
900.95	20164
901.069	20259
901.189	19917
901.308	19670
901.427	19708
901.546	19681
901.665	19666
901.784	19696
901.904	19502
902.023	19499
902.141	19259
902.26	19289
902.379	19297
902.498	19133
902.617	19175
902.735	19187
902.854	19122
902.973	19038
903.091	18935
903.21	18852
903.328	18848
903.446	18726
903.565	18601
903.683	18639
903.801	18532
903.919	18692
904.038	18669
904.156	18506
904.274	18464
904.392	18403
904.51	18403
904.627	18334
904.745	18437
904.863	18460
904.981	18228
905.098	18064
905.216	18159
905.334	18110
905.451	18152
905.569	18057
905.686	18152
905.803	18098
905.921	17798
906.038	17988
906.155	17882
906.272	17870
906.389	17707
906.506	17630
906.623	17676
906.74	17600
906.857	17535
906.974	17429
907.091	17668
907.208	17752
907.324	17562
907.441	17497
907.557	17406
907.674	17360
907.79	17140
907.907	17307
908.023	17269
908.139	17277
908.256	17311
908.372	17250
908.488	17303
908.604	17166
908.72	16980
908.836	17045
908.952	17048
909.068	17064
909.184	17174
909.3	17193
909.415	17014
909.531	17083
909.647	16839
909.762	16843
909.878	16744
909.993	16721
910.108	16717
910.224	16767
910.339	16694
910.454	16717
910.57	16634
910.685	16512
910.8	16729
910.915	16687
911.03	16478
911.145	16322
911.259	16352
911.374	16261
911.489	16253
911.604	16131
911.718	16059
911.833	16059
911.947	15979
912.062	15842
912.176	16071
912.291	16055
912.405	16166
912.519	16295
912.633	16341
912.748	16143
912.862	15953
912.976	15972
913.09	15701
913.204	15861
913.318	15979
913.431	15941
913.545	15937
913.659	15945
913.772	15884
913.886	15705
914	15762
914.113	15778
914.226	15739
914.34	15663
914.453	15599
914.566	15762
914.68	15644
914.793	15568
914.906	15443
915.019	15340
915.132	15348
915.245	15275
915.358	15252
915.47	15389
915.583	15260
915.696	15188
915.809	15367
915.921	15435
916.034	15294
916.146	15283
916.259	15070
916.371	15306
916.483	15340
916.595	15116
916.708	15211
916.82	15142
916.932	15116
917.044	15116
917.156	15070
917.268	14960
917.38	14929
917.491	14944
917.603	14921
917.715	14982
917.826	14994
917.938	14933
918.049	14762
918.161	14880
918.272	15009
918.384	15043
918.495	14857
918.606	14773
918.717	14640
918.828	14777
918.939	14693
919.05	14682
919.161	14632
919.272	14514
919.383	14507
919.494	14632
919.604	14929
919.715	14701
919.826	14571
919.936	14617
920.047	14663
920.157	14617
920.267	14910
920.378	14659
920.488	14640
920.598	14937
920.708	14853
920.818	14792
920.928	14857
921.038	14982
921.148	14971
921.258	14598
921.368	14514
921.477	14404
921.587	14408
921.697	14206
921.806	14381
921.916	14218
922.025	14111
922.134	13982
922.244	14046
922.353	14103
922.462	13940
922.571	13856
922.68	13658
922.789	13609
922.898	13780
923.007	13651
923.116	13647
923.224	13632
923.333	13674
923.442	13491
923.55	13472
923.659	13514
923.767	13601
923.876	13487
923.984	13506
924.092	13449
924.201	13411
924.309	13426
924.417	13373
924.525	13369
924.633	13244
924.741	14065
924.849	13164
924.956	13384
925.064	13133
925.172	13057
925.279	13019
925.387	13095
925.494	13141
925.602	13240
925.709	13168
925.816	13080
925.924	13042
926.031	13118
926.138	12985
926.245	13061
926.352	12871
926.459	12993
926.566	13118
926.673	12909
926.779	12878
926.886	12867
926.993	12620
927.099	12719
927.206	12601
927.312	12654
927.419	12646
927.525	12639
927.631	12707
927.737	12559
927.843	12494
927.95	12467
928.056	12467
928.162	12525
928.267	12528
928.373	13072
928.479	12551
928.585	12376
928.69	12391
928.796	12525
928.901	12353
929.007	12178
929.112	12239
929.218	12308
929.323	12224
929.428	12292
929.533	12224
929.638	12201
929.743	12159
929.848	12140
929.953	12129
930.058	12053
930.163	11920
930.267	11836
930.372	12095
930.477	11813
930.581	12053
930.685	11866
930.79	11745
930.894	11752
930.998	11710
931.103	11878
931.207	11528
931.311	11341
931.415	11395
931.519	11204
931.623	11143
