Data from test_V78500241_878.txt Node
Date: Fri Mar 25 15:15:58 CST 2022
User: usil
Spectrometer: V785-0024
Trigger mode: 0
Integration Time (sec): 4.000000E-1
Scans to average: 1
Nonlinearity correction enabled: false
Boxcar width: 0
Storing dark spectrum: false
XAxis mode: Wavelengths
Number of Pixels in Spectrum: 1024
>>>>>Begin Spectral Data<<<<<
801.071	27888
801.214	28021
801.356	27778
801.499	27614
801.641	27587
801.783	27637
801.926	27534
802.068	27496
802.211	27355
802.353	27427
802.496	27188
802.638	27283
802.78	27154
802.923	27131
803.065	27093
803.208	27188
803.35	27116
803.492	27382
803.635	27344
803.777	27211
803.919	27348
804.061	27549
804.204	27500
804.346	27424
804.488	27355
804.63	27279
804.773	27321
804.915	27416
805.057	27389
805.199	27298
805.341	27511
805.483	27557
805.626	27450
805.768	27492
805.91	27496
806.052	27492
806.194	27416
806.336	27694
806.478	27667
806.62	27701
806.762	27656
806.904	27835
807.046	27998
807.188	27831
807.33	27941
807.472	27922
807.614	27964
807.756	27808
807.898	27819
808.04	27713
808.182	27618
808.324	27698
808.465	27827
808.607	28021
808.749	28234
808.891	28101
809.033	28276
809.174	28341
809.316	28192
809.458	28409
809.6	28162
809.741	28261
809.883	28314
810.025	28493
810.166	28493
810.308	28459
810.45	28382
810.591	28348
810.733	28116
810.875	28173
811.016	28112
811.158	28090
811.299	28124
811.441	28249
811.582	28310
811.724	28230
811.865	28173
812.007	28261
812.148	28185
812.29	28169
812.431	28287
812.573	28428
812.714	28615
812.855	28569
812.997	28797
813.138	28915
813.279	28987
813.421	28679
813.562	28729
813.703	28546
813.845	28371
813.986	28181
814.127	28048
814.268	27869
814.41	27778
814.551	27964
814.692	27884
814.833	27728
814.974	27781
815.115	28059
815.256	27781
815.397	27736
815.539	27778
815.68	27641
815.821	27519
815.962	27663
816.103	27618
816.244	27545
816.385	27580
816.526	27363
816.666	27355
816.807	27264
816.948	27378
817.089	27313
817.23	27332
817.371	27279
817.512	27237
817.653	27138
817.793	27256
817.934	27142
818.075	27321
818.216	27157
818.356	27100
818.497	27081
818.638	26861
818.778	27070
818.919	26940
819.06	27085
819.2	27184
819.341	27214
819.481	27127
819.622	27332
819.762	27534
819.903	27542
820.043	27450
820.184	27306
820.324	27252
820.465	27348
820.605	27405
820.746	27370
820.886	27146
821.026	27336
821.167	27127
821.307	27389
821.447	27108
821.588	27032
821.728	27047
821.868	26914
822.008	26598
822.149	26674
822.289	26632
822.429	26450
822.569	26267
822.709	26351
822.849	26233
822.99	26229
823.13	26233
823.27	26138
823.41	25955
823.55	25966
823.69	26001
823.83	26122
823.97	25871
824.11	25799
824.25	25849
824.389	25860
824.529	25909
824.669	25909
824.809	26016
824.949	25909
825.089	26069
825.228	25860
825.368	25727
825.508	25689
825.648	25605
825.787	25845
825.927	25757
826.067	25601
826.206	25704
826.346	25700
826.485	25734
826.625	25601
826.765	25795
826.904	25772
827.044	25537
827.183	25453
827.323	25369
827.462	25586
827.601	25552
827.741	25495
827.88	25434
828.02	25270
828.159	25285
828.298	25479
828.437	25506
828.577	25308
828.716	25430
828.855	25422
828.994	25091
829.134	25118
829.273	25179
829.412	25084
829.551	25076
829.69	25156
829.829	25148
829.968	25247
830.107	25160
830.246	25152
830.385	25145
830.524	25065
830.663	24840
830.802	24909
830.941	24703
831.08	24783
831.219	24886
831.357	24844
831.496	24856
831.635	24665
831.774	24612
831.913	24639
832.051	24498
832.19	24574
832.329	24616
832.467	24437
832.606	24239
832.744	24372
832.883	24441
833.022	24311
833.16	24414
833.299	24403
833.437	24483
833.576	24372
833.714	24414
833.852	24483
833.991	24582
834.129	24612
834.267	24551
834.406	24350
834.544	24532
834.682	24445
834.821	24319
834.959	24547
835.097	24289
835.235	24540
835.373	24418
835.511	24505
835.65	24254
835.788	24338
835.926	24258
836.064	24095
836.202	24053
836.34	24330
836.478	24509
836.615	24277
836.753	24270
836.891	24353
837.029	24292
837.167	24220
837.305	24239
837.443	24117
837.58	24018
837.718	24125
837.856	24102
837.993	24114
838.131	24228
838.269	23992
838.406	24007
838.544	24049
838.681	23878
838.819	23790
838.956	23535
839.094	23497
839.231	23596
839.369	23817
839.506	24049
839.643	23809
839.781	23615
839.918	23455
840.055	23638
840.193	23585
840.33	23421
840.467	23512
840.604	23611
840.742	23794
840.879	23436
841.016	23463
841.153	23516
841.29	23547
841.427	23482
841.564	23634
841.701	23478
841.838	23406
841.975	23360
842.112	23337
842.249	23261
842.385	23261
842.522	23421
842.659	23383
842.796	23246
842.933	23208
843.069	23155
843.206	23235
843.343	23414
843.479	23239
843.616	23292
843.752	23121
843.889	23056
844.025	23170
844.162	23037
844.298	23189
844.435	23121
844.571	22923
844.708	23071
844.844	23273
844.98	23067
845.117	23155
845.253	22892
845.389	22968
845.525	22999
845.661	22934
845.798	22873
845.934	22904
846.07	22771
846.206	22729
846.342	22915
846.478	22653
846.614	22584
846.75	22352
846.886	22409
847.022	22577
847.158	22596
847.294	22470
847.429	22489
847.565	22478
847.701	22824
847.837	22196
847.972	22314
848.108	22329
848.244	22295
848.379	22143
848.515	22139
848.65	22021
848.786	22029
848.921	22158
849.057	22181
849.192	22135
849.328	22219
849.463	22074
849.598	22158
849.734	21911
849.869	21979
850.004	21987
850.14	21907
850.275	21968
850.41	21747
850.545	21842
850.68	21876
850.815	21960
850.95	21831
851.085	22067
851.22	22162
851.355	21823
851.49	21774
851.625	21850
851.76	21778
851.895	21728
852.03	21720
852.165	21838
852.299	21907
852.434	21922
852.569	21835
852.703	21797
852.838	21918
852.973	22154
853.107	21964
853.242	21781
853.376	21622
853.511	21549
853.645	21583
853.78	21842
853.914	21720
854.048	21686
854.183	21625
854.317	21812
854.451	21789
854.585	21705
854.72	21595
854.854	21804
854.988	21682
855.122	21717
855.256	21572
855.39	21682
855.524	21789
855.658	21751
855.792	21686
855.926	21622
856.06	21667
856.194	21766
856.327	21629
856.461	21641
856.595	21576
856.729	21682
856.862	21690
856.996	21717
857.13	21808
857.263	21762
857.397	21778
857.53	21656
857.664	21724
857.797	21835
857.931	21774
858.064	21698
858.197	21747
858.331	21599
858.464	21717
858.597	21519
858.731	21622
858.864	21644
858.997	21686
859.13	21705
859.263	21663
859.396	21770
859.529	21671
859.662	21564
859.795	21553
859.928	21599
860.061	21739
860.194	21808
860.327	21580
860.46	21781
860.592	21625
860.725	21797
860.858	21827
860.99	21663
861.123	21549
861.256	21675
861.388	21644
861.521	22436
861.653	21576
861.786	21450
861.918	21511
862.05	21587
862.183	21549
862.315	21614
862.447	21618
862.58	21530
862.712	21351
862.844	21310
862.976	21401
863.108	21485
863.24	21709
863.372	21344
863.504	21329
863.636	21454
863.768	21401
863.9	21272
864.032	21298
864.164	21363
864.296	21355
864.428	21557
864.559	21477
864.691	21507
864.823	21431
864.954	21420
865.086	21325
865.217	21313
865.349	21245
865.48	21249
865.612	21268
865.743	21386
865.875	21306
866.006	21283
866.137	21313
866.269	21310
866.4	21233
866.531	21249
866.662	21184
866.793	21176
866.924	21275
867.055	21264
867.186	21195
867.317	21252
867.448	21066
867.579	21279
867.71	21268
867.841	21150
867.972	21211
868.103	21150
868.233	21184
868.364	21188
868.495	21150
868.625	21496
868.756	21389
868.886	21291
869.017	21412
869.147	21557
869.278	21568
869.408	21504
869.539	21428
869.669	21485
869.799	21534
869.929	21606
870.06	21553
870.19	21778
870.32	21633
870.45	21755
870.58	21888
870.71	21899
870.84	21937
870.97	21774
871.1	21831
871.23	21979
871.36	21876
871.489	21895
871.619	22082
871.749	21918
871.879	22063
872.008	22192
872.138	22036
872.267	21945
872.397	22006
872.526	21766
872.656	21937
872.785	21915
872.915	22044
873.044	22139
873.173	22135
873.303	22006
873.432	22120
873.561	22185
873.69	22162
873.819	22090
873.948	22063
874.077	21975
874.206	22086
874.335	22074
874.464	22181
874.593	22284
874.722	22188
874.851	22268
874.979	22379
875.108	22337
875.237	22268
875.365	22147
875.494	22287
875.623	22265
875.751	22234
875.88	22234
876.008	22405
876.136	22516
876.265	22691
876.393	22816
876.521	22672
876.65	22634
876.778	22618
876.906	22535
877.034	22626
877.162	22672
877.29	22550
877.418	22645
877.546	22660
877.674	22592
877.802	22577
877.93	22668
878.058	22535
878.185	22641
878.313	22630
878.441	22656
878.568	22462
878.696	22554
878.824	22641
878.951	22740
879.079	22843
879.206	22896
879.333	22672
879.461	22679
879.588	22752
879.715	22862
879.842	22885
879.97	22733
880.097	22478
880.224	22569
880.351	22421
880.478	22489
880.605	22413
880.732	22474
880.859	22683
880.986	22497
881.112	22352
881.239	22306
881.366	22139
881.493	22086
881.619	22013
881.746	22032
881.872	22029
881.999	21953
882.125	21892
882.252	21994
882.378	22086
882.505	22093
882.631	21808
882.757	21701
882.883	21850
883.01	21759
883.136	21656
883.262	21568
883.388	21641
883.514	21785
883.64	21671
883.766	21622
883.892	21507
884.018	21534
884.143	21690
884.269	21656
884.395	21374
884.52	21370
884.646	21412
884.772	21230
884.897	21241
885.023	21325
885.148	21348
885.274	21500
885.399	21462
885.524	21237
885.65	21325
885.775	21431
885.9	21329
886.025	21393
886.15	21534
886.275	21207
886.4	21260
886.525	21397
886.65	21214
886.775	21283
886.9	21431
887.025	21599
887.149	21252
887.274	21264
887.399	21192
887.523	21055
887.648	21039
887.773	21005
887.897	21169
888.021	21233
888.146	21195
888.27	21287
888.395	21329
888.519	21226
888.643	21184
888.767	21211
888.891	21005
889.015	20944
889.139	21020
889.263	20899
889.387	20998
889.511	21096
889.635	21051
889.759	21028
889.883	21013
890.006	20921
890.13	20906
890.254	20902
890.377	20853
890.501	20754
890.624	20640
890.748	20800
890.871	20579
890.995	20374
891.118	20503
891.241	20533
891.364	20488
891.488	20621
891.611	20537
891.734	20522
891.857	20518
891.98	20518
892.103	20533
892.226	20533
892.349	20431
892.471	20343
892.594	20476
892.717	20484
892.839	20408
892.962	20427
893.085	20423
893.207	20305
893.33	20298
893.452	20370
893.575	20454
893.697	20518
893.819	20473
893.941	20454
894.064	20617
894.186	20366
894.308	20324
894.43	20389
894.552	20602
894.674	20492
894.796	20187
894.918	20336
895.04	20377
895.161	20488
895.283	20355
895.405	20381
895.526	20480
895.648	20366
895.769	20290
895.891	20358
896.012	20476
896.134	20480
896.255	20511
896.376	20351
896.498	20419
896.619	20492
896.74	20408
896.861	20408
896.982	20663
897.103	20880
897.224	20564
897.345	20640
897.466	20434
897.587	20530
897.708	20712
897.828	20621
897.949	20552
898.07	20419
898.19	20507
898.311	20689
898.431	20457
898.552	20629
898.672	20617
898.792	20826
898.913	20632
899.033	20488
899.153	20362
899.273	20305
899.393	20332
899.513	20385
899.633	20351
899.753	20434
899.873	20168
899.993	20438
900.113	20180
900.232	20259
900.352	20183
900.472	20180
900.591	20115
900.711	20092
900.83	20077
900.95	20096
901.069	20256
901.189	19989
901.308	19864
901.427	19704
901.546	19757
901.665	19666
901.784	19708
901.904	19613
902.023	19487
902.141	19365
902.26	19285
902.379	19263
902.498	19236
902.617	19114
902.735	19259
902.854	19145
902.973	19122
903.091	18795
903.21	18897
903.328	18954
903.446	18783
903.565	18669
903.683	18825
903.801	18532
903.919	18574
904.038	18589
904.156	18441
904.274	18498
904.392	18395
904.51	18483
904.627	18448
904.745	18422
904.863	18407
904.981	18285
905.098	18152
905.216	18102
905.334	18133
905.451	18076
905.569	17996
905.686	18182
905.803	18148
905.921	17912
906.038	18019
906.155	17939
906.272	17790
906.389	17775
906.506	17737
906.623	17653
906.74	17733
906.857	17551
906.974	17642
907.091	17714
907.208	17756
907.324	17638
907.441	17551
907.557	17509
907.674	17410
907.79	17212
907.907	17471
908.023	17436
908.139	17463
908.256	17391
908.372	17273
908.488	17318
908.604	17227
908.72	17128
908.836	17132
908.952	16953
909.068	16995
909.184	17094
909.3	17105
909.415	17159
909.531	17025
909.647	16786
909.762	16847
909.878	16786
909.993	16824
910.108	16797
910.224	16683
910.339	16812
910.454	16717
910.57	16584
910.685	16577
910.8	16835
910.915	16691
911.03	16592
911.145	16493
911.259	16451
911.374	16405
911.489	16341
911.604	16207
911.718	16086
911.833	16192
911.947	16059
912.062	15911
912.176	16158
912.291	16071
912.405	16074
912.519	16169
912.633	16280
912.748	16192
912.862	16204
912.976	15915
913.09	15861
913.204	15842
913.318	16010
913.431	16055
913.545	15842
913.659	16048
913.772	15857
913.886	15823
914	15751
914.113	15793
914.226	15987
914.34	15895
914.453	15667
914.566	15770
914.68	15526
914.793	15644
914.906	15466
915.019	15435
915.132	15275
915.245	15374
915.358	15416
915.47	15264
915.583	15325
915.696	15405
915.809	15492
915.921	15378
916.034	15283
916.146	15298
916.259	15173
916.371	15351
916.483	15226
916.595	15135
916.708	15165
916.82	15222
916.932	15066
917.044	15173
917.156	15142
917.268	14948
917.38	14948
917.491	15013
917.603	14880
917.715	15043
917.826	15173
917.938	14925
918.049	14746
918.161	14883
918.272	15127
918.384	14960
918.495	14872
918.606	14739
918.717	14674
918.828	14861
918.939	14735
919.05	14594
919.161	14636
919.272	14461
919.383	14648
919.494	14826
919.604	14948
919.715	14689
919.826	14549
919.936	14697
920.047	14754
920.157	14686
920.267	14952
920.378	14712
920.488	14598
920.598	14807
920.708	14933
920.818	14796
920.928	14788
921.038	14963
921.148	14975
921.258	14648
921.368	14556
921.477	14400
921.587	14389
921.697	14225
921.806	14431
921.916	14301
922.025	14183
922.134	14031
922.244	14012
922.353	14058
922.462	13997
922.571	13830
922.68	13746
922.789	13666
922.898	13734
923.007	13651
923.116	13708
923.224	13727
923.333	13723
923.442	13559
923.55	13487
923.659	13563
923.767	13620
923.876	13506
923.984	13571
924.092	13384
924.201	13510
924.309	13415
924.417	13468
924.525	13407
924.633	13285
924.741	14187
924.849	13156
924.956	13297
925.064	13126
925.172	13076
925.279	13152
925.387	13107
925.494	13175
925.602	13285
925.709	13110
925.816	13019
925.924	13129
926.031	13065
926.138	13129
926.245	13164
926.352	12932
926.459	13160
926.566	13152
926.673	13050
926.779	12981
926.886	12890
926.993	12715
927.099	12722
927.206	12559
927.312	12662
927.419	12749
927.525	12673
927.631	12669
927.737	12502
927.843	12521
927.95	12456
928.056	12452
928.162	12540
928.267	12483
928.373	13072
928.479	12574
928.585	12304
928.69	12475
928.796	12441
928.901	12350
929.007	12266
929.112	12369
929.218	12262
929.323	12091
929.428	12213
929.533	12353
929.638	12117
929.743	12163
929.848	12133
929.953	12190
930.058	12026
930.163	11912
930.267	11882
930.372	12136
930.477	11840
930.581	12060
930.685	11855
930.79	11722
930.894	11783
930.998	11798
931.103	11912
931.207	11543
931.311	11444
931.415	11360
931.519	11284
931.623	11201
