Data from test_V78500241_3494.txt Node
Date: Fri Mar 25 15:34:11 CST 2022
User: usil
Spectrometer: V785-0024
Trigger mode: 0
Integration Time (sec): 4.000000E-1
Scans to average: 1
Nonlinearity correction enabled: false
Boxcar width: 0
Storing dark spectrum: false
XAxis mode: Wavelengths
Number of Pixels in Spectrum: 1024
>>>>>Begin Spectral Data<<<<<
801.071	27226
801.214	27176
801.356	27036
801.499	27043
801.641	26823
801.783	26815
801.926	26998
802.068	26952
802.211	26659
802.353	26796
802.496	26549
802.638	26480
802.78	26495
802.923	26495
803.065	26267
803.208	26343
803.35	26465
803.492	26644
803.635	26625
803.777	26446
803.919	26659
804.061	26902
804.204	26712
804.346	26533
804.488	26476
804.63	26701
804.773	26446
804.915	26537
805.057	26693
805.199	26507
805.341	26655
805.483	26838
805.626	26773
805.768	26667
805.91	26693
806.052	26720
806.194	26636
806.336	26940
806.478	26880
806.62	26720
806.762	26769
806.904	27020
807.046	27161
807.188	27150
807.33	27085
807.472	27176
807.614	26887
807.756	27047
807.898	27036
808.04	26937
808.182	26971
808.324	26899
808.465	26918
808.607	27108
808.749	27382
808.891	27370
809.033	27591
809.174	27302
809.316	27317
809.458	27154
809.6	27302
809.741	27302
809.883	27447
810.025	27538
810.166	27534
810.308	27709
810.45	27572
810.591	27496
810.733	27298
810.875	27351
811.016	27241
811.158	27298
811.299	27313
811.441	27408
811.582	27283
811.724	27344
811.865	27222
812.007	27256
812.148	27298
812.29	27420
812.431	27420
812.573	27587
812.714	27793
812.855	27736
812.997	27850
813.138	28082
813.279	28002
813.421	27960
813.562	27675
813.703	27580
813.845	27348
813.986	27256
814.127	27104
814.268	27062
814.41	27043
814.551	26994
814.692	27070
814.833	26963
814.974	26948
815.115	26952
815.256	26861
815.397	26815
815.539	26807
815.68	26811
815.821	26621
815.962	26796
816.103	26678
816.244	26556
816.385	26434
816.526	26484
816.666	26343
816.807	26233
816.948	26267
817.089	26362
817.23	26301
817.371	26180
817.512	26252
817.653	26305
817.793	26199
817.934	26164
818.075	26164
818.216	26229
818.356	26221
818.497	26088
818.638	25894
818.778	26020
818.919	25936
819.06	26031
819.2	26191
819.341	26298
819.481	26153
819.622	26317
819.762	26625
819.903	26594
820.043	26438
820.184	26415
820.324	26305
820.465	26404
820.605	26400
820.746	26339
820.886	26191
821.026	26252
821.167	26294
821.307	26248
821.447	26130
821.588	26145
821.728	26024
821.868	25811
822.008	25814
822.149	25628
822.289	25613
822.429	25343
822.569	25331
822.709	25411
822.849	25251
822.99	25232
823.13	25080
823.27	25122
823.41	25095
823.55	24935
823.69	25091
823.83	25084
823.97	25027
824.11	24882
824.25	24840
824.389	24848
824.529	24951
824.669	24844
824.809	24981
824.949	24924
825.089	25000
825.228	24970
825.368	24776
825.508	24715
825.648	24795
825.787	24703
825.927	24707
826.067	24817
826.206	24692
826.346	24821
826.485	24798
826.625	24722
826.765	24764
826.904	24684
827.044	24467
827.183	24414
827.323	24433
827.462	24471
827.601	24445
827.741	24380
827.88	24414
828.02	24213
828.159	24483
828.298	24452
828.437	24479
828.577	24361
828.716	24540
828.855	24308
828.994	24171
829.134	24194
829.273	24194
829.412	24098
829.551	24102
829.69	24190
829.829	24106
829.968	24273
830.107	24266
830.246	24186
830.385	24140
830.524	24159
830.663	24083
830.802	23863
830.941	23752
831.08	23695
831.219	23859
831.357	23824
831.496	23942
831.635	23809
831.774	23608
831.913	23756
832.051	23733
832.19	23505
832.329	23642
832.467	23436
832.606	23360
832.744	23478
832.883	23376
833.022	23452
833.16	23486
833.299	23463
833.437	23452
833.576	23512
833.714	23608
833.852	23668
833.991	23668
834.129	23767
834.267	23615
834.406	23570
834.544	23501
834.682	23455
834.821	23440
834.959	23779
835.097	23383
835.235	23497
835.373	23543
835.511	23448
835.65	23368
835.788	23391
835.926	23315
836.064	23174
836.202	23170
836.34	23421
836.478	23448
836.615	23387
836.753	23478
836.891	23414
837.029	23398
837.167	23280
837.305	23478
837.443	23239
837.58	23159
837.718	23197
837.856	23212
837.993	23128
838.131	23208
838.269	23094
838.406	23083
838.544	23048
838.681	22908
838.819	22972
838.956	22573
839.094	22790
839.231	22668
839.369	22915
839.506	23037
839.643	23029
839.781	22622
839.918	22694
840.055	22649
840.193	22622
840.33	22713
840.467	22687
840.604	22698
840.742	22972
840.879	22569
841.016	22493
841.153	22523
841.29	22759
841.427	22702
841.564	22637
841.701	22592
841.838	22489
841.975	22516
842.112	22470
842.249	22447
842.385	22360
842.522	22519
842.659	22462
842.796	22398
842.933	22417
843.069	22287
843.206	22443
843.343	22481
843.479	22382
843.616	22310
843.752	22192
843.889	22204
844.025	22223
844.162	22196
844.298	22223
844.435	22188
844.571	22158
844.708	22192
844.844	22360
844.98	22318
845.117	22196
845.253	22063
845.389	22086
845.525	22120
845.661	22017
845.798	22013
845.934	21968
846.07	21789
846.206	21819
846.342	22032
846.478	21907
846.614	21808
846.75	21599
846.886	21576
847.022	21793
847.158	21652
847.294	21762
847.429	21743
847.565	21568
847.701	21956
847.837	21268
847.972	21363
848.108	21500
848.244	21473
848.379	21389
848.515	21207
848.65	21142
848.786	21268
848.921	21226
849.057	21230
849.192	21321
849.328	21192
849.463	21249
849.598	21184
849.734	21154
849.869	21161
850.004	21108
850.14	21028
850.275	21100
850.41	20967
850.545	20982
850.68	21055
850.815	21036
850.95	20910
851.085	21074
851.22	21237
851.355	21005
851.49	20944
851.625	21005
851.76	21074
851.895	21009
852.03	21062
852.165	20868
852.299	21001
852.434	20948
852.569	21036
852.703	21051
852.838	21169
852.973	21089
853.107	21161
853.242	20963
853.376	20895
853.511	20758
853.645	20693
853.78	21066
853.914	20906
854.048	20857
854.183	20842
854.317	20925
854.451	21081
854.585	20815
854.72	20880
854.854	20937
854.988	20800
855.122	20819
855.256	20720
855.39	20868
855.524	20906
855.658	20925
855.792	20910
855.926	20895
856.06	20944
856.194	20918
856.327	20864
856.461	20853
856.595	20727
856.729	20819
856.862	20956
856.996	20902
857.13	20902
857.263	21009
857.397	21150
857.53	20883
857.664	20986
857.797	20845
857.931	20880
858.064	20880
858.197	20880
858.331	20845
858.464	20834
858.597	20758
858.731	20906
858.864	20826
858.997	20914
859.13	20921
859.263	20899
859.396	20925
859.529	20769
859.662	20739
859.795	20708
859.928	20739
860.061	21013
860.194	21142
860.327	21085
860.46	20906
860.592	21001
860.725	21039
860.858	21108
860.99	20990
861.123	20773
861.256	20830
861.388	20948
861.521	21568
861.653	20773
861.786	20659
861.918	20667
862.05	20743
862.183	20838
862.315	20845
862.447	20979
862.58	20826
862.712	20625
862.844	20613
862.976	20667
863.108	20720
863.24	20998
863.372	20530
863.504	20507
863.636	20530
863.768	20693
863.9	20651
864.032	20541
864.164	20564
864.296	20648
864.428	20655
864.559	20648
864.691	20587
864.823	20640
864.954	20434
865.086	20530
865.217	20568
865.349	20431
865.48	20469
865.612	20484
865.743	20560
865.875	20514
866.006	20377
866.137	20492
866.269	20492
866.4	20499
866.531	20328
866.662	20412
866.793	20366
866.924	20476
867.055	20541
867.186	20457
867.317	20336
867.448	20313
867.579	20339
867.71	20301
867.841	20377
867.972	20366
868.103	20358
868.233	20419
868.364	20465
868.495	20457
868.625	20651
868.756	20765
868.886	20575
869.017	20731
869.147	20731
869.278	20834
869.408	20590
869.539	20594
869.669	20735
869.799	20640
869.929	20868
870.06	20758
870.19	20941
870.32	20914
870.45	20929
870.58	20971
870.71	21127
870.84	21089
870.97	21066
871.1	21009
871.23	21237
871.36	21127
871.489	21241
871.619	21313
871.749	21272
871.879	21450
872.008	21405
872.138	21291
872.267	21188
872.397	21066
872.526	21104
872.656	21138
872.785	21036
872.915	21344
873.044	21405
873.173	21298
873.303	21329
873.432	21378
873.561	21462
873.69	21272
873.819	21279
873.948	21382
874.077	21374
874.206	21214
874.335	21317
874.464	21386
874.593	21561
874.722	21466
874.851	21595
874.979	21564
875.108	21652
875.237	21557
875.365	21450
875.494	21515
875.623	21705
875.751	21610
875.88	21526
876.008	21587
876.136	21652
876.265	21918
876.393	22162
876.521	22010
876.65	21979
876.778	21945
876.906	21842
877.034	21899
877.162	21945
877.29	21884
877.418	21964
877.546	21941
877.674	21876
877.802	21876
877.93	21918
878.058	21800
878.185	21778
878.313	21907
878.441	21781
878.568	21770
878.696	21804
878.824	21922
878.951	22013
879.079	22097
879.206	22207
879.333	22048
879.461	21846
879.588	22006
879.715	22090
879.842	22120
879.97	22017
880.097	21766
880.224	21709
880.351	21827
880.478	21709
880.605	21614
880.732	21755
880.859	21972
880.986	21606
881.112	21682
881.239	21523
881.366	21431
881.493	21317
881.619	21226
881.746	21401
881.872	21214
881.999	21268
882.125	21237
882.252	21313
882.378	21306
882.505	21424
882.631	21146
882.757	21062
882.883	21020
883.01	21096
883.136	20910
883.262	20883
883.388	20929
883.514	21093
883.64	20998
883.766	20914
883.892	20750
884.018	20750
884.143	20960
884.269	20979
884.395	20651
884.52	20522
884.646	20606
884.772	20625
884.897	20507
885.023	20571
885.148	20754
885.274	20804
885.399	20716
885.524	20655
885.65	20648
885.775	20644
885.9	20644
886.025	20659
886.15	20705
886.275	20533
886.4	20609
886.525	20689
886.65	20602
886.775	20594
886.9	20727
887.025	20800
887.149	20533
887.274	20495
887.399	20396
887.523	20408
887.648	20351
887.773	20385
887.897	20480
888.021	20427
888.146	20408
888.27	20480
888.395	20442
888.519	20438
888.643	20347
888.767	20564
888.891	20267
889.015	20218
889.139	20317
889.263	20294
889.387	20290
889.511	20492
889.635	20259
889.759	20172
889.883	20199
890.006	20298
890.13	20267
890.254	20122
890.377	19997
890.501	19978
890.624	20005
890.748	20138
890.871	19856
890.995	19712
891.118	19795
891.241	19902
891.364	19833
891.488	19883
891.611	19772
891.734	19731
891.857	19864
891.98	19784
892.103	19830
892.226	19753
892.349	19753
892.471	19712
892.594	19704
892.717	19860
892.839	19712
892.962	19723
893.085	19750
893.207	19746
893.33	19613
893.452	19681
893.575	19761
893.697	19746
893.819	19807
893.941	19868
894.064	19845
894.186	19723
894.308	19567
894.43	19704
894.552	19738
894.674	19822
894.796	19616
894.918	19685
895.04	19719
895.161	19761
895.283	19753
895.405	19575
895.526	19712
895.648	19616
895.769	19693
895.891	19715
896.012	19776
896.134	19765
896.255	19731
896.376	19696
896.498	19719
896.619	19750
896.74	19750
896.861	19868
896.982	20073
897.103	20252
897.224	19959
897.345	19982
897.466	19833
897.587	19955
897.708	20065
897.828	20084
897.949	19818
898.07	19803
898.19	19917
898.311	20024
898.431	19978
898.552	19951
898.672	20058
898.792	20073
898.913	19936
899.033	19807
899.153	19791
899.273	19559
899.393	19769
899.513	19658
899.633	19731
899.753	19643
899.873	19605
899.993	19715
900.113	19605
900.232	19605
900.352	19540
900.472	19487
900.591	19468
900.711	19548
900.83	19445
900.95	19613
901.069	19480
901.189	19388
901.308	19091
901.427	19076
901.546	19004
901.665	19065
901.784	19042
901.904	18935
902.023	18787
902.141	18631
902.26	18547
902.379	18627
902.498	18612
902.617	18479
902.735	18627
902.854	18612
902.973	18437
903.091	18277
903.21	18251
903.328	18304
903.446	18171
903.565	18095
903.683	18125
903.801	17901
903.919	17969
904.038	17965
904.156	17809
904.274	17920
904.392	17813
904.51	17802
904.627	17726
904.745	17798
904.863	17733
904.981	17570
905.098	17417
905.216	17505
905.334	17547
905.451	17554
905.569	17497
905.686	17490
905.803	17459
905.921	17376
906.038	17379
906.155	17254
906.272	17208
906.389	17151
906.506	17045
906.623	17048
906.74	16957
906.857	16824
906.974	16965
907.091	16995
907.208	17128
907.324	17029
907.441	16949
907.557	16854
907.674	16869
907.79	16717
907.907	16706
908.023	16694
908.139	16744
908.256	16786
908.372	16763
908.488	16649
908.604	16485
908.72	16588
908.836	16424
908.952	16363
909.068	16489
909.184	16535
909.3	16485
909.415	16558
909.531	16451
909.647	16097
909.762	16150
909.878	16109
909.993	16173
910.108	16173
910.224	16207
910.339	16185
910.454	16059
910.57	15987
910.685	15838
910.8	16093
910.915	16196
911.03	16025
911.145	15789
911.259	15819
911.374	15838
911.489	15751
911.604	15637
911.718	15412
911.833	15405
911.947	15473
912.062	15511
912.176	15633
912.291	15549
912.405	15511
912.519	15751
912.633	15751
912.748	15523
912.862	15545
912.976	15500
913.09	15230
913.204	15287
913.318	15458
913.431	15382
913.545	15443
913.659	15519
913.772	15291
913.886	15287
914	15154
914.113	15199
914.226	15249
914.34	15275
914.453	14998
914.566	15119
914.68	15097
914.793	15051
914.906	14819
915.019	14720
915.132	14697
915.245	14750
915.358	14678
915.47	14769
915.583	14785
915.696	14815
915.809	14887
915.921	14937
916.034	14735
916.146	14587
916.259	14712
916.371	14807
916.483	14750
916.595	14663
916.708	14743
916.82	14598
916.932	14674
917.044	14651
917.156	14606
917.268	14522
917.38	14537
917.491	14476
917.603	14446
917.715	14518
917.826	14522
917.938	14412
918.049	14305
918.161	14415
918.272	14560
918.384	14461
918.495	14408
918.606	14324
918.717	14157
918.828	14248
918.939	14271
919.05	14164
919.161	14172
919.272	14096
919.383	14111
919.494	14263
919.604	14442
919.715	14252
919.826	14069
919.936	14221
920.047	14229
920.157	14271
920.267	14396
920.378	14161
920.488	14065
920.598	14351
920.708	14488
920.818	14332
920.928	14324
921.038	14492
921.148	14381
921.258	14073
921.368	14073
921.477	13928
921.587	13830
921.697	13845
921.806	13841
921.916	13769
922.025	13712
922.134	13655
922.244	13586
922.353	13594
922.462	13449
922.571	13343
922.68	13270
922.789	13069
922.898	13213
923.007	13149
923.116	13236
923.224	13278
923.333	13107
923.442	13126
923.55	13099
923.659	13122
923.767	13099
923.876	12981
923.984	13050
924.092	12928
924.201	13004
924.309	13072
924.417	13053
924.525	12840
924.633	12977
924.741	13639
924.849	12715
924.956	12886
925.064	12665
925.172	12623
925.279	12593
925.387	12677
925.494	12654
925.602	12772
925.709	12696
925.816	12563
925.924	12642
926.031	12783
926.138	12612
926.245	12688
926.352	12445
926.459	12658
926.566	12745
926.673	12525
926.779	12426
926.886	12410
926.993	12273
927.099	12285
927.206	12197
927.312	12175
927.419	12281
927.525	12254
927.631	12213
927.737	12087
927.843	12083
927.95	11965
928.056	12019
928.162	12098
928.267	12125
928.373	12585
928.479	12171
928.585	11958
928.69	12019
928.796	12034
928.901	11897
929.007	11745
929.112	12015
929.218	11882
929.323	11771
929.428	11699
929.533	11878
929.638	11714
929.743	11646
929.848	11752
929.953	11707
930.058	11680
930.163	11448
930.267	11516
930.372	11611
930.477	11421
930.581	11691
930.685	11497
930.79	11429
930.894	11356
930.998	11322
931.103	11459
931.207	11159
931.311	11041
931.415	11022
931.519	10805
931.623	10706
