Data from test_V78500241_34.txt Node
Date: Fri Mar 25 15:10:06 CST 2022
User: usil
Spectrometer: V785-0024
Trigger mode: 0
Integration Time (sec): 4.000000E-1
Scans to average: 1
Nonlinearity correction enabled: false
Boxcar width: 0
Storing dark spectrum: false
XAxis mode: Wavelengths
Number of Pixels in Spectrum: 1024
>>>>>Begin Spectral Data<<<<<
801.071	28675
801.214	28622
801.356	28401
801.499	28451
801.641	28303
801.783	28276
801.926	28295
802.068	28120
802.211	28044
802.353	28082
802.496	28002
802.638	27991
802.78	28074
802.923	27762
803.065	27724
803.208	27770
803.35	27892
803.492	27934
803.635	27854
803.777	27907
803.919	28025
804.061	28341
804.204	28063
804.346	27759
804.488	27793
804.63	27968
804.773	27854
804.915	28074
805.057	27964
805.199	27968
805.341	27991
805.483	28010
805.626	28021
805.768	27755
805.91	28055
806.052	27956
806.194	27876
806.336	28063
806.478	27922
806.62	28090
806.762	28032
806.904	28280
807.046	28440
807.188	28162
807.33	28287
807.472	28481
807.614	28143
807.756	28253
807.898	28090
808.04	28029
808.182	28017
808.324	28192
808.465	28051
808.607	28386
808.749	28417
808.891	28500
809.033	28557
809.174	28557
809.316	28295
809.458	28398
809.6	28500
809.741	28653
809.883	28432
810.025	28748
810.166	28653
810.308	28698
810.45	28687
810.591	28641
810.733	28470
810.875	28379
811.016	28268
811.158	28280
811.299	28489
811.441	28443
811.582	28451
811.724	28432
811.865	28386
812.007	28363
812.148	28325
812.29	28413
812.431	28538
812.573	28729
812.714	28774
812.855	28816
812.997	28957
813.138	29067
813.279	29003
813.421	29014
813.562	28748
813.703	28649
813.845	28451
813.986	28272
814.127	28116
814.268	28112
814.41	28074
814.551	28017
814.692	28017
814.833	28013
814.974	27926
815.115	28044
815.256	27835
815.397	27789
815.539	27789
815.68	27622
815.821	27633
815.962	27751
816.103	27485
816.244	27473
816.385	27568
816.526	27332
816.666	27230
816.807	27055
816.948	27146
817.089	27138
817.23	27173
817.371	27020
817.512	27043
817.653	27009
817.793	27024
817.934	27058
818.075	27036
818.216	26990
818.356	27104
818.497	26796
818.638	26754
818.778	26762
818.919	26826
819.06	26739
819.2	26956
819.341	26967
819.481	26948
819.622	27093
819.762	27275
819.903	27112
820.043	27100
820.184	27001
820.324	27058
820.465	27039
820.605	26979
820.746	26906
820.886	26937
821.026	26971
821.167	26754
821.307	26967
821.447	26937
821.588	26838
821.728	26682
821.868	26530
822.008	26408
822.149	26484
822.289	26408
822.429	26107
822.569	26081
822.709	26031
822.849	25925
822.99	25837
823.13	25879
823.27	25818
823.41	25746
823.55	25438
823.69	25624
823.83	25620
823.97	25578
824.11	25339
824.25	25540
824.389	25445
824.529	25540
824.669	25460
824.809	25434
824.949	25487
825.089	25525
825.228	25544
825.368	25259
825.508	25225
825.648	25228
825.787	25449
825.927	25259
826.067	25107
826.206	25255
826.346	25293
826.485	25285
826.625	25148
826.765	25358
826.904	25343
827.044	25042
827.183	24985
827.323	24856
827.462	24905
827.601	25023
827.741	24916
827.88	24863
828.02	24776
828.159	24844
828.298	24848
828.437	24947
828.577	24958
828.716	24875
828.855	24795
828.994	24612
829.134	24566
829.273	24616
829.412	24521
829.551	24563
829.69	24608
829.829	24528
829.968	24665
830.107	24646
830.246	24551
830.385	24414
830.524	24407
830.663	24292
830.802	24163
830.941	24220
831.08	24159
831.219	24232
831.357	24182
831.496	24330
831.635	23996
831.774	23965
831.913	23904
832.051	23942
832.19	23771
832.329	23889
832.467	23764
832.606	23623
832.744	23619
832.883	23699
833.022	23668
833.16	23714
833.299	23756
833.437	23729
833.576	23729
833.714	23630
833.852	23783
833.991	23741
834.129	23874
834.267	23767
834.406	23760
834.544	23779
834.682	23638
834.821	23596
834.959	23790
835.097	23676
835.235	23691
835.373	23604
835.511	23718
835.65	23581
835.788	23634
835.926	23376
836.064	23383
836.202	23455
836.34	23623
836.478	23608
836.615	23436
836.753	23558
836.891	23512
837.029	23608
837.167	23573
837.305	23395
837.443	23512
837.58	23425
837.718	23482
837.856	23410
837.993	23284
838.131	23376
838.269	23227
838.406	23254
838.544	23181
838.681	22911
838.819	22968
838.956	22797
839.094	22744
839.231	22744
839.369	22949
839.506	23052
839.643	23136
839.781	22862
839.918	22694
840.055	22683
840.193	22694
840.33	22733
840.467	22637
840.604	22618
840.742	22991
840.879	22550
841.016	22664
841.153	22603
841.29	22744
841.427	22611
841.564	22687
841.701	22656
841.838	22523
841.975	22622
842.112	22618
842.249	22386
842.385	22394
842.522	22531
842.659	22390
842.796	22287
842.933	22348
843.069	22287
843.206	22390
843.343	22550
843.479	22242
843.616	22299
843.752	22147
843.889	22139
844.025	22268
844.162	22082
844.298	22181
844.435	22055
844.571	22025
844.708	22173
844.844	22230
844.98	22181
845.117	22059
845.253	21998
845.389	21926
845.525	21994
845.661	22017
845.798	21759
845.934	21720
846.07	21823
846.206	21751
846.342	21873
846.478	21694
846.614	21652
846.75	21492
846.886	21492
847.022	21591
847.158	21595
847.294	21679
847.429	21580
847.565	21454
847.701	21656
847.837	21131
847.972	21138
848.108	21336
848.244	21176
848.379	21142
848.515	21036
848.65	21062
848.786	20994
848.921	21055
849.057	21146
849.192	21131
849.328	21085
849.463	21119
849.598	21081
849.734	20902
849.869	20788
850.004	20849
850.14	20807
850.275	20750
850.41	20552
850.545	20762
850.68	20712
850.815	20815
850.95	20857
851.085	20944
851.22	20792
851.355	20705
851.49	20773
851.625	20674
851.76	20720
851.895	20667
852.03	20632
852.165	20830
852.299	20773
852.434	20815
852.569	20758
852.703	20857
852.838	20872
852.973	20948
853.107	20891
853.242	20670
853.376	20560
853.511	20434
853.645	20541
853.78	20754
853.914	20617
854.048	20560
854.183	20583
854.317	20606
854.451	20674
854.585	20621
854.72	20522
854.854	20659
854.988	20476
855.122	20530
855.256	20415
855.39	20518
855.524	20625
855.658	20697
855.792	20461
855.926	20602
856.06	20590
856.194	20602
856.327	20530
856.461	20511
856.595	20549
856.729	20587
856.862	20495
856.996	20530
857.13	20511
857.263	20644
857.397	20663
857.53	20556
857.664	20537
857.797	20446
857.931	20587
858.064	20526
858.197	20640
858.331	20503
858.464	20473
858.597	20362
858.731	20476
858.864	20423
858.997	20480
859.13	20514
859.263	20415
859.396	20568
859.529	20427
859.662	20465
859.795	20442
859.928	20507
860.061	20583
860.194	20613
860.327	20526
860.46	20450
860.592	20613
860.725	20522
860.858	20579
860.99	20381
861.123	20404
861.256	20351
861.388	20457
861.521	20956
861.653	20317
861.786	20305
861.918	20377
862.05	20450
862.183	20480
862.315	20533
862.447	20587
862.58	20522
862.712	20187
862.844	20111
862.976	20358
863.108	20248
863.24	20689
863.372	20024
863.504	20103
863.636	20142
863.768	20206
863.9	20050
864.032	20119
864.164	20157
864.296	20119
864.428	20374
864.559	20176
864.691	20267
864.823	20180
864.954	20214
865.086	20122
865.217	20206
865.349	20024
865.48	20043
865.612	20111
865.743	20267
865.875	20043
866.006	20088
866.137	20016
866.269	20069
866.4	20027
866.531	20077
866.662	19967
866.793	19928
866.924	19951
867.055	19989
867.186	19947
867.317	19986
867.448	19932
867.579	19917
867.71	19921
867.841	19940
867.972	20050
868.103	20008
868.233	20020
868.364	20077
868.495	20126
868.625	20275
868.756	20358
868.886	20081
869.017	20130
869.147	20347
869.278	20259
869.408	20278
869.539	20233
869.669	20347
869.799	20263
869.929	20370
870.06	20206
870.19	20355
870.32	20556
870.45	20644
870.58	20556
870.71	20678
870.84	20609
870.97	20697
871.1	20530
871.23	20883
871.36	20731
871.489	20686
871.619	20826
871.749	20796
871.879	20887
872.008	20918
872.138	20705
872.267	20815
872.397	20724
872.526	20556
872.656	20594
872.785	20670
872.915	20743
873.044	20868
873.173	20845
873.303	20861
873.432	20891
873.561	20918
873.69	20918
873.819	20838
873.948	20880
874.077	20872
874.206	20815
874.335	20948
874.464	20887
874.593	21081
874.722	21077
874.851	20994
874.979	21077
875.108	21066
875.237	21005
875.365	21123
875.494	21051
875.623	21081
875.751	20861
875.88	21047
876.008	21195
876.136	21268
876.265	21519
876.393	21701
876.521	21515
876.65	21576
876.778	21481
876.906	21526
877.034	21439
877.162	21408
877.29	21321
877.418	21370
877.546	21401
877.674	21530
877.802	21473
877.93	21386
878.058	21374
878.185	21317
878.313	21458
878.441	21447
878.568	21355
878.696	21412
878.824	21473
878.951	21473
879.079	21564
879.206	21717
879.333	21637
879.461	21473
879.588	21709
879.715	21534
879.842	21606
879.97	21504
880.097	21199
880.224	21165
880.351	21321
880.478	21351
880.605	21176
880.732	21195
880.859	21500
880.986	21252
881.112	21340
881.239	21142
881.366	20948
881.493	20986
881.619	20880
881.746	20887
881.872	20868
881.999	20800
882.125	20735
882.252	20895
882.378	20864
882.505	20914
882.631	20838
882.757	20651
882.883	20708
883.01	20667
883.136	20727
883.262	20404
883.388	20495
883.514	20655
883.64	20731
883.766	20396
883.892	20339
884.018	20389
884.143	20465
884.269	20648
884.395	20263
884.52	20256
884.646	20294
884.772	20271
884.897	20096
885.023	20244
885.148	20256
885.274	20434
885.399	20332
885.524	20134
885.65	20244
885.775	20229
885.9	20130
886.025	20282
886.15	20339
886.275	20119
886.4	20115
886.525	20237
886.65	20149
886.775	20062
886.9	20332
887.025	20362
887.149	20164
887.274	20001
887.399	19875
887.523	20008
887.648	19997
887.773	19868
887.897	20016
888.021	20043
888.146	19974
888.27	20050
888.395	20001
888.519	20058
888.643	19993
888.767	20024
888.891	19894
889.015	19769
889.139	19845
889.263	19864
889.387	19868
889.511	20058
889.635	19784
889.759	19708
889.883	19723
890.006	19803
890.13	19845
890.254	19597
890.377	19761
890.501	19419
890.624	19506
890.748	19552
890.871	19362
890.995	19331
891.118	19221
891.241	19289
891.364	19289
891.488	19468
891.611	19407
891.734	19259
891.857	19316
891.98	19400
892.103	19354
892.226	19324
892.349	19259
892.471	19076
892.594	19232
892.717	19320
892.839	19308
892.962	19266
893.085	19415
893.207	19266
893.33	19217
893.452	19171
893.575	19384
893.697	19278
893.819	19419
893.941	19441
894.064	19369
894.186	19164
894.308	19202
894.43	19293
894.552	19556
894.674	19244
894.796	19152
894.918	19213
895.04	19320
895.161	19316
895.283	19228
895.405	19301
895.526	19244
895.648	19335
895.769	19274
895.891	19346
896.012	19358
896.134	19285
896.255	19297
896.376	19263
896.498	19312
896.619	19434
896.74	19285
896.861	19263
896.982	19689
897.103	19765
897.224	19704
897.345	19578
897.466	19548
897.587	19571
897.708	19609
897.828	19559
897.949	19563
898.07	19362
898.19	19502
898.311	19537
898.431	19407
898.552	19438
898.672	19426
898.792	19438
898.913	19518
899.033	19270
899.153	19255
899.273	19160
899.393	19259
899.513	19339
899.633	19179
899.753	19194
899.873	19247
899.993	19282
900.113	19171
900.232	19088
900.352	19209
900.472	19015
900.591	19046
900.711	18954
900.83	18958
900.95	19107
901.069	19114
901.189	18901
901.308	18715
901.427	18654
901.546	18681
901.665	18540
901.784	18669
901.904	18620
902.023	18376
902.141	18201
902.26	18095
902.379	18251
902.498	18174
902.617	18083
902.735	18072
902.854	18057
902.973	18007
903.091	17680
903.21	17771
903.328	17817
903.446	17657
903.565	17596
903.683	17642
903.801	17436
903.919	17615
904.038	17596
904.156	17383
904.274	17554
904.392	17425
904.51	17315
904.627	17406
904.745	17417
904.863	17387
904.981	17162
905.098	16995
905.216	17010
905.334	17045
905.451	17056
905.569	17018
905.686	17041
905.803	17094
905.921	16812
906.038	16896
906.155	16805
906.272	16721
906.389	16721
906.506	16603
906.623	16558
906.74	16565
906.857	16424
906.974	16428
907.091	16653
907.208	16763
907.324	16668
907.441	16596
907.557	16325
907.674	16242
907.79	16261
907.907	16230
908.023	16265
908.139	16284
908.256	16325
908.372	16166
908.488	16112
908.604	16071
908.72	15903
908.836	16040
908.952	15899
909.068	15953
909.184	16048
909.3	15937
909.415	15964
909.531	15907
909.647	15629
909.762	15682
909.878	15622
909.993	15701
910.108	15545
910.224	15553
910.339	15667
910.454	15584
910.57	15466
910.685	15283
910.8	15667
910.915	15545
911.03	15492
911.145	15294
911.259	15252
911.374	15192
911.489	15173
911.604	15161
911.718	14956
911.833	14990
911.947	14925
912.062	14815
912.176	14998
912.291	14948
912.405	14960
912.519	15089
912.633	15340
912.748	15028
912.862	14925
912.976	14914
913.09	14617
913.204	14701
913.318	14796
913.431	14861
913.545	14925
913.659	14990
913.772	14758
913.886	14556
914	14583
914.113	14678
914.226	14720
914.34	14720
914.453	14419
914.566	14773
914.68	14522
914.793	14457
914.906	14229
915.019	14320
915.132	14195
915.245	14252
915.358	14237
915.47	14278
915.583	14290
915.696	14286
915.809	14393
915.921	14480
916.034	14244
916.146	14161
916.259	14172
916.371	14343
916.483	14176
916.595	14103
916.708	14088
916.82	14050
916.932	14138
917.044	14183
917.156	14088
917.268	13917
917.38	14084
917.491	13898
917.603	13970
917.715	14024
917.826	14001
917.938	13814
918.049	13791
918.161	13887
918.272	14039
918.384	14062
918.495	13849
918.606	13700
918.717	13693
918.828	13708
918.939	13753
919.05	13518
919.161	13772
919.272	13460
919.383	13559
919.494	13776
919.604	13849
919.715	13719
919.826	13624
919.936	13708
920.047	13719
920.157	13704
920.267	13856
920.378	13662
920.488	13685
920.598	13776
920.708	13989
920.818	13845
920.928	13814
921.038	13967
921.148	13902
921.258	13655
921.368	13582
921.477	13445
921.587	13308
921.697	13225
921.806	13403
921.916	13285
922.025	13129
922.134	13114
922.244	12947
922.353	13072
922.462	12844
922.571	12905
922.68	12791
922.789	12681
922.898	12696
923.007	12528
923.116	12707
923.224	12692
923.333	12517
923.442	12540
923.55	12502
923.659	12460
923.767	12578
923.876	12509
923.984	12593
924.092	12498
924.201	12566
924.309	12445
924.417	12426
924.525	12353
924.633	12407
924.741	13232
924.849	12163
924.956	12235
925.064	12148
925.172	12087
925.279	12098
925.387	12102
925.494	12125
925.602	12296
925.709	12194
925.816	12068
925.924	12083
926.031	12243
926.138	12076
926.245	12159
926.352	12060
926.459	12209
926.566	12224
926.673	12068
926.779	11836
926.886	11882
926.993	11859
927.099	11699
927.206	11760
927.312	11771
927.419	11813
927.525	11680
927.631	11752
927.737	11638
927.843	11562
927.95	11516
928.056	11630
928.162	11570
928.267	11630
928.373	12285
928.479	11699
928.585	11322
928.69	11558
928.796	11524
928.901	11512
929.007	11265
929.112	11532
929.218	11417
929.323	11303
929.428	11311
929.533	11505
929.638	11242
929.743	11242
929.848	11307
929.953	11273
930.058	11124
930.163	10999
930.267	11037
930.372	11102
930.477	10957
930.581	11201
930.685	11102
930.79	10896
930.894	10900
930.998	10919
931.103	10968
931.207	10687
931.311	10611
931.415	10489
931.519	10280
931.623	10295
