Data from test_V78500241_2305.txt Node
Date: Fri Mar 25 15:25:54 CST 2022
User: usil
Spectrometer: V785-0024
Trigger mode: 0
Integration Time (sec): 4.000000E-1
Scans to average: 1
Nonlinearity correction enabled: false
Boxcar width: 0
Storing dark spectrum: false
XAxis mode: Wavelengths
Number of Pixels in Spectrum: 1024
>>>>>Begin Spectral Data<<<<<
801.071	27291
801.214	27150
801.356	26990
801.499	27001
801.641	26811
801.783	26887
801.926	26819
802.068	26800
802.211	26785
802.353	26613
802.496	26689
802.638	26473
802.78	26480
802.923	26317
803.065	26495
803.208	26434
803.35	26408
803.492	26568
803.635	26651
803.777	26514
803.919	26594
804.061	26868
804.204	26743
804.346	26564
804.488	26705
804.63	26686
804.773	26571
804.915	26682
805.057	26739
805.199	26621
805.341	26701
805.483	26902
805.626	26800
805.768	26651
805.91	26712
806.052	26758
806.194	26644
806.336	26933
806.478	26842
806.62	26819
806.762	26963
806.904	26963
807.046	27275
807.188	27116
807.33	27252
807.472	27165
807.614	26998
807.756	27104
807.898	27039
808.04	26963
808.182	27005
808.324	27066
808.465	27104
808.607	27214
808.749	27378
808.891	27336
809.033	27485
809.174	27340
809.316	27340
809.458	27348
809.6	27249
809.741	27530
809.883	27633
810.025	27583
810.166	27545
810.308	27690
810.45	27606
810.591	27564
810.733	27317
810.875	27272
811.016	27192
811.158	27325
811.299	27416
811.441	27511
811.582	27469
811.724	27355
811.865	27306
812.007	27332
812.148	27321
812.29	27405
812.431	27583
812.573	27709
812.714	27793
812.855	27907
812.997	27975
813.138	28082
813.279	27968
813.421	27865
813.562	27831
813.703	27622
813.845	27561
813.986	27214
814.127	27173
814.268	26929
814.41	26975
814.551	27039
814.692	27043
814.833	26857
814.974	26880
815.115	27074
815.256	26868
815.397	26937
815.539	26788
815.68	26716
815.821	26735
815.962	26815
816.103	26735
816.244	26648
816.385	26556
816.526	26492
816.666	26446
816.807	26252
816.948	26298
817.089	26278
817.23	26286
817.371	26195
817.512	26180
817.653	26225
817.793	26195
817.934	26259
818.075	26309
818.216	26400
818.356	26256
818.497	26142
818.638	26062
818.778	26134
818.919	26035
819.06	26016
819.2	26199
819.341	26218
819.481	26278
819.622	26396
819.762	26560
819.903	26537
820.043	26415
820.184	26393
820.324	26370
820.465	26415
820.605	26385
820.746	26301
820.886	26134
821.026	26389
821.167	26362
821.307	26377
821.447	26305
821.588	26138
821.728	25928
821.868	25944
822.008	25715
822.149	25674
822.289	25658
822.429	25441
822.569	25419
822.709	25403
822.849	25263
822.99	25187
823.13	25156
823.27	25183
823.41	25141
823.55	24810
823.69	25038
823.83	25164
823.97	24970
824.11	24890
824.25	24821
824.389	24741
824.529	25091
824.669	24878
824.809	24943
824.949	24859
825.089	24935
825.228	24829
825.368	24681
825.508	24669
825.648	24593
825.787	24795
825.927	24856
826.067	24719
826.206	24631
826.346	24772
826.485	24741
826.625	24700
826.765	24738
826.904	24593
827.044	24593
827.183	24456
827.323	24407
827.462	24528
827.601	24334
827.741	24361
827.88	24365
828.02	24403
828.159	24376
828.298	24505
828.437	24559
828.577	24270
828.716	24403
828.855	24403
828.994	24095
829.134	24068
829.273	24171
829.412	24038
829.551	24114
829.69	24038
829.829	24133
829.968	24220
830.107	24041
830.246	23996
830.385	24049
830.524	24053
830.663	23927
830.802	23954
830.941	23790
831.08	23596
831.219	23748
831.357	23840
831.496	23965
831.635	23687
831.774	23611
831.913	23581
832.051	23444
832.19	23524
832.329	23558
832.467	23383
832.606	23322
832.744	23463
832.883	23356
833.022	23433
833.16	23406
833.299	23478
833.437	23482
833.576	23554
833.714	23455
833.852	23493
833.991	23573
834.129	23604
834.267	23497
834.406	23524
834.544	23448
834.682	23459
834.821	23372
834.959	23627
835.097	23406
835.235	23524
835.373	23429
835.511	23414
835.65	23372
835.788	23322
835.926	23170
836.064	23128
836.202	23113
836.34	23322
836.478	23368
836.615	23235
836.753	23246
836.891	23269
837.029	23337
837.167	23189
837.305	23208
837.443	23204
837.58	23109
837.718	23208
837.856	23204
837.993	23052
838.131	23098
838.269	22980
838.406	23128
838.544	22934
838.681	22847
838.819	22679
838.956	22713
839.094	22596
839.231	22759
839.369	22805
839.506	23018
839.643	22786
839.781	22713
839.918	22660
840.055	22641
840.193	22649
840.33	22523
840.467	22554
840.604	22611
840.742	22771
840.879	22367
841.016	22561
841.153	22382
841.29	22588
841.427	22599
841.564	22508
841.701	22470
841.838	22500
841.975	22417
842.112	22466
842.249	22375
842.385	22318
842.522	22424
842.659	22447
842.796	22310
842.933	22333
843.069	22253
843.206	22276
843.343	22310
843.479	22284
843.616	22249
843.752	22067
843.889	22169
844.025	22318
844.162	22086
844.298	22181
844.435	22116
844.571	22013
844.708	22090
844.844	22242
844.98	22211
845.117	22059
845.253	22086
845.389	21930
845.525	21934
845.661	22006
845.798	21766
845.934	21876
846.07	21789
846.206	21739
846.342	22036
846.478	21827
846.614	21728
846.75	21629
846.886	21572
847.022	21671
847.158	21557
847.294	21530
847.429	21682
847.565	21458
847.701	21846
847.837	21287
847.972	21279
848.108	21275
848.244	21336
848.379	21222
848.515	21199
848.65	21150
848.786	21009
848.921	21104
849.057	21184
849.192	21184
849.328	21108
849.463	21176
849.598	21047
849.734	20998
849.869	20990
850.004	20883
850.14	20979
850.275	20994
850.41	20902
850.545	20861
850.68	20823
850.815	20933
850.95	20883
851.085	21108
851.22	21005
851.355	20876
851.49	20899
851.625	20861
851.76	20868
851.895	20754
852.03	20910
852.165	20838
852.299	20960
852.434	21013
852.569	20826
852.703	20845
852.838	20895
852.973	21032
853.107	21051
853.242	20899
853.376	20807
853.511	20545
853.645	20773
853.78	20895
853.914	20826
854.048	20602
854.183	20701
854.317	20724
854.451	20819
854.585	20777
854.72	20746
854.854	20762
854.988	20750
855.122	20762
855.256	20606
855.39	20712
855.524	20807
855.658	20746
855.792	20735
855.926	20815
856.06	20819
856.194	20857
856.327	20701
856.461	20644
856.595	20743
856.729	20621
856.862	20777
856.996	20708
857.13	20819
857.263	20849
857.397	20758
857.53	20674
857.664	20739
857.797	20815
857.931	20720
858.064	20777
858.197	20815
858.331	20686
858.464	20754
858.597	20617
858.731	20716
858.864	20659
858.997	20617
859.13	20724
859.263	20765
859.396	20777
859.529	20720
859.662	20674
859.795	20663
859.928	20720
860.061	20887
860.194	20876
860.327	20773
860.46	20739
860.592	20807
860.725	20849
860.858	20921
860.99	20758
861.123	20674
861.256	20632
861.388	20746
861.521	21507
861.653	20549
861.786	20571
861.918	20552
862.05	20651
862.183	20590
862.315	20667
862.447	20724
862.58	20735
862.712	20427
862.844	20381
862.976	20594
863.108	20514
863.24	21036
863.372	20454
863.504	20484
863.636	20396
863.768	20549
863.9	20393
864.032	20347
864.164	20415
864.296	20450
864.428	20568
864.559	20488
864.691	20499
864.823	20522
864.954	20412
865.086	20343
865.217	20404
865.349	20271
865.48	20347
865.612	20366
865.743	20469
865.875	20400
866.006	20256
866.137	20362
866.269	20320
866.4	20332
866.531	20221
866.662	20275
866.793	20218
866.924	20351
867.055	20427
867.186	20301
867.317	20206
867.448	20199
867.579	20259
867.71	20187
867.841	20214
867.972	20332
868.103	20332
868.233	20336
868.364	20309
868.495	20480
868.625	20412
868.756	20689
868.886	20495
869.017	20480
869.147	20552
869.278	20590
869.408	20552
869.539	20560
869.669	20488
869.799	20594
869.929	20640
870.06	20583
870.19	20792
870.32	20739
870.45	20834
870.58	20944
870.71	21146
870.84	20937
870.97	20921
871.1	20929
871.23	21146
871.36	21074
871.489	20952
871.619	21089
871.749	21024
871.879	21214
872.008	21138
872.138	21199
872.267	21150
872.397	21013
872.526	20921
872.656	21070
872.785	20948
872.915	21192
873.044	21195
873.173	21211
873.303	21157
873.432	21161
873.561	21279
873.69	21176
873.819	21154
873.948	21165
874.077	21032
874.206	21081
874.335	21169
874.464	21230
874.593	21275
874.722	21401
874.851	21344
874.979	21428
875.108	21428
875.237	21249
875.365	21203
875.494	21313
875.623	21389
875.751	21389
875.88	21519
876.008	21454
876.136	21591
876.265	21732
876.393	21838
876.521	21975
876.65	21823
876.778	21823
876.906	21736
877.034	21819
877.162	21648
877.29	21759
877.418	21770
877.546	21629
877.674	21724
877.802	21682
877.93	21755
878.058	21660
878.185	21622
878.313	21641
878.441	21724
878.568	21500
878.696	21679
878.824	21675
878.951	21778
879.079	21941
879.206	22044
879.333	21880
879.461	21686
879.588	21823
879.715	22036
879.842	22032
879.97	21831
880.097	21622
880.224	21511
880.351	21629
880.478	21610
880.605	21542
880.732	21553
880.859	21739
880.986	21420
881.112	21492
881.239	21348
881.366	21374
881.493	21157
881.619	21176
881.746	21066
881.872	21146
881.999	21070
882.125	21024
882.252	21214
882.378	21169
882.505	21233
882.631	21009
882.757	20929
882.883	20887
883.01	20834
883.136	20796
883.262	20823
883.388	20644
883.514	20967
883.64	20811
883.766	20720
883.892	20632
884.018	20621
884.143	20788
884.269	20724
884.395	20587
884.52	20587
884.646	20518
884.772	20514
884.897	20408
885.023	20511
885.148	20530
885.274	20594
885.399	20625
885.524	20560
885.65	20499
885.775	20602
885.9	20518
886.025	20488
886.15	20488
886.275	20473
886.4	20442
886.525	20381
886.65	20324
886.775	20305
886.9	20636
887.025	20629
887.149	20434
887.274	20210
887.399	20263
887.523	20187
887.648	20248
887.773	20119
887.897	20503
888.021	20305
888.146	20229
888.27	20225
888.395	20313
888.519	20218
888.643	20233
888.767	20256
888.891	20035
889.015	20115
889.139	20206
889.263	20096
889.387	20138
889.511	20248
889.635	20164
889.759	20153
889.883	20035
890.006	20043
890.13	20134
890.254	20043
890.377	19967
890.501	19757
890.624	19833
890.748	19818
890.871	19731
890.995	19704
891.118	19540
891.241	19704
891.364	19651
891.488	19734
891.611	19689
891.734	19788
891.857	19639
891.98	19628
892.103	19674
892.226	19613
892.349	19601
892.471	19422
892.594	19556
892.717	19605
892.839	19544
892.962	19575
893.085	19624
893.207	19495
893.33	19472
893.452	19533
893.575	19582
893.697	19445
893.819	19677
893.941	19750
894.064	19712
894.186	19464
894.308	19468
894.43	19628
894.552	19693
894.674	19677
894.796	19407
894.918	19628
895.04	19445
895.161	19616
895.283	19620
895.405	19552
895.526	19613
895.648	19441
895.769	19685
895.891	19506
896.012	19677
896.134	19666
896.255	19586
896.376	19514
896.498	19510
896.619	19605
896.74	19540
896.861	19578
896.982	19868
897.103	20001
897.224	19883
897.345	19750
897.466	19719
897.587	19830
897.708	19932
897.828	19696
897.949	19719
898.07	19647
898.19	19757
898.311	19776
898.431	19753
898.552	19830
898.672	19837
898.792	19780
898.913	19833
899.033	19658
899.153	19620
899.273	19419
899.393	19529
899.513	19616
899.633	19552
899.753	19616
899.873	19430
899.993	19578
900.113	19567
900.232	19563
900.352	19476
900.472	19388
900.591	19354
900.711	19343
900.83	19213
900.95	19384
901.069	19609
901.189	19202
901.308	18977
901.427	18886
901.546	18939
901.665	18909
901.784	18996
901.904	18920
902.023	18741
902.141	18479
902.26	18464
902.379	18646
902.498	18471
902.617	18452
902.735	18506
902.854	18410
902.973	18414
903.091	18186
903.21	18140
903.328	18220
903.446	18022
903.565	17904
903.683	17904
903.801	17851
903.919	17912
904.038	17984
904.156	17630
904.274	17737
904.392	17672
904.51	17676
904.627	17699
904.745	17794
904.863	17695
904.981	17505
905.098	17478
905.216	17303
905.334	17421
905.451	17440
905.569	17425
905.686	17421
905.803	17376
905.921	17147
906.038	17341
906.155	17197
906.272	17060
906.389	17067
906.506	16930
906.623	16965
906.74	16881
906.857	16862
906.974	16896
907.091	16942
907.208	17010
907.324	16984
907.441	16858
907.557	16717
907.674	16679
907.79	16641
907.907	16618
908.023	16645
908.139	16721
908.256	16554
908.372	16451
908.488	16561
908.604	16348
908.72	16356
908.836	16352
908.952	16318
909.068	16447
909.184	16447
909.3	16318
909.415	16329
909.531	16363
909.647	16158
909.762	16086
909.878	16002
909.993	16032
910.108	16013
910.224	16002
910.339	16051
910.454	15937
910.57	15926
910.685	15838
910.8	16093
910.915	16017
911.03	15937
911.145	15739
911.259	15660
911.374	15800
911.489	15557
911.604	15530
911.718	15336
911.833	15466
911.947	15351
912.062	15173
912.176	15420
912.291	15420
912.405	15382
912.519	15549
912.633	15576
912.748	15389
912.862	15378
912.976	15226
913.09	15222
913.204	15108
913.318	15283
913.431	15233
913.545	15325
913.659	15317
913.772	15157
913.886	15097
914	15028
914.113	15218
914.226	15138
914.34	15119
914.453	14986
914.566	15131
914.68	14883
914.793	14880
914.906	14777
915.019	14727
915.132	14655
915.245	14648
915.358	14632
915.47	14625
915.583	14629
915.696	14651
915.809	14811
915.921	14849
916.034	14556
916.146	14590
916.259	14587
916.371	14743
916.483	14632
916.595	14495
916.708	14488
916.82	14476
916.932	14495
917.044	14438
917.156	14507
917.268	14332
917.38	14400
917.491	14446
917.603	14374
917.715	14377
917.826	14377
917.938	14229
918.049	14172
918.161	14278
918.272	14431
918.384	14415
918.495	14282
918.606	14130
918.717	14050
918.828	14183
918.939	14024
919.05	13974
919.161	14084
919.272	13906
919.383	14016
919.494	14081
919.604	14244
919.715	14058
919.826	14005
919.936	14092
920.047	14123
920.157	14058
920.267	14278
920.378	14031
920.488	14046
920.598	14187
920.708	14336
920.818	14149
920.928	14218
921.038	14343
921.148	14351
921.258	14020
921.368	13978
921.477	13852
921.587	13734
921.697	13700
921.806	13799
921.916	13742
922.025	13632
922.134	13453
922.244	13502
922.353	13521
922.462	13362
922.571	13240
922.68	13110
922.789	13069
922.898	13129
923.007	13053
923.116	13069
923.224	13118
923.333	13088
923.442	12947
923.55	12977
923.659	12943
923.767	13012
923.876	12973
923.984	12962
924.092	12875
924.201	12852
924.309	12829
924.417	12916
924.525	12753
924.633	12798
924.741	13719
924.849	12585
924.956	12753
925.064	12650
925.172	12506
925.279	12513
925.387	12521
925.494	12570
925.602	12620
925.709	12601
925.816	12585
925.924	12544
926.031	12684
926.138	12506
926.245	12582
926.352	12429
926.459	12532
926.566	12635
926.673	12471
926.779	12395
926.886	12380
926.993	12136
927.099	12148
927.206	12121
927.312	12144
927.419	12216
927.525	12136
927.631	12186
927.737	11973
927.843	12019
927.95	11882
928.056	11996
928.162	11980
928.267	11984
928.373	12551
928.479	12030
928.585	11859
928.69	11954
928.796	11996
928.901	11729
929.007	11676
929.112	11824
929.218	11775
929.323	11802
929.428	11756
929.533	11878
929.638	11653
929.743	11668
929.848	11691
929.953	11623
930.058	11600
930.163	11467
930.267	11505
930.372	11509
930.477	11341
930.581	11627
930.685	11417
930.79	11318
930.894	11307
930.998	11216
931.103	11398
931.207	11033
931.311	10972
931.415	10885
931.519	10763
931.623	10683
