Data from test_V78500241_1906.txt Node
Date: Fri Mar 25 15:23:07 CST 2022
User: usil
Spectrometer: V785-0024
Trigger mode: 0
Integration Time (sec): 4.000000E-1
Scans to average: 1
Nonlinearity correction enabled: false
Boxcar width: 0
Storing dark spectrum: false
XAxis mode: Wavelengths
Number of Pixels in Spectrum: 1024
>>>>>Begin Spectral Data<<<<<
801.071	27325
801.214	27192
801.356	27043
801.499	26864
801.641	26804
801.783	26640
801.926	26804
802.068	26811
802.211	26754
802.353	26651
802.496	26590
802.638	26480
802.78	26317
802.923	26332
803.065	26267
803.208	26309
803.35	26442
803.492	26644
803.635	26648
803.777	26419
803.919	26518
804.061	27028
804.204	26651
804.346	26511
804.488	26522
804.63	26419
804.773	26446
804.915	26488
805.057	26606
805.199	26575
805.341	26552
805.483	26815
805.626	26765
805.768	26541
805.91	26617
806.052	26644
806.194	26571
806.336	26826
806.478	26636
806.62	26590
806.762	26781
806.904	26838
807.046	27203
807.188	27081
807.33	27268
807.472	27192
807.614	26883
807.756	26975
807.898	26963
808.04	26826
808.182	26853
808.324	27036
808.465	27028
808.607	27135
808.749	27256
808.891	27275
809.033	27302
809.174	27195
809.316	27222
809.458	27405
809.6	27165
809.741	27462
809.883	27363
810.025	27447
810.166	27488
810.308	27595
810.45	27424
810.591	27481
810.733	27222
810.875	27074
811.016	27165
811.158	27150
811.299	27386
811.441	27401
811.582	27351
811.724	27313
811.865	27203
812.007	27104
812.148	27313
812.29	27264
812.431	27431
812.573	27618
812.714	27663
812.855	27854
812.997	27785
813.138	27991
813.279	27888
813.421	27762
813.562	27831
813.703	27580
813.845	27500
813.986	27119
814.127	27013
814.268	26906
814.41	26876
814.551	26864
814.692	27032
814.833	26815
814.974	26864
815.115	26937
815.256	26853
815.397	26746
815.539	26762
815.68	26708
815.821	26606
815.962	26606
816.103	26712
816.244	26625
816.385	26587
816.526	26294
816.666	26404
816.807	26138
816.948	26294
817.089	26332
817.23	26294
817.371	26164
817.512	26161
817.653	26271
817.793	26020
817.934	26157
818.075	26187
818.216	26206
818.356	26115
818.497	26126
818.638	26005
818.778	25909
818.919	26024
819.06	25966
819.2	26081
819.341	26122
819.481	26126
819.622	26301
819.762	26545
819.903	26438
820.043	26446
820.184	26191
820.324	26317
820.465	26393
820.605	26237
820.746	26237
820.886	26199
821.026	26187
821.167	26419
821.307	26248
821.447	26244
821.588	26092
821.728	26065
821.868	25822
822.008	25616
822.149	25597
822.289	25502
822.429	25415
822.569	25369
822.709	25335
822.849	25206
822.99	25190
823.13	25206
823.27	25118
823.41	24920
823.55	24890
823.69	25072
823.83	24913
823.97	24856
824.11	24894
824.25	24806
824.389	24848
824.529	24852
824.669	24795
824.809	24970
824.949	24886
825.089	24947
825.228	24958
825.368	24806
825.508	24681
825.648	24677
825.787	24806
825.927	24791
826.067	24646
826.206	24734
826.346	24776
826.485	24620
826.625	24661
826.765	24837
826.904	24734
827.044	24452
827.183	24528
827.323	24346
827.462	24319
827.601	24289
827.741	24391
827.88	24372
828.02	24270
828.159	24372
828.298	24376
828.437	24369
828.577	24296
828.716	24448
828.855	24323
828.994	24159
829.134	24106
829.273	24133
829.412	24133
829.551	24057
829.69	23980
829.829	24117
829.968	24079
830.107	24197
830.246	24136
830.385	24018
830.524	23961
830.663	23912
830.802	23790
830.941	23703
831.08	23630
831.219	23741
831.357	23783
831.496	24007
831.635	23691
831.774	23547
831.913	23554
832.051	23455
832.19	23478
832.329	23600
832.467	23482
832.606	23398
832.744	23345
832.883	23448
833.022	23337
833.16	23334
833.299	23493
833.437	23433
833.576	23505
833.714	23474
833.852	23543
833.991	23566
834.129	23528
834.267	23520
834.406	23512
834.544	23535
834.682	23505
834.821	23398
834.959	23703
835.097	23391
835.235	23554
835.373	23493
835.511	23433
835.65	23223
835.788	23337
835.926	23212
836.064	23079
836.202	23140
836.34	23303
836.478	23429
836.615	23273
836.753	23254
836.891	23402
837.029	23307
837.167	23296
837.305	23223
837.443	23246
837.58	23048
837.718	23193
837.856	23143
837.993	23060
838.131	23014
838.269	23064
838.406	23067
838.544	23048
838.681	22904
838.819	22778
838.956	22683
839.094	22626
839.231	22797
839.369	22812
839.506	22991
839.643	23010
839.781	22694
839.918	22599
840.055	22691
840.193	22634
840.33	22668
840.467	22637
840.604	22596
840.742	22869
840.879	22470
841.016	22519
841.153	22535
841.29	22702
841.427	22569
841.564	22554
841.701	22493
841.838	22538
841.975	22485
842.112	22519
842.249	22474
842.385	22375
842.522	22538
842.659	22356
842.796	22268
842.933	22287
843.069	22318
843.206	22249
843.343	22428
843.479	22394
843.616	22223
843.752	22101
843.889	22188
844.025	22196
844.162	22101
844.298	22162
844.435	22082
844.571	21991
844.708	22109
844.844	22333
844.98	22185
845.117	22249
845.253	22082
845.389	21918
845.525	22067
845.661	22006
845.798	21793
845.934	21941
846.07	21770
846.206	21869
846.342	21972
846.478	21850
846.614	21526
846.75	21576
846.886	21572
847.022	21641
847.158	21454
847.294	21686
847.429	21599
847.565	21576
847.701	21793
847.837	21272
847.972	21279
848.108	21374
848.244	21386
848.379	21169
848.515	21138
848.65	21047
848.786	21108
848.921	21237
849.057	21287
849.192	21237
849.328	21188
849.463	21165
849.598	21108
849.734	21039
849.869	21089
850.004	20986
850.14	20918
850.275	20883
850.41	20925
850.545	20921
850.68	20853
850.815	20921
850.95	20857
851.085	21112
851.22	21032
851.355	20975
851.49	20902
851.625	20861
851.76	20891
851.895	20781
852.03	20811
852.165	20933
852.299	20971
852.434	20929
852.569	21062
852.703	20902
852.838	20963
852.973	21104
853.107	21112
853.242	20842
853.376	20754
853.511	20735
853.645	20693
853.78	20952
853.914	20670
854.048	20670
854.183	20773
854.317	20868
854.451	20838
854.585	20731
854.72	20743
854.854	20735
854.988	20701
855.122	20792
855.256	20579
855.39	20769
855.524	20868
855.658	20853
855.792	20750
855.926	20849
856.06	20762
856.194	20902
856.327	20823
856.461	20617
856.595	20609
856.729	20762
856.862	20857
856.996	20849
857.13	20906
857.263	20868
857.397	20960
857.53	20765
857.664	20777
857.797	20849
857.931	20819
858.064	20754
858.197	20952
858.331	20800
858.464	20674
858.597	20602
858.731	20853
858.864	20617
858.997	20781
859.13	20773
859.263	20796
859.396	20834
859.529	20701
859.662	20659
859.795	20724
859.928	20644
860.061	20788
860.194	20876
860.327	20804
860.46	20765
860.592	20921
860.725	20944
860.858	20925
860.99	20754
861.123	20724
861.256	20735
861.388	20724
861.521	21389
861.653	20552
861.786	20480
861.918	20549
862.05	20575
862.183	20651
862.315	20750
862.447	20746
862.58	20602
862.712	20473
862.844	20476
862.976	20549
863.108	20404
863.24	20861
863.372	20450
863.504	20503
863.636	20438
863.768	20400
863.9	20415
864.032	20305
864.164	20442
864.296	20446
864.428	20598
864.559	20503
864.691	20507
864.823	20484
864.954	20343
865.086	20503
865.217	20446
865.349	20290
865.48	20427
865.612	20419
865.743	20564
865.875	20370
866.006	20320
866.137	20271
866.269	20298
866.4	20313
866.531	20320
866.662	20278
866.793	20240
866.924	20324
867.055	20267
867.186	20248
867.317	20313
867.448	20202
867.579	20286
867.71	20221
867.841	20138
867.972	20252
868.103	20282
868.233	20313
868.364	20301
868.495	20434
868.625	20492
868.756	20674
868.886	20294
869.017	20556
869.147	20617
869.278	20579
869.408	20522
869.539	20541
869.669	20613
869.799	20590
869.929	20708
870.06	20663
870.19	20781
870.32	20792
870.45	20800
870.58	20937
870.71	21017
870.84	20967
870.97	20937
871.1	20975
871.23	21135
871.36	21005
871.489	21146
871.619	21020
871.749	21169
871.879	21207
872.008	21180
872.138	21074
872.267	21154
872.397	20937
872.526	21001
872.656	21005
872.785	21096
872.915	21203
873.044	21310
873.173	21119
873.303	21233
873.432	21291
873.561	21374
873.69	21268
873.819	21135
873.948	21249
874.077	21176
874.206	21135
874.335	21104
874.464	21252
874.593	21332
874.722	21408
874.851	21435
874.979	21374
875.108	21424
875.237	21363
875.365	21249
875.494	21382
875.623	21412
875.751	21287
875.88	21454
876.008	21500
876.136	21618
876.265	21797
876.393	21884
876.521	21873
876.65	21876
876.778	21766
876.906	21671
877.034	21728
877.162	21808
877.29	21564
877.418	21709
877.546	21720
877.674	21766
877.802	21846
877.93	21717
878.058	21804
878.185	21629
878.313	21804
878.441	21610
878.568	21583
878.696	21641
878.824	21671
878.951	21884
879.079	21922
879.206	22010
879.333	21983
879.461	21705
879.588	21956
879.715	21880
879.842	21934
879.97	21709
880.097	21660
880.224	21488
880.351	21553
880.478	21549
880.605	21488
880.732	21515
880.859	21819
880.986	21648
881.112	21515
881.239	21389
881.366	21336
881.493	21272
881.619	21093
881.746	21184
881.872	21146
881.999	21112
882.125	21112
882.252	21119
882.378	21127
882.505	21272
882.631	20937
882.757	20868
882.883	20891
883.01	20937
883.136	20864
883.262	20731
883.388	20636
883.514	20861
883.64	20887
883.766	20792
883.892	20606
884.018	20632
884.143	20838
884.269	20872
884.395	20511
884.52	20514
884.646	20571
884.772	20434
884.897	20492
885.023	20594
885.148	20663
885.274	20693
885.399	20545
885.524	20545
885.65	20473
885.775	20560
885.9	20545
886.025	20575
886.15	20503
886.275	20370
886.4	20518
886.525	20507
886.65	20408
886.775	20381
886.9	20648
887.025	20701
887.149	20393
887.274	20339
887.399	20176
887.523	20286
887.648	20187
887.773	20225
887.897	20328
888.021	20370
888.146	20256
888.27	20389
888.395	20522
888.519	20256
888.643	20263
888.767	20370
888.891	20092
889.015	20153
889.139	20199
889.263	20058
889.387	20111
889.511	20210
889.635	20240
889.759	20065
889.883	20138
890.006	20096
890.13	20214
890.254	19909
890.377	20005
890.501	19803
890.624	19856
890.748	19811
890.871	19833
890.995	19681
891.118	19635
891.241	19681
891.364	19597
891.488	19750
891.611	19651
891.734	19609
891.857	19651
891.98	19674
892.103	19616
892.226	19750
892.349	19647
892.471	19422
892.594	19556
892.717	19632
892.839	19510
892.962	19651
893.085	19544
893.207	19499
893.33	19434
893.452	19445
893.575	19655
893.697	19529
893.819	19719
893.941	19738
894.064	19719
894.186	19400
894.308	19392
894.43	19575
894.552	19715
894.674	19712
894.796	19495
894.918	19533
895.04	19647
895.161	19662
895.283	19586
895.405	19502
895.526	19529
895.648	19533
895.769	19597
895.891	19521
896.012	19662
896.134	19655
896.255	19601
896.376	19529
896.498	19582
896.619	19624
896.74	19616
896.861	19643
896.982	20058
897.103	20183
897.224	19944
897.345	19803
897.466	19772
897.587	19791
897.708	19951
897.828	19887
897.949	19712
898.07	19715
898.19	19719
898.311	19784
898.431	19750
898.552	19753
898.672	19830
898.792	19864
898.913	19879
899.033	19704
899.153	19632
899.273	19590
899.393	19540
899.513	19594
899.633	19525
899.753	19518
899.873	19487
899.993	19575
900.113	19578
900.232	19567
900.352	19525
900.472	19335
900.591	19396
900.711	19457
900.83	19225
900.95	19537
901.069	19491
901.189	19274
901.308	19012
901.427	19038
901.546	18981
901.665	18939
901.784	18871
901.904	18783
902.023	18700
902.141	18490
902.26	18502
902.379	18540
902.498	18426
902.617	18384
902.735	18498
902.854	18467
902.973	18445
903.091	18224
903.21	18159
903.328	18110
903.446	17999
903.565	17893
903.683	17961
903.801	17680
903.919	17859
904.038	17904
904.156	17718
904.274	17809
904.392	17623
904.51	17710
904.627	17687
904.745	17687
904.863	17695
904.981	17535
905.098	17349
905.216	17417
905.334	17467
905.451	17288
905.569	17417
905.686	17356
905.803	17364
905.921	17166
906.038	17250
906.155	17170
906.272	17094
906.389	17143
906.506	16995
906.623	16953
906.74	16843
906.857	16816
906.974	16839
907.091	16889
907.208	17060
907.324	16957
907.441	16778
907.557	16607
907.674	16561
907.79	16626
907.907	16702
908.023	16736
908.139	16710
908.256	16702
908.372	16508
908.488	16428
908.604	16443
908.72	16405
908.836	16409
908.952	16363
909.068	16459
909.184	16440
909.3	16432
909.415	16314
909.531	16261
909.647	16017
909.762	16158
909.878	16048
909.993	15987
910.108	16078
910.224	16044
910.339	16078
910.454	15895
910.57	15975
910.685	15785
910.8	16097
910.915	16013
911.03	15918
911.145	15667
911.259	15766
911.374	15701
911.489	15629
911.604	15545
911.718	15367
911.833	15428
911.947	15431
912.062	15207
912.176	15310
912.291	15382
912.405	15340
912.519	15625
912.633	15633
912.748	15454
912.862	15408
912.976	15252
913.09	15230
913.204	15218
913.318	15275
913.431	15374
913.545	15340
913.659	15447
913.772	15214
913.886	15062
914	15005
914.113	15116
914.226	15279
914.34	15199
914.453	14899
914.566	15089
914.68	14921
914.793	14914
914.906	14731
915.019	14621
915.132	14674
915.245	14762
915.358	14670
915.47	14686
915.583	14727
915.696	14716
915.809	14876
915.921	14750
916.034	14625
916.146	14499
916.259	14575
916.371	14648
916.483	14602
916.595	14423
916.708	14549
916.82	14560
916.932	14446
917.044	14526
917.156	14492
917.268	14332
917.38	14343
917.491	14256
917.603	14328
917.715	14400
917.826	14415
917.938	14290
918.049	14221
918.161	14286
918.272	14492
918.384	14385
918.495	14324
918.606	14138
918.717	14107
918.828	14149
918.939	14145
919.05	14054
919.161	14088
919.272	13902
919.383	13951
919.494	14187
919.604	14370
919.715	14210
919.826	14092
919.936	14092
920.047	14077
920.157	14073
920.267	14301
920.378	14073
920.488	13967
920.598	14180
920.708	14358
920.818	14214
920.928	14210
921.038	14450
921.148	14271
921.258	14001
921.368	13947
921.477	13818
921.587	13898
921.697	13734
921.806	13818
921.916	13647
922.025	13518
922.134	13487
922.244	13354
922.353	13426
922.462	13434
922.571	13396
922.68	13194
922.789	13126
922.898	13190
923.007	13107
923.116	13168
923.224	13137
923.333	13122
923.442	12989
923.55	12989
923.659	13004
923.767	12977
923.876	12897
923.984	12973
924.092	12951
924.201	12916
924.309	12924
924.417	12924
924.525	12768
924.633	12837
924.741	13746
924.849	12623
924.956	12681
925.064	12585
925.172	12563
925.279	12517
925.387	12525
925.494	12509
925.602	12745
925.709	12620
925.816	12429
925.924	12578
926.031	12536
926.138	12467
926.245	12574
926.352	12429
926.459	12601
926.566	12582
926.673	12498
926.779	12460
926.886	12399
926.993	12235
927.099	12110
927.206	12114
927.312	12144
927.419	12197
927.525	12091
927.631	12133
927.737	12087
927.843	11977
927.95	11863
928.056	12026
928.162	11980
928.267	11946
928.373	12498
928.479	12011
928.585	11802
928.69	11942
928.796	12022
928.901	11817
929.007	11649
929.112	11843
929.218	11843
929.323	11726
929.428	11668
929.533	11802
929.638	11691
929.743	11600
929.848	11638
929.953	11562
930.058	11627
930.163	11395
930.267	11444
930.372	11585
930.477	11425
930.581	11596
930.685	11497
930.79	11296
930.894	11311
930.998	11353
931.103	11410
931.207	11064
931.311	10961
931.415	10854
931.519	10725
931.623	10634
