Data from test_V78500241_1932.txt Node
Date: Fri Mar 25 15:23:18 CST 2022
User: usil
Spectrometer: V785-0024
Trigger mode: 0
Integration Time (sec): 4.000000E-1
Scans to average: 1
Nonlinearity correction enabled: false
Boxcar width: 0
Storing dark spectrum: false
XAxis mode: Wavelengths
Number of Pixels in Spectrum: 1024
>>>>>Begin Spectral Data<<<<<
801.071	27667
801.214	27641
801.356	27355
801.499	27272
801.641	27272
801.783	27142
801.926	27386
802.068	27230
802.211	27260
802.353	27074
802.496	26933
802.638	27001
802.78	26823
802.923	26765
803.065	26861
803.208	26785
803.35	26724
803.492	27150
803.635	27058
803.777	27001
803.919	27028
804.061	27427
804.204	27199
804.346	27005
804.488	27104
804.63	26956
804.773	26902
804.915	27142
805.057	27176
805.199	26956
805.341	27047
805.483	27123
805.626	27237
805.768	26975
805.91	27089
806.052	27214
806.194	27176
806.336	27408
806.478	27211
806.62	27214
806.762	27230
806.904	27329
807.046	27603
807.188	27637
807.33	27701
807.472	27724
807.614	27545
807.756	27633
807.898	27370
808.04	27370
808.182	27481
808.324	27526
808.465	27534
808.607	27698
808.749	27781
808.891	27888
809.033	27827
809.174	27968
809.316	27854
809.458	27743
809.6	27804
809.741	27926
809.883	28105
810.025	28097
810.166	28101
810.308	27983
810.45	28006
810.591	27926
810.733	27762
810.875	27812
811.016	27774
811.158	27652
811.299	27850
811.441	27926
811.582	27831
811.724	27808
811.865	27667
812.007	27979
812.148	27732
812.29	27850
812.431	27819
812.573	28215
812.714	28124
812.855	28276
812.997	28367
813.138	28421
813.279	28565
813.421	28333
813.562	28306
813.703	28131
813.845	28044
813.986	27732
814.127	27690
814.268	27458
814.41	27466
814.551	27500
814.692	27492
814.833	27538
814.974	27500
815.115	27511
815.256	27363
815.397	27405
815.539	27393
815.68	27104
815.821	27249
815.962	27279
816.103	27272
816.244	27146
816.385	27089
816.526	27150
816.666	26921
816.807	26785
816.948	26826
817.089	26925
817.23	26842
817.371	26598
817.512	26781
817.653	26693
817.793	26712
817.934	26739
818.075	26686
818.216	26708
818.356	26682
818.497	26731
818.638	26438
818.778	26461
818.919	26568
819.06	26655
819.2	26724
819.341	26811
819.481	26834
819.622	26773
819.762	27024
819.903	27077
820.043	26880
820.184	26975
820.324	26826
820.465	26838
820.605	26887
820.746	26705
820.886	26625
821.026	26826
821.167	26838
821.307	26876
821.447	26762
821.588	26598
821.728	26644
821.868	26324
822.008	26370
822.149	26248
822.289	26187
822.429	26180
822.569	25902
822.709	25849
822.849	25666
822.99	25723
823.13	25628
823.27	25784
823.41	25632
823.55	25472
823.69	25616
823.83	25514
823.97	25487
824.11	25331
824.25	25430
824.389	25308
824.529	25422
824.669	25381
824.809	25479
824.949	25483
825.089	25529
825.228	25324
825.368	25244
825.508	25301
825.648	25160
825.787	25316
825.927	25324
826.067	25183
826.206	25213
826.346	25282
826.485	25304
826.625	25152
826.765	25331
826.904	25308
827.044	25091
827.183	25088
827.323	25038
827.462	24939
827.601	24954
827.741	24970
827.88	24989
828.02	24852
828.159	24985
828.298	24859
828.437	25019
828.577	25000
828.716	25076
828.855	24837
828.994	24650
829.134	24692
829.273	24734
829.412	24635
829.551	24681
829.69	24692
829.829	24722
829.968	24753
830.107	24798
830.246	24726
830.385	24544
830.524	24604
830.663	24517
830.802	24296
830.941	24220
831.08	24353
831.219	24471
831.357	24407
831.496	24502
831.635	24391
831.774	24266
831.913	24163
832.051	24171
832.19	24095
832.329	24091
832.467	24045
832.606	23954
832.744	23942
832.883	23999
833.022	23912
833.16	23942
833.299	23996
833.437	24034
833.576	24041
833.714	24038
833.852	24136
833.991	24053
834.129	24098
834.267	24209
834.406	24148
834.544	24163
834.682	24057
834.821	24095
834.959	24281
835.097	24144
835.235	24068
835.373	24129
835.511	24064
835.65	23977
835.788	23901
835.926	23836
836.064	23653
836.202	23786
836.34	23912
836.478	24038
836.615	23901
836.753	23893
836.891	24060
837.029	23828
837.167	23912
837.305	23783
837.443	23726
837.58	23794
837.718	23775
837.856	23821
837.993	23611
838.131	23790
838.269	23592
838.406	23672
838.544	23570
838.681	23417
838.819	23452
838.956	23265
839.094	23216
839.231	23212
839.369	23353
839.506	23623
839.643	23581
839.781	23311
839.918	23200
840.055	23239
840.193	23181
840.33	23052
840.467	23151
840.604	23216
840.742	23273
840.879	23071
841.016	23098
841.153	23025
841.29	23349
841.427	23212
841.564	23136
841.701	23109
841.838	23128
841.975	23094
842.112	23037
842.249	22911
842.385	22752
842.522	23006
842.659	23003
842.796	22869
842.933	22968
843.069	22927
843.206	22774
843.343	22812
843.479	22812
843.616	22835
843.752	22702
843.889	22626
844.025	22858
844.162	22615
844.298	22660
844.435	22729
844.571	22504
844.708	22736
844.844	22790
844.98	22816
845.117	22694
845.253	22474
845.389	22504
845.525	22675
845.661	22421
845.798	22352
845.934	22497
846.07	22280
846.206	22462
846.342	22451
846.478	22207
846.614	22230
846.75	22013
846.886	22181
847.022	22242
847.158	22314
847.294	22188
847.429	22188
847.565	22147
847.701	22333
847.837	21964
847.972	21842
848.108	22017
848.244	21934
848.379	21823
848.515	21671
848.65	21660
848.786	21755
848.921	21728
849.057	21709
849.192	21823
849.328	21709
849.463	21679
849.598	21667
849.734	21545
849.869	21496
850.004	21583
850.14	21473
850.275	21519
850.41	21443
850.545	21462
850.68	21424
850.815	21534
850.95	21488
851.085	21701
851.22	21614
851.355	21473
851.49	21515
851.625	21469
851.76	21576
851.895	21382
852.03	21473
852.165	21424
852.299	21431
852.434	21534
852.569	21519
852.703	21481
852.838	21492
852.973	21595
853.107	21660
853.242	21530
853.376	21321
853.511	21207
853.645	21332
853.78	21412
853.914	21374
854.048	21203
854.183	21374
854.317	21355
854.451	21408
854.585	21192
854.72	21260
854.854	21237
854.988	21260
855.122	21344
855.256	21173
855.39	21321
855.524	21462
855.658	21355
855.792	21351
855.926	21359
856.06	21298
856.194	21420
856.327	21226
856.461	21161
856.595	21222
856.729	21287
856.862	21386
856.996	21405
857.13	21298
857.263	21348
857.397	21363
857.53	21260
857.664	21344
857.797	21283
857.931	21386
858.064	21401
858.197	21412
858.331	21363
858.464	21199
858.597	21241
858.731	21230
858.864	21207
858.997	21344
859.13	21291
859.263	21389
859.396	21355
859.529	21310
859.662	21241
859.795	21252
859.928	21321
860.061	21561
860.194	21431
860.327	21374
860.46	21325
860.592	21329
860.725	21408
860.858	21367
860.99	21378
861.123	21287
861.256	21104
861.388	21275
861.521	21888
861.653	21131
861.786	21020
861.918	21135
862.05	21176
862.183	21298
862.315	21195
862.447	21241
862.58	21313
862.712	21043
862.844	21024
862.976	21142
863.108	21020
863.24	21561
863.372	20948
863.504	21081
863.636	21036
863.768	21192
863.9	21005
864.032	20910
864.164	20990
864.296	21009
864.428	21173
864.559	21032
864.691	21100
864.823	20994
864.954	21039
865.086	21047
865.217	20830
865.349	20910
865.48	20941
865.612	20960
865.743	21062
865.875	20918
866.006	20807
866.137	20918
866.269	20880
866.4	20880
866.531	20887
866.662	20701
866.793	20876
866.924	20819
867.055	20914
867.186	20944
867.317	20826
867.448	20804
867.579	20758
867.71	20716
867.841	20834
867.972	20887
868.103	20842
868.233	20952
868.364	20823
868.495	20979
868.625	21020
868.756	21241
868.886	21036
869.017	21062
869.147	21195
869.278	21176
869.408	21127
869.539	21116
869.669	21077
869.799	21150
869.929	21165
870.06	21173
870.19	21386
870.32	21408
870.45	21389
870.58	21416
870.71	21538
870.84	21644
870.97	21545
871.1	21443
871.23	21523
871.36	21781
871.489	21656
871.619	21694
871.749	21679
871.879	21739
872.008	21812
872.138	21682
872.267	21660
872.397	21511
872.526	21477
872.656	21420
872.785	21473
872.915	21663
873.044	21789
873.173	21743
873.303	21682
873.432	21679
873.561	21800
873.69	21835
873.819	21797
873.948	21743
874.077	21778
874.206	21679
874.335	21739
874.464	21766
874.593	21998
874.722	21743
874.851	21876
874.979	21934
875.108	21937
875.237	21911
875.365	21800
875.494	21911
875.623	21991
875.751	21895
875.88	22048
876.008	22070
876.136	22112
876.265	22413
876.393	22470
876.521	22421
876.65	22356
876.778	22226
876.906	22291
877.034	22272
877.162	22367
877.29	22204
877.418	22268
877.546	22226
877.674	22291
877.802	22348
877.93	22360
878.058	22284
878.185	22090
878.313	22120
878.441	22272
878.568	22131
878.696	22219
878.824	22268
878.951	22413
879.079	22432
879.206	22542
879.333	22424
879.461	22261
879.588	22352
879.715	22371
879.842	22668
879.97	22280
880.097	22234
880.224	22032
880.351	22109
880.478	22105
880.605	22002
880.732	22093
880.859	22390
880.986	22177
881.112	22105
881.239	22059
881.366	21808
881.493	21778
881.619	21728
881.746	21652
881.872	21534
881.999	21587
882.125	21572
882.252	21709
882.378	21561
882.505	21804
882.631	21545
882.757	21389
882.883	21393
883.01	21355
883.136	21367
883.262	21195
883.388	21272
883.514	21386
883.64	21317
883.766	21249
883.892	21108
884.018	21161
884.143	21184
884.269	21462
884.395	21123
884.52	20868
884.646	20948
884.772	20944
884.897	20937
885.023	20998
885.148	21112
885.274	21100
885.399	21169
885.524	20925
885.65	21024
885.775	20990
885.9	20956
886.025	21150
886.15	21047
886.275	20975
886.4	20986
886.525	20971
886.65	20933
886.775	20933
886.9	21180
887.025	21260
887.149	20902
887.274	20842
887.399	20739
887.523	20697
887.648	20792
887.773	20670
887.897	20834
888.021	20807
888.146	20724
888.27	20880
888.395	20910
888.519	20727
888.643	20834
888.767	20796
888.891	20708
889.015	20651
889.139	20625
889.263	20526
889.387	20724
889.511	20876
889.635	20705
889.759	20609
889.883	20552
890.006	20590
890.13	20735
890.254	20537
890.377	20381
890.501	20396
890.624	20180
890.748	20415
890.871	20320
890.995	20138
891.118	20130
891.241	20100
891.364	20161
891.488	20225
891.611	20172
891.734	20126
891.857	20119
891.98	20103
892.103	20180
892.226	20282
892.349	20069
892.471	20008
892.594	19932
892.717	20111
892.839	19963
892.962	19997
893.085	20233
893.207	20035
893.33	19906
893.452	19963
893.575	20225
893.697	20054
893.819	20256
893.941	20229
894.064	20252
894.186	20001
894.308	20008
894.43	20153
894.552	20244
894.674	20142
894.796	19978
894.918	20065
895.04	19944
895.161	20107
895.283	20096
895.405	19898
895.526	19986
895.648	20077
895.769	20077
895.891	20176
896.012	20176
896.134	20058
896.255	20043
896.376	19959
896.498	20088
896.619	20130
896.74	20088
896.861	20092
896.982	20370
897.103	20476
897.224	20351
897.345	20161
897.466	20206
897.587	20263
897.708	20339
897.828	20286
897.949	20214
898.07	20134
898.19	20161
898.311	20339
898.431	20206
898.552	20103
898.672	20404
898.792	20351
898.913	20221
899.033	20103
899.153	19997
899.273	20031
899.393	19989
899.513	20081
899.633	19963
899.753	20062
899.873	19940
899.993	20024
900.113	19951
900.232	19967
900.352	19944
900.472	19925
900.591	19662
900.711	19769
900.83	19628
900.95	19902
901.069	19864
901.189	19681
901.308	19518
901.427	19343
901.546	19457
901.665	19506
901.784	19293
901.904	19339
902.023	19099
902.141	18966
902.26	18947
902.379	18996
902.498	18890
902.617	18901
902.735	18863
902.854	18821
902.973	18909
903.091	18578
903.21	18490
903.328	18627
903.446	18517
903.565	18422
903.683	18532
903.801	18285
903.919	18289
904.038	18403
904.156	18125
904.274	18258
904.392	18133
904.51	18083
904.627	18102
904.745	18125
904.863	18117
904.981	17916
905.098	17748
905.216	17889
905.334	17836
905.451	17821
905.569	17866
905.686	17737
905.803	17714
905.921	17699
906.038	17794
906.155	17695
906.272	17573
906.389	17524
906.506	17474
906.623	17478
906.74	17372
906.857	17227
906.974	17246
907.091	17459
907.208	17410
907.324	17436
907.441	17216
907.557	17143
907.674	17075
907.79	17079
907.907	17045
908.023	17174
908.139	17014
908.256	16946
908.372	17067
908.488	17018
908.604	16847
908.72	16828
908.836	16877
908.952	16790
909.068	16942
909.184	16923
909.3	16748
909.415	16869
909.531	16831
909.647	16634
909.762	16489
909.878	16478
909.993	16542
910.108	16561
910.224	16519
910.339	16455
910.454	16432
910.57	16333
910.685	16223
910.8	16512
910.915	16466
911.03	16287
911.145	16177
911.259	16082
911.374	16082
911.489	16101
911.604	15968
911.718	15903
911.833	15854
911.947	15789
912.062	15652
912.176	15804
912.291	15956
912.405	15823
912.519	15998
912.633	16074
912.748	15926
912.862	15812
912.976	15663
913.09	15549
913.204	15675
913.318	15724
913.431	15739
913.545	15762
913.659	15793
913.772	15671
913.886	15523
914	15431
914.113	15507
914.226	15591
914.34	15572
914.453	15382
914.566	15504
914.68	15302
914.793	15405
914.906	15146
915.019	15127
915.132	15081
915.245	15123
915.358	15169
915.47	15093
915.583	15001
915.696	15150
915.809	15211
915.921	15154
916.034	15039
916.146	15009
916.259	14937
916.371	15039
916.483	14975
916.595	14887
916.708	14910
916.82	15005
916.932	14842
917.044	14807
917.156	14762
917.268	14788
917.38	14792
917.491	14705
917.603	14686
917.715	14788
917.826	14864
917.938	14678
918.049	14625
918.161	14640
918.272	14864
918.384	14792
918.495	14667
918.606	14587
918.717	14499
918.828	14499
918.939	14495
919.05	14400
919.161	14476
919.272	14313
919.383	14389
919.494	14473
919.604	14701
919.715	14419
919.826	14374
919.936	14492
920.047	14499
920.157	14541
920.267	14571
920.378	14480
920.488	14438
920.598	14655
920.708	14788
920.818	14663
920.928	14606
921.038	14838
921.148	14667
921.258	14271
921.368	14370
921.477	14183
921.587	14164
921.697	14050
921.806	14187
921.916	14069
922.025	13951
922.134	13826
922.244	13776
922.353	13780
922.462	13632
922.571	13727
922.68	13514
922.789	13472
922.898	13487
923.007	13358
923.116	13483
923.224	13392
923.333	13480
923.442	13312
923.55	13308
923.659	13362
923.767	13365
923.876	13240
923.984	13259
924.092	13202
924.201	13282
924.309	13259
924.417	13289
924.525	13107
924.633	13107
924.741	14157
924.849	13012
924.956	13076
925.064	12935
925.172	12905
925.279	12875
925.387	13012
925.494	12875
925.602	13099
925.709	12890
925.816	12837
925.924	12897
926.031	12989
926.138	12878
926.245	12894
926.352	12726
926.459	12920
926.566	12856
926.673	12741
926.779	12536
926.886	12669
926.993	12445
927.099	12502
927.206	12418
927.312	12376
927.419	12509
927.525	12391
927.631	12521
927.737	12330
927.843	12353
927.95	12232
928.056	12209
928.162	12376
928.267	12350
928.373	12821
928.479	12410
928.585	12110
928.69	12235
928.796	12247
928.901	12186
929.007	12053
929.112	12129
929.218	12110
929.323	12060
929.428	12114
929.533	12171
929.638	11923
929.743	12106
929.848	11965
929.953	11908
930.058	11904
930.163	11790
930.267	11657
930.372	11855
930.477	11676
930.581	11878
930.685	11802
930.79	11570
930.894	11634
930.998	11627
931.103	11718
931.207	11345
931.311	11261
931.415	11212
931.519	11003
931.623	10980
