Data from test_V78500241_223.txt Node
Date: Fri Mar 25 15:11:24 CST 2022
User: usil
Spectrometer: V785-0024
Trigger mode: 0
Integration Time (sec): 4.000000E-1
Scans to average: 1
Nonlinearity correction enabled: false
Boxcar width: 0
Storing dark spectrum: false
XAxis mode: Wavelengths
Number of Pixels in Spectrum: 1024
>>>>>Begin Spectral Data<<<<<
801.071	27842
801.214	27652
801.356	27458
801.499	27340
801.641	27332
801.783	27344
801.926	27325
802.068	27131
802.211	27138
802.353	27180
802.496	26960
802.638	26990
802.78	26891
802.923	26815
803.065	26853
803.208	26876
803.35	26906
803.492	27009
803.635	27028
803.777	26914
803.919	27184
804.061	27279
804.204	26998
804.346	26773
804.488	26853
804.63	26800
804.773	26804
804.915	26914
805.057	26990
805.199	26853
805.341	27032
805.483	27062
805.626	27062
805.768	26994
805.91	27036
806.052	27055
806.194	26910
806.336	27161
806.478	27070
806.62	26998
806.762	27195
806.904	27218
807.046	27447
807.188	27374
807.33	27389
807.472	27545
807.614	27340
807.756	27313
807.898	27279
808.04	27321
808.182	27188
808.324	27264
808.465	27237
808.607	27580
808.749	27618
808.891	27709
809.033	27812
809.174	27739
809.316	27698
809.458	27622
809.6	27625
809.741	27679
809.883	27816
810.025	27842
810.166	27945
810.308	27911
810.45	27724
810.591	27736
810.733	27698
810.875	27557
811.016	27481
811.158	27511
811.299	27530
811.441	27679
811.582	27747
811.724	27526
811.865	27561
812.007	27603
812.148	27538
812.29	27583
812.431	27648
812.573	27918
812.714	27941
812.855	28048
812.997	28002
813.138	28147
813.279	28158
813.421	28128
813.562	28055
813.703	27914
813.845	27778
813.986	27466
814.127	27393
814.268	27207
814.41	27131
814.551	27218
814.692	27310
814.833	27211
814.974	27199
815.115	27146
815.256	26998
815.397	26952
815.539	27089
815.68	27001
815.821	26925
815.962	26925
816.103	27005
816.244	26739
816.385	26819
816.526	26769
816.666	26568
816.807	26366
816.948	26480
817.089	26575
817.23	26560
817.371	26457
817.512	26408
817.653	26488
817.793	26362
817.934	26453
818.075	26457
818.216	26412
818.356	26305
818.497	26214
818.638	26138
818.778	26153
818.919	26058
819.06	26062
819.2	26301
819.341	26225
819.481	26427
819.622	26366
819.762	26686
819.903	26473
820.043	26511
820.184	26442
820.324	26377
820.465	26629
820.605	26412
820.746	26271
820.886	26320
821.026	26457
821.167	26355
821.307	26419
821.447	26320
821.588	26180
821.728	26214
821.868	25997
822.008	25784
822.149	25753
822.289	25791
822.429	25586
822.569	25445
822.709	25453
822.849	25259
822.99	25228
823.13	25171
823.27	25187
823.41	25099
823.55	25042
823.69	25141
823.83	25202
823.97	24973
824.11	24753
824.25	24859
824.389	24783
824.529	24897
824.669	24711
824.809	25076
824.949	24863
825.089	24928
825.228	24886
825.368	24635
825.508	24700
825.648	24734
825.787	24749
825.927	24787
826.067	24658
826.206	24661
826.346	24703
826.485	24722
826.625	24646
826.765	24779
826.904	24661
827.044	24342
827.183	24361
827.323	24296
827.462	24391
827.601	24414
827.741	24441
827.88	24380
828.02	24201
828.159	24346
828.298	24315
828.437	24391
828.577	24228
828.716	24490
828.855	24327
828.994	24068
829.134	24057
829.273	24159
829.412	23950
829.551	24007
829.69	24057
829.829	24057
829.968	24125
830.107	24159
830.246	24098
830.385	23969
830.524	23923
830.663	23661
830.802	23752
830.941	23661
831.08	23623
831.219	23687
831.357	23767
831.496	23984
831.635	23691
831.774	23551
831.913	23512
832.051	23440
832.19	23486
832.329	23433
832.467	23410
832.606	23235
832.744	23235
832.883	23296
833.022	23280
833.16	23353
833.299	23364
833.437	23242
833.576	23345
833.714	23463
833.852	23501
833.991	23444
834.129	23395
834.267	23368
834.406	23315
834.544	23364
834.682	23383
834.821	23155
834.959	23509
835.097	23296
835.235	23265
835.373	23303
835.511	23292
835.65	23159
835.788	23227
835.926	23159
836.064	23052
836.202	22892
836.34	23212
836.478	23326
836.615	23151
836.753	23189
836.891	23284
837.029	23166
837.167	23166
837.305	22991
837.443	23029
837.58	23105
837.718	23025
837.856	22965
837.993	22850
838.131	23079
838.269	22755
838.406	22831
838.544	22767
838.681	22683
838.819	22622
838.956	22432
839.094	22478
839.231	22531
839.369	22618
839.506	22854
839.643	22797
839.781	22538
839.918	22402
840.055	22428
840.193	22451
840.33	22367
840.467	22424
840.604	22599
840.742	22611
840.879	22211
841.016	22181
841.153	22253
841.29	22504
841.427	22481
841.564	22440
841.701	22348
841.838	22341
841.975	22207
842.112	22207
842.249	22166
842.385	22112
842.522	22306
842.659	22120
842.796	22135
842.933	22135
843.069	22006
843.206	22029
843.343	22211
843.479	22013
843.616	22124
843.752	21816
843.889	21987
844.025	21937
844.162	21766
844.298	21941
844.435	21835
844.571	21785
844.708	21842
844.844	21987
844.98	22006
845.117	21934
845.253	21808
845.389	21625
845.525	21785
845.661	21724
845.798	21553
845.934	21637
846.07	21526
846.206	21538
846.342	21747
846.478	21587
846.614	21462
846.75	21325
846.886	21348
847.022	21287
847.158	21412
847.294	21363
847.429	21302
847.565	21382
847.701	21648
847.837	20982
847.972	20990
848.108	21112
848.244	21108
848.379	21062
848.515	20918
848.65	20914
848.786	20899
848.921	21001
849.057	21028
849.192	20918
849.328	20906
849.463	20994
849.598	20834
849.734	20887
849.869	20788
850.004	20804
850.14	20689
850.275	20670
850.41	20602
850.545	20712
850.68	20575
850.815	20678
850.95	20568
851.085	20861
851.22	20712
851.355	20579
851.49	20701
851.625	20564
851.76	20648
851.895	20434
852.03	20571
852.165	20632
852.299	20613
852.434	20663
852.569	20663
852.703	20571
852.838	20686
852.973	20708
853.107	20644
853.242	20594
853.376	20423
853.511	20358
853.645	20423
853.78	20598
853.914	20507
854.048	20389
854.183	20465
854.317	20404
854.451	20678
854.585	20495
854.72	20450
854.854	20568
854.988	20328
855.122	20324
855.256	20309
855.39	20423
855.524	20511
855.658	20473
855.792	20381
855.926	20454
856.06	20537
856.194	20590
856.327	20495
856.461	20434
856.595	20473
856.729	20579
856.862	20473
856.996	20454
857.13	20488
857.263	20648
857.397	20526
857.53	20442
857.664	20442
857.797	20476
857.931	20583
858.064	20438
858.197	20556
858.331	20351
858.464	20393
858.597	20248
858.731	20366
858.864	20374
858.997	20446
859.13	20450
859.263	20495
859.396	20488
859.529	20324
859.662	20385
859.795	20476
859.928	20438
860.061	20446
860.194	20541
860.327	20507
860.46	20358
860.592	20602
860.725	20549
860.858	20530
860.99	20461
861.123	20286
861.256	20423
861.388	20427
861.521	21150
861.653	20202
861.786	20237
861.918	20111
862.05	20286
862.183	20328
862.315	20385
862.447	20552
862.58	20366
862.712	20221
862.844	20107
862.976	20111
863.108	20122
863.24	20469
863.372	20058
863.504	20073
863.636	20065
863.768	20221
863.9	20058
864.032	20073
864.164	20157
864.296	20122
864.428	20271
864.559	20130
864.691	20069
864.823	20164
864.954	20062
865.086	20134
865.217	20027
865.349	20039
865.48	19932
865.612	19963
865.743	20290
865.875	19993
866.006	20069
866.137	20046
866.269	20027
866.4	19989
866.531	19879
866.662	19875
866.793	19826
866.924	19898
867.055	20020
867.186	19967
867.317	19982
867.448	19849
867.579	19852
867.71	19913
867.841	19974
867.972	19982
868.103	19883
868.233	19898
868.364	20020
868.495	20035
868.625	20119
868.756	20240
868.886	20122
869.017	20134
869.147	20229
869.278	20324
869.408	20157
869.539	20180
869.669	20206
869.799	20328
869.929	20225
870.06	20339
870.19	20560
870.32	20415
870.45	20492
870.58	20663
870.71	20640
870.84	20663
870.97	20522
871.1	20545
871.23	20815
871.36	20777
871.489	20655
871.619	20804
871.749	20811
871.879	20815
872.008	20899
872.138	20781
872.267	20796
872.397	20632
872.526	20705
872.656	20465
872.785	20568
872.915	20800
873.044	20902
873.173	20872
873.303	20796
873.432	20880
873.561	20952
873.69	20826
873.819	20819
873.948	21009
874.077	20804
874.206	20853
874.335	20826
874.464	20952
874.593	21127
874.722	21032
874.851	21070
874.979	21142
875.108	21047
875.237	20937
875.365	20929
875.494	20902
875.623	21294
875.751	20982
875.88	21017
876.008	21165
876.136	21264
876.265	21469
876.393	21625
876.521	21507
876.65	21553
876.778	21519
876.906	21447
877.034	21447
877.162	21389
877.29	21397
877.418	21481
877.546	21306
877.674	21294
877.802	21450
877.93	21355
878.058	21367
878.185	21397
878.313	21359
878.441	21393
878.568	21226
878.696	21374
878.824	21336
878.951	21454
879.079	21701
879.206	21679
879.333	21545
879.461	21469
879.588	21549
879.715	21641
879.842	21747
879.97	21500
880.097	21173
880.224	21230
880.351	21150
880.478	21176
880.605	21176
880.732	21146
880.859	21469
880.986	21199
881.112	21264
881.239	21077
881.366	20998
881.493	21017
881.619	20788
881.746	20883
881.872	20872
881.999	20785
882.125	20670
882.252	20826
882.378	20918
882.505	20956
882.631	20705
882.757	20590
882.883	20648
883.01	20568
883.136	20434
883.262	20393
883.388	20415
883.514	20568
883.64	20625
883.766	20484
883.892	20442
884.018	20374
884.143	20450
884.269	20648
884.395	20336
884.52	20111
884.646	20199
884.772	20229
884.897	20084
885.023	20191
885.148	20381
885.274	20370
885.399	20320
885.524	20218
885.65	20278
885.775	20176
885.9	20153
886.025	20290
886.15	20252
886.275	20134
886.4	20062
886.525	20134
886.65	20115
886.775	20149
886.9	20309
887.025	20400
887.149	20256
887.274	19982
887.399	20005
887.523	20001
887.648	19967
887.773	19856
887.897	20005
888.021	19978
888.146	19868
888.27	20054
888.395	20073
888.519	20016
888.643	20062
888.767	20035
888.891	19811
889.015	19761
889.139	19765
889.263	19750
889.387	19868
889.511	19978
889.635	19932
889.759	19658
889.883	19696
890.006	19795
890.13	19811
890.254	19708
890.377	19601
890.501	19609
890.624	19480
890.748	19601
890.871	19468
890.995	19384
891.118	19289
891.241	19335
891.364	19358
891.488	19430
891.611	19335
891.734	19343
891.857	19415
891.98	19324
892.103	19438
892.226	19266
892.349	19365
892.471	19198
892.594	19312
892.717	19335
892.839	19137
892.962	19285
893.085	19255
893.207	19251
893.33	19225
893.452	19327
893.575	19266
893.697	19206
893.819	19472
893.941	19422
894.064	19293
894.186	19198
894.308	19259
894.43	19263
894.552	19339
894.674	19419
894.796	19084
894.918	19293
895.04	19221
895.161	19266
895.283	19278
895.405	19255
895.526	19320
895.648	19179
895.769	19350
895.891	19266
896.012	19468
896.134	19297
896.255	19369
896.376	19270
896.498	19282
896.619	19369
896.74	19187
896.861	19301
896.982	19734
897.103	19753
897.224	19487
897.345	19575
897.466	19495
897.587	19674
897.708	19674
897.828	19510
897.949	19403
898.07	19369
898.19	19373
898.311	19658
898.431	19441
898.552	19419
898.672	19677
898.792	19601
898.913	19571
899.033	19362
899.153	19388
899.273	19251
899.393	19225
899.513	19293
899.633	19259
899.753	19270
899.873	19164
899.993	19190
900.113	19198
900.232	19270
900.352	19110
900.472	19091
900.591	18989
900.711	18993
900.83	18943
900.95	19107
901.069	19133
901.189	18913
901.308	18776
901.427	18665
901.546	18623
901.665	18715
901.784	18627
901.904	18471
902.023	18445
902.141	18258
902.26	18213
902.379	18197
902.498	18163
902.617	18121
902.735	18197
902.854	18091
902.973	18022
903.091	17828
903.21	17897
903.328	17783
903.446	17611
903.565	17668
903.683	17630
903.801	17459
903.919	17585
904.038	17474
904.156	17448
904.274	17577
904.392	17379
904.51	17334
904.627	17303
904.745	17398
904.863	17440
904.981	17296
905.098	17067
905.216	17090
905.334	17064
905.451	17117
905.569	17010
905.686	17136
905.803	17090
905.921	16968
906.038	17010
906.155	16869
906.272	16774
906.389	16869
906.506	16649
906.623	16637
906.74	16596
906.857	16478
906.974	16592
907.091	16645
907.208	16733
907.324	16713
907.441	16512
907.557	16455
907.674	16257
907.79	16318
907.907	16310
908.023	16367
908.139	16344
908.256	16306
908.372	16318
908.488	16128
908.604	16101
908.72	16063
908.836	16086
908.952	15987
909.068	16055
909.184	16124
909.3	16093
909.415	16150
909.531	15892
909.647	15854
909.762	15603
909.878	15789
909.993	15755
910.108	15739
910.224	15663
910.339	15644
910.454	15576
910.57	15469
910.685	15450
910.8	15778
910.915	15667
911.03	15580
911.145	15469
911.259	15340
911.374	15351
911.489	15298
911.604	15207
911.718	15104
911.833	15119
911.947	14994
912.062	14819
912.176	15032
912.291	15017
912.405	15074
912.519	15272
912.633	15237
912.748	15108
912.862	15077
912.976	14963
913.09	14758
913.204	14857
913.318	14819
913.431	15013
913.545	15066
913.659	15005
913.772	14872
913.886	14769
914	14674
914.113	14765
914.226	14861
914.34	14788
914.453	14693
914.566	14765
914.68	14613
914.793	14598
914.906	14377
915.019	14286
915.132	14309
915.245	14336
915.358	14400
915.47	14488
915.583	14347
915.696	14431
915.809	14461
915.921	14556
916.034	14313
916.146	14286
916.259	14214
916.371	14328
916.483	14286
916.595	14225
916.708	14206
916.82	14202
916.932	14153
917.044	14187
917.156	14172
917.268	14115
917.38	14043
917.491	14008
917.603	14043
917.715	14039
917.826	14195
917.938	14020
918.049	13864
918.161	14012
918.272	14100
918.384	14172
918.495	13982
918.606	13871
918.717	13769
918.828	13803
918.939	13753
919.05	13712
919.161	13803
919.272	13533
919.383	13628
919.494	13852
919.604	13932
919.715	13791
919.826	13662
919.936	13746
920.047	13841
920.157	13837
920.267	13822
920.378	13772
920.488	13693
920.598	13978
920.708	14107
920.818	13906
920.928	13940
921.038	14024
921.148	13993
921.258	13677
921.368	13677
921.477	13476
921.587	13525
921.697	13365
921.806	13495
921.916	13415
922.025	13225
922.134	13179
922.244	13251
922.353	13118
922.462	13012
922.571	12943
922.68	12943
922.789	12768
922.898	12943
923.007	12700
923.116	12768
923.224	12802
923.333	12783
923.442	12662
923.55	12639
923.659	12669
923.767	12688
923.876	12559
923.984	12677
924.092	12574
924.201	12662
924.309	12528
924.417	12582
924.525	12532
924.633	12506
924.741	13247
924.849	12338
924.956	12517
925.064	12410
925.172	12273
925.279	12228
925.387	12330
925.494	12330
925.602	12384
925.709	12353
925.816	12213
925.924	12254
926.031	12315
926.138	12292
926.245	12277
926.352	12129
926.459	12266
926.566	12285
926.673	12114
926.779	12072
926.886	12038
926.993	11958
927.099	11931
927.206	11828
927.312	11882
927.419	11897
927.525	11847
927.631	11870
927.737	11790
927.843	11722
927.95	11661
928.056	11684
928.162	11695
928.267	11748
928.373	12456
928.479	11771
928.585	11638
928.69	11760
928.796	11707
928.901	11589
929.007	11417
929.112	11638
929.218	11562
929.323	11505
929.428	11501
929.533	11649
929.638	11414
929.743	11459
929.848	11459
929.953	11368
930.058	11231
930.163	11227
930.267	11094
930.372	11273
930.477	11170
930.581	11334
930.685	11239
930.79	11083
930.894	11094
930.998	10984
931.103	11181
931.207	10733
931.311	10778
931.415	10668
931.519	10531
931.623	10497
