Data from test_V78500241_29.txt Node
Date: Fri Mar 25 15:10:03 CST 2022
User: usil
Spectrometer: V785-0024
Trigger mode: 0
Integration Time (sec): 4.000000E-1
Scans to average: 1
Nonlinearity correction enabled: false
Boxcar width: 0
Storing dark spectrum: false
XAxis mode: Wavelengths
Number of Pixels in Spectrum: 1024
>>>>>Begin Spectral Data<<<<<
801.071	28660
801.214	28424
801.356	28261
801.499	28147
801.641	28086
801.783	28219
801.926	28105
802.068	28048
802.211	28093
802.353	28074
802.496	27671
802.638	27739
802.78	27671
802.923	27622
803.065	27652
803.208	27526
803.35	27743
803.492	27629
803.635	27827
803.777	27690
803.919	27728
804.061	28040
804.204	27873
804.346	27458
804.488	27751
804.63	27644
804.773	27622
804.915	27789
805.057	27819
805.199	27686
805.341	27755
805.483	27797
805.626	27800
805.768	27728
805.91	27831
806.052	27751
806.194	27629
806.336	27960
806.478	27876
806.62	27732
806.762	27789
806.904	27979
807.046	28162
807.188	28143
807.33	28093
807.472	28280
807.614	28032
807.756	28143
807.898	27979
808.04	27819
808.182	27854
808.324	27865
808.465	27838
808.607	28010
808.749	28109
808.891	28295
809.033	28462
809.174	28226
809.316	28211
809.458	28177
809.6	28173
809.741	28329
809.883	28352
810.025	28363
810.166	28508
810.308	28379
810.45	28360
810.591	28401
810.733	28143
810.875	28265
811.016	27968
811.158	27960
811.299	28230
811.441	28135
811.582	28249
811.724	28029
811.865	28101
812.007	28139
812.148	28101
812.29	27987
812.431	28310
812.573	28485
812.714	28569
812.855	28611
812.997	28824
813.138	28774
813.279	28694
813.421	28470
813.562	28687
813.703	28249
813.845	28265
813.986	28090
814.127	27743
814.268	27743
814.41	27838
814.551	27831
814.692	27717
814.833	27610
814.974	27709
815.115	27751
815.256	27606
815.397	27553
815.539	27485
815.68	27515
815.821	27317
815.962	27431
816.103	27291
816.244	27310
816.385	27028
816.526	27169
816.666	26842
816.807	26686
816.948	27024
817.089	26902
817.23	26887
817.371	26735
817.512	26872
817.653	26667
817.793	26864
817.934	26785
818.075	26708
818.216	26921
818.356	26777
818.497	26659
818.638	26583
818.778	26507
818.919	26511
819.06	26594
819.2	26686
819.341	26716
819.481	26773
819.622	26857
819.762	27127
819.903	26952
820.043	26849
820.184	26815
820.324	26815
820.465	26724
820.605	26868
820.746	26693
820.886	26674
821.026	26754
821.167	26838
821.307	26842
821.447	26708
821.588	26606
821.728	26461
821.868	26324
822.008	26149
822.149	26161
822.289	26180
822.429	25841
822.569	25868
822.709	25833
822.849	25567
822.99	25700
823.13	25495
823.27	25556
823.41	25403
823.55	25362
823.69	25392
823.83	25479
823.97	25388
824.11	25160
824.25	25164
824.389	25198
824.529	25209
824.669	25027
824.809	25289
824.949	25304
825.089	25312
825.228	25221
825.368	24992
825.508	24989
825.648	24970
825.787	24882
825.927	25015
826.067	24935
826.206	24779
826.346	24947
826.485	24970
826.625	24852
826.765	25179
826.904	24916
827.044	24817
827.183	24760
827.323	24509
827.462	24707
827.601	24528
827.741	24456
827.88	24532
828.02	24414
828.159	24536
828.298	24505
828.437	24540
828.577	24525
828.716	24635
828.855	24544
828.994	24369
829.134	24342
829.273	24380
829.412	24289
829.551	24235
829.69	24346
829.829	24311
829.968	24254
830.107	24247
830.246	24330
830.385	24273
830.524	24167
830.663	24201
830.802	23904
830.941	23870
831.08	23805
831.219	23817
831.357	23809
831.496	24209
831.635	23805
831.774	23790
831.913	23585
832.051	23619
832.19	23402
832.329	23600
832.467	23585
832.606	23391
832.744	23376
832.883	23520
833.022	23417
833.16	23467
833.299	23467
833.437	23326
833.576	23558
833.714	23368
833.852	23600
833.991	23478
834.129	23531
834.267	23505
834.406	23433
834.544	23425
834.682	23497
834.821	23452
834.959	23627
835.097	23379
835.235	23433
835.373	23368
835.511	23421
835.65	23322
835.788	23239
835.926	23117
836.064	23109
836.202	23010
836.34	23212
836.478	23337
836.615	23151
836.753	23155
836.891	23235
837.029	23239
837.167	23265
837.305	23159
837.443	23212
837.58	23105
837.718	23140
837.856	23170
837.993	23117
838.131	23140
838.269	22961
838.406	22991
838.544	22946
838.681	22733
838.819	22668
838.956	22660
839.094	22523
839.231	22580
839.369	22618
839.506	22995
839.643	22687
839.781	22508
839.918	22493
840.055	22413
840.193	22459
840.33	22386
840.467	22402
840.604	22497
840.742	22691
840.879	22280
841.016	22295
841.153	22230
841.29	22508
841.427	22440
841.564	22314
841.701	22497
841.838	22299
841.975	22249
842.112	22272
842.249	22268
842.385	22139
842.522	22291
842.659	22082
842.796	22093
842.933	22135
843.069	22090
843.206	21960
843.343	22055
843.479	22036
843.616	22067
843.752	21899
843.889	21797
844.025	21983
844.162	21747
844.298	21972
844.435	21781
844.571	21781
844.708	21892
844.844	21930
844.98	21998
845.117	21869
845.253	21694
845.389	21663
845.525	21656
845.661	21743
845.798	21481
845.934	21507
846.07	21534
846.206	21542
846.342	21686
846.478	21587
846.614	21397
846.75	21332
846.886	21302
847.022	21351
847.158	21272
847.294	21226
847.429	21302
847.565	21108
847.701	21496
847.837	21013
847.972	20925
848.108	21142
848.244	21112
848.379	20941
848.515	20792
848.65	20849
848.786	20845
848.921	20853
849.057	20872
849.192	20849
849.328	20838
849.463	20762
849.598	20769
849.734	20667
849.869	20678
850.004	20556
850.14	20648
850.275	20511
850.41	20473
850.545	20484
850.68	20556
850.815	20537
850.95	20495
851.085	20644
851.22	20609
851.355	20488
851.49	20488
851.625	20507
851.76	20374
851.895	20381
852.03	20415
852.165	20423
852.299	20613
852.434	20587
852.569	20507
852.703	20541
852.838	20549
852.973	20743
853.107	20602
853.242	20484
853.376	20328
853.511	20275
853.645	20267
853.78	20404
853.914	20442
854.048	20172
854.183	20210
854.317	20370
854.451	20564
854.585	20358
854.72	20252
854.854	20427
854.988	20191
855.122	20317
855.256	20157
855.39	20275
855.524	20286
855.658	20336
855.792	20358
855.926	20355
856.06	20362
856.194	20374
856.327	20370
856.461	20256
856.595	20172
856.729	20206
856.862	20374
856.996	20149
857.13	20301
857.263	20499
857.397	20256
857.53	20362
857.664	20282
857.797	20396
857.931	20366
858.064	20164
858.197	20415
858.331	20317
858.464	20164
858.597	20142
858.731	20275
858.864	20172
858.997	20138
859.13	20294
859.263	20320
859.396	20366
859.529	20229
859.662	20149
859.795	20180
859.928	20309
860.061	20370
860.194	20404
860.327	20267
860.46	20195
860.592	20256
860.725	20275
860.858	20278
860.99	20275
861.123	20153
861.256	20062
861.388	20161
861.521	20853
861.653	20103
861.786	20031
861.918	20077
862.05	20115
862.183	20332
862.315	20271
862.447	20237
862.58	20271
862.712	20065
862.844	19963
862.976	20065
863.108	19890
863.24	20366
863.372	19887
863.504	19947
863.636	19868
863.768	19883
863.9	19894
864.032	19883
864.164	19864
864.296	19890
864.428	20008
864.559	19909
864.691	20058
864.823	19989
864.954	19898
865.086	19849
865.217	19818
865.349	19772
865.48	19860
865.612	19780
865.743	19925
865.875	19731
866.006	19807
866.137	19814
866.269	19784
866.4	19826
866.531	19776
866.662	19731
866.793	19685
866.924	19776
867.055	19700
867.186	19784
867.317	19700
867.448	19613
867.579	19594
867.71	19704
867.841	19742
867.972	19769
868.103	19613
868.233	19738
868.364	19772
868.495	19906
868.625	19951
868.756	20183
868.886	19883
869.017	19894
869.147	20031
869.278	20062
869.408	20016
869.539	19997
869.669	20130
869.799	20122
869.929	20016
870.06	19940
870.19	20370
870.32	20294
870.45	20370
870.58	20320
870.71	20465
870.84	20442
870.97	20393
871.1	20278
871.23	20518
871.36	20552
871.489	20560
871.619	20575
871.749	20568
871.879	20533
872.008	20678
872.138	20556
872.267	20568
872.397	20347
872.526	20442
872.656	20385
872.785	20419
872.915	20587
873.044	20712
873.173	20533
873.303	20670
873.432	20518
873.561	20686
873.69	20552
873.819	20583
873.948	20556
874.077	20663
874.206	20476
874.335	20549
874.464	20701
874.593	20868
874.722	20758
874.851	20891
874.979	20834
875.108	20838
875.237	20838
875.365	20819
875.494	20830
875.623	20857
875.751	20815
875.88	20811
876.008	20975
876.136	21020
876.265	21230
876.393	21287
876.521	21332
876.65	21230
876.778	21256
876.906	21226
877.034	21272
877.162	21154
877.29	21127
877.418	21142
877.546	21195
877.674	21249
877.802	21245
877.93	21077
878.058	21131
878.185	21192
878.313	21188
878.441	21260
878.568	21005
878.696	21173
878.824	21192
878.951	21275
879.079	21332
879.206	21549
879.333	21306
879.461	21230
879.588	21321
879.715	21359
879.842	21370
879.97	21359
880.097	20864
880.224	20979
880.351	21085
880.478	21074
880.605	21001
880.732	20994
880.859	21233
880.986	21058
881.112	21009
881.239	20838
881.366	20727
881.493	20701
881.619	20644
881.746	20545
881.872	20609
881.999	20609
882.125	20552
882.252	20689
882.378	20693
882.505	20731
882.631	20461
882.757	20389
882.883	20415
883.01	20362
883.136	20328
883.262	20138
883.388	20153
883.514	20438
883.64	20339
883.766	20332
883.892	20187
884.018	20233
884.143	20278
884.269	20454
884.395	20199
884.52	20096
884.646	20206
884.772	19871
884.897	19849
885.023	20092
885.148	19978
885.274	20221
885.399	20092
885.524	19856
885.65	20088
885.775	20043
885.9	20005
886.025	20161
886.15	19978
886.275	19871
886.4	19830
886.525	19875
886.65	19845
886.775	19898
886.9	20046
887.025	20149
887.149	19978
887.274	19833
887.399	19750
887.523	19734
887.648	19601
887.773	19704
887.897	19776
888.021	19731
888.146	19674
888.27	19894
888.395	19917
888.519	19742
888.643	19734
888.767	19791
888.891	19662
889.015	19533
889.139	19563
889.263	19495
889.387	19624
889.511	19833
889.635	19605
889.759	19525
889.883	19575
890.006	19502
890.13	19651
890.254	19400
890.377	19445
890.501	19293
890.624	19244
890.748	19320
890.871	19209
890.995	19053
891.118	19023
891.241	19057
891.364	19053
891.488	19206
891.611	19095
891.734	19118
891.857	19221
891.98	19110
892.103	19213
892.226	19133
892.349	19046
892.471	19015
892.594	19141
892.717	19133
892.839	19046
892.962	19084
893.085	19171
893.207	19031
893.33	19057
893.452	18935
893.575	19129
893.697	19000
893.819	19232
893.941	19263
894.064	19236
894.186	19072
894.308	19072
894.43	19156
894.552	19240
894.674	19133
894.796	18920
894.918	19137
895.04	19031
895.161	19118
895.283	19187
895.405	18966
895.526	19042
895.648	19126
895.769	19141
895.891	19114
896.012	19126
896.134	19053
896.255	19145
896.376	19050
896.498	19126
896.619	19152
896.74	19126
896.861	19293
896.982	19381
897.103	19628
897.224	19502
897.345	19274
897.466	19331
897.587	19346
897.708	19441
897.828	19358
897.949	19312
898.07	19236
898.19	19297
898.311	19483
898.431	19171
898.552	19316
898.672	19373
898.792	19373
898.913	19285
899.033	19088
899.153	19046
899.273	19046
899.393	18993
899.513	19072
899.633	19072
899.753	19015
899.873	18966
899.993	19095
900.113	18947
900.232	18958
900.352	19046
900.472	18848
900.591	18802
900.711	18833
900.83	18764
900.95	18890
901.069	18947
901.189	18787
901.308	18540
901.427	18422
901.546	18483
901.665	18467
901.784	18467
901.904	18441
902.023	18270
902.141	18022
902.26	17950
902.379	18045
902.498	17969
902.617	17908
902.735	17965
902.854	17908
902.973	17843
903.091	17707
903.21	17539
903.328	17516
903.446	17486
903.565	17425
903.683	17493
903.801	17322
903.919	17356
904.038	17440
904.156	17231
904.274	17326
904.392	17056
904.51	17162
904.627	17250
904.745	17246
904.863	17204
904.981	17060
905.098	16927
905.216	16847
905.334	16980
905.451	16881
905.569	16793
905.686	16957
905.803	16869
905.921	16664
906.038	16831
906.155	16611
906.272	16580
906.389	16565
906.506	16367
906.623	16356
906.74	16432
906.857	16333
906.974	16306
907.091	16428
907.208	16466
907.324	16504
907.441	16295
907.557	16143
907.674	16192
907.79	16086
907.907	16131
908.023	16188
908.139	16143
908.256	16029
908.372	16036
908.488	15960
908.604	15793
908.72	15724
908.836	15759
908.952	15682
909.068	15842
909.184	15835
909.3	15739
909.415	15816
909.531	15728
909.647	15477
909.762	15458
909.878	15447
909.993	15572
910.108	15462
910.224	15538
910.339	15412
910.454	15348
910.57	15249
910.685	15272
910.8	15496
910.915	15481
911.03	15230
911.145	15104
911.259	15116
911.374	15127
911.489	15047
911.604	14960
911.718	14792
911.833	14788
911.947	14769
912.062	14590
912.176	14804
912.291	14868
912.405	14750
912.519	15013
912.633	15081
912.748	14864
912.862	14781
912.976	14636
913.09	14530
913.204	14484
913.318	14629
913.431	14765
913.545	14640
913.659	14727
913.772	14613
913.886	14454
914	14419
914.113	14480
914.226	14541
914.34	14484
914.453	14336
914.566	14526
914.68	14347
914.793	14317
914.906	14248
915.019	14138
915.132	14027
915.245	14123
915.358	14130
915.47	14176
915.583	14180
915.696	14168
915.809	14259
915.921	14176
916.034	14046
916.146	14012
916.259	14020
916.371	14187
916.483	14092
916.595	14008
916.708	13932
916.82	14001
916.932	13906
917.044	13928
917.156	13936
917.268	13830
917.38	13780
917.491	13742
917.603	13879
917.715	13947
917.826	13837
917.938	13776
918.049	13636
918.161	13723
918.272	13913
918.384	13845
918.495	13613
918.606	13597
918.717	13514
918.828	13601
918.939	13689
919.05	13521
919.161	13525
919.272	13373
919.383	13422
919.494	13571
919.604	13723
919.715	13510
919.826	13373
919.936	13472
920.047	13624
920.157	13567
920.267	13651
920.378	13521
920.488	13529
920.598	13685
920.708	13852
920.818	13719
920.928	13620
921.038	13704
921.148	13818
921.258	13460
921.368	13407
921.477	13369
921.587	13346
921.697	13137
921.806	13285
921.916	13129
922.025	12966
922.134	12977
922.244	12901
922.353	13061
922.462	12722
922.571	12681
922.68	12677
922.789	12521
922.898	12585
923.007	12422
923.116	12582
923.224	12494
923.333	12475
923.442	12418
923.55	12334
923.659	12369
923.767	12460
923.876	12376
923.984	12555
924.092	12300
924.201	12315
924.309	12323
924.417	12289
924.525	12273
924.633	12239
924.741	13122
924.849	12095
924.956	12220
925.064	12060
925.172	11939
925.279	12072
925.387	12114
925.494	12019
925.602	12178
925.709	12140
925.816	11912
925.924	12057
926.031	12007
926.138	11961
926.245	12045
926.352	11942
926.459	12072
926.566	12095
926.673	11999
926.779	11882
926.886	11832
926.993	11657
927.099	11653
927.206	11577
927.312	11554
927.419	11638
927.525	11623
927.631	11615
927.737	11615
927.843	11478
927.95	11372
928.056	11452
928.162	11440
928.267	11493
928.373	12125
928.479	11535
928.585	11334
928.69	11433
928.796	11414
928.901	11311
929.007	11155
929.112	11334
929.218	11288
929.323	11212
929.428	11170
929.533	11269
929.638	11117
929.743	11208
929.848	11166
929.953	11208
930.058	11105
930.163	10904
930.267	10930
930.372	11025
930.477	10915
930.581	11064
930.685	10877
930.79	10752
930.894	10736
930.998	10748
931.103	10942
931.207	10592
931.311	10497
931.415	10382
931.519	10230
931.623	10131
