Data from test_V78500241_3251.txt Node
Date: Fri Mar 25 15:32:29 CST 2022
User: usil
Spectrometer: V785-0024
Trigger mode: 0
Integration Time (sec): 4.000000E-1
Scans to average: 1
Nonlinearity correction enabled: false
Boxcar width: 0
Storing dark spectrum: false
XAxis mode: Wavelengths
Number of Pixels in Spectrum: 1024
>>>>>Begin Spectral Data<<<<<
801.071	27176
801.214	27135
801.356	26986
801.499	26982
801.641	26807
801.783	26815
801.926	26788
802.068	26792
802.211	26632
802.353	26598
802.496	26431
802.638	26476
802.78	26446
802.923	26438
803.065	26336
803.208	26408
803.35	26511
803.492	26659
803.635	26617
803.777	26442
803.919	26621
804.061	27028
804.204	26587
804.346	26503
804.488	26514
804.63	26530
804.773	26442
804.915	26651
805.057	26629
805.199	26549
805.341	26609
805.483	26697
805.626	26735
805.768	26583
805.91	26651
806.052	26629
806.194	26617
806.336	26826
806.478	26754
806.62	26746
806.762	26876
806.904	26982
807.046	27272
807.188	27298
807.33	27009
807.472	27104
807.614	27039
807.756	27131
807.898	26952
808.04	26960
808.182	26807
808.324	26990
808.465	26952
808.607	27051
808.749	27298
808.891	27382
809.033	27507
809.174	27256
809.316	27344
809.458	27222
809.6	27310
809.741	27325
809.883	27500
810.025	27641
810.166	27599
810.308	27511
810.45	27568
810.591	27431
810.733	27435
810.875	27249
811.016	27203
811.158	27157
811.299	27389
811.441	27401
811.582	27378
811.724	27237
811.865	27386
812.007	27321
812.148	27294
812.29	27302
812.431	27542
812.573	27603
812.714	27553
812.855	27838
812.997	27816
813.138	28135
813.279	27918
813.421	27770
813.562	27614
813.703	27671
813.845	27466
813.986	27211
814.127	27055
814.268	27028
814.41	27001
814.551	26872
814.692	26967
814.833	26845
814.974	26826
815.115	26986
815.256	26838
815.397	26777
815.539	26842
815.68	26731
815.821	26705
815.962	26785
816.103	26693
816.244	26667
816.385	26571
816.526	26488
816.666	26210
816.807	26244
816.948	26122
817.089	26343
817.23	26256
817.371	26214
817.512	26119
817.653	26180
817.793	26180
817.934	26122
818.075	26317
818.216	26263
818.356	26218
818.497	25997
818.638	26195
818.778	25887
818.919	26054
819.06	26024
819.2	25978
819.341	26134
819.481	26149
819.622	26370
819.762	26377
819.903	26476
820.043	26328
820.184	26301
820.324	26336
820.465	26442
820.605	26431
820.746	26180
820.886	26046
821.026	26199
821.167	26183
821.307	26317
821.447	26301
821.588	26012
821.728	26046
821.868	25803
822.008	25723
822.149	25734
822.289	25666
822.429	25384
822.569	25301
822.709	25297
822.849	25175
822.99	25206
823.13	25133
823.27	24981
823.41	24939
823.55	24833
823.69	25019
823.83	24962
823.97	24951
824.11	24738
824.25	24840
824.389	24943
824.529	24890
824.669	24719
824.809	24913
824.949	24909
825.089	24817
825.228	24817
825.368	24681
825.508	24669
825.648	24798
825.787	24681
825.927	24673
826.067	24753
826.206	24745
826.346	24738
826.485	24696
826.625	24677
826.765	24806
826.904	24741
827.044	24479
827.183	24464
827.323	24342
827.462	24426
827.601	24380
827.741	24338
827.88	24300
828.02	24273
828.159	24407
828.298	24388
828.437	24365
828.577	24353
828.716	24441
828.855	24380
828.994	24022
829.134	24076
829.273	24209
829.412	24102
829.551	24003
829.69	24087
829.829	24133
829.968	24186
830.107	24140
830.246	24106
830.385	24076
830.524	23988
830.663	23958
830.802	23836
830.941	23710
831.08	23638
831.219	23836
831.357	23809
831.496	23817
831.635	23760
831.774	23630
831.913	23661
832.051	23452
832.19	23581
832.329	23600
832.467	23497
832.606	23398
832.744	23307
832.883	23208
833.022	23277
833.16	23486
833.299	23398
833.437	23402
833.576	23668
833.714	23585
833.852	23512
833.991	23589
834.129	23512
834.267	23520
834.406	23520
834.544	23531
834.682	23531
834.821	23524
834.959	23589
835.097	23368
835.235	23551
835.373	23395
835.511	23493
835.65	23318
835.788	23353
835.926	23204
836.064	23189
836.202	23094
836.34	23292
836.478	23436
836.615	23296
836.753	23436
836.891	23436
837.029	23326
837.167	23273
837.305	23269
837.443	23235
837.58	23181
837.718	23277
837.856	23223
837.993	23025
838.131	23220
838.269	22987
838.406	23113
838.544	23014
838.681	22881
838.819	22801
838.956	22607
839.094	22622
839.231	22656
839.369	22771
839.506	23140
839.643	22866
839.781	22637
839.918	22573
840.055	22782
840.193	22573
840.33	22637
840.467	22618
840.604	22535
840.742	22892
840.879	22455
841.016	22527
841.153	22443
841.29	22588
841.427	22428
841.564	22653
841.701	22557
841.838	22478
841.975	22493
842.112	22371
842.249	22417
842.385	22375
842.522	22668
842.659	22402
842.796	22268
842.933	22352
843.069	22310
843.206	22306
843.343	22523
843.479	22306
843.616	22306
843.752	22128
843.889	22139
844.025	22181
844.162	22097
844.298	22322
844.435	22055
844.571	22040
844.708	22207
844.844	22367
844.98	22341
845.117	22253
845.253	21998
845.389	21968
845.525	21945
845.661	21979
845.798	21812
845.934	21831
846.07	21838
846.206	21934
846.342	21911
846.478	21918
846.614	21663
846.75	21633
846.886	21534
847.022	21660
847.158	21682
847.294	21515
847.429	21660
847.565	21583
847.701	21888
847.837	21317
847.972	21310
848.108	21443
848.244	21389
848.379	21272
848.515	21211
848.65	21108
848.786	21112
848.921	21230
849.057	21298
849.192	21165
849.328	21291
849.463	21173
849.598	21123
849.734	20982
849.869	21032
850.004	20979
850.14	20967
850.275	20948
850.41	20990
850.545	20872
850.68	20902
850.815	21009
850.95	20918
851.085	21203
851.22	20994
851.355	21020
851.49	20975
851.625	21005
851.76	20921
851.895	20857
852.03	20857
852.165	20952
852.299	20937
852.434	20975
852.569	21096
852.703	20864
852.838	21055
852.973	21146
853.107	21131
853.242	20990
853.376	20845
853.511	20765
853.645	20720
853.78	20792
853.914	20826
854.048	20876
854.183	20716
854.317	20773
854.451	21043
854.585	20754
854.72	20769
854.854	20826
854.988	20819
855.122	20781
855.256	20613
855.39	20785
855.524	20899
855.658	20979
855.792	20769
855.926	20792
856.06	20842
856.194	20887
856.327	20807
856.461	20746
856.595	20689
856.729	20743
856.862	20845
856.996	20944
857.13	20868
857.263	20891
857.397	20830
857.53	20697
857.664	20902
857.797	20788
857.931	20876
858.064	20777
858.197	20906
858.331	20819
858.464	20739
858.597	20682
858.731	20804
858.864	20739
858.997	20541
859.13	20804
859.263	20883
859.396	20902
859.529	20750
859.662	20807
859.795	20701
859.928	20883
860.061	20979
860.194	21036
860.327	20781
860.46	20743
860.592	20872
860.725	20982
860.858	20975
860.99	20876
861.123	20773
861.256	20697
861.388	20689
861.521	21237
861.653	20571
861.786	20590
861.918	20613
862.05	20682
862.183	20758
862.315	20629
862.447	20750
862.58	20697
862.712	20450
862.844	20503
862.976	20613
863.108	20522
863.24	21032
863.372	20518
863.504	20469
863.636	20590
863.768	20621
863.9	20473
864.032	20480
864.164	20385
864.296	20549
864.428	20552
864.559	20560
864.691	20602
864.823	20434
864.954	20568
865.086	20511
865.217	20434
865.349	20355
865.48	20522
865.612	20396
865.743	20568
865.875	20438
866.006	20442
866.137	20442
866.269	20263
866.4	20332
866.531	20324
866.662	20309
866.793	20286
866.924	20423
867.055	20324
867.186	20290
867.317	20256
867.448	20259
867.579	20263
867.71	20210
867.841	20267
867.972	20343
868.103	20362
868.233	20396
868.364	20332
868.495	20469
868.625	20461
868.756	20659
868.886	20625
869.017	20670
869.147	20727
869.278	20697
869.408	20720
869.539	20594
869.669	20682
869.799	20693
869.929	20724
870.06	20773
870.19	20853
870.32	20807
870.45	20918
870.58	21066
870.71	21188
870.84	21138
870.97	21085
871.1	21032
871.23	21199
871.36	21180
871.489	21055
871.619	21119
871.749	21214
871.879	21222
872.008	21226
872.138	21332
872.267	21131
872.397	21119
872.526	20979
872.656	20998
872.785	20967
872.915	21291
873.044	21310
873.173	21233
873.303	21233
873.432	21340
873.561	21287
873.69	21252
873.819	21211
873.948	21230
874.077	21245
874.206	21218
874.335	21298
874.464	21192
874.593	21561
874.722	21363
874.851	21412
874.979	21488
875.108	21637
875.237	21401
875.365	21249
875.494	21481
875.623	21481
875.751	21393
875.88	21458
876.008	21507
876.136	21694
876.265	21831
876.393	22029
876.521	21979
876.65	21808
876.778	21915
876.906	21785
877.034	21759
877.162	21911
877.29	21656
877.418	21823
877.546	22017
877.674	21800
877.802	21823
877.93	21785
878.058	21720
878.185	21720
878.313	21880
878.441	21827
878.568	21652
878.696	21808
878.824	21835
878.951	21835
879.079	22131
879.206	22185
879.333	21991
879.461	21857
879.588	22002
879.715	21903
879.842	22139
879.97	21918
880.097	21534
880.224	21599
880.351	21728
880.478	21690
880.605	21633
880.732	21705
880.859	21827
880.986	21671
881.112	21625
881.239	21526
881.366	21359
881.493	21268
881.619	21214
881.746	21268
881.872	21150
881.999	21169
882.125	21154
882.252	21230
882.378	21199
882.505	21363
882.631	21070
882.757	20971
882.883	20887
883.01	20823
883.136	20960
883.262	20781
883.388	20815
883.514	20902
883.64	20994
883.766	20929
883.892	20743
884.018	20807
884.143	20906
884.269	20914
884.395	20621
884.52	20617
884.646	20667
884.772	20678
884.897	20568
885.023	20598
885.148	20659
885.274	20762
885.399	20693
885.524	20526
885.65	20484
885.775	20488
885.9	20590
886.025	20568
886.15	20571
886.275	20613
886.4	20530
886.525	20533
886.65	20587
886.775	20507
886.9	20609
887.025	20659
887.149	20545
887.274	20469
887.399	20362
887.523	20305
887.648	20259
887.773	20237
887.897	20374
888.021	20252
888.146	20248
888.27	20408
888.395	20431
888.519	20389
888.643	20385
888.767	20526
888.891	20324
889.015	20103
889.139	20195
889.263	20122
889.387	20240
889.511	20305
889.635	20301
889.759	20054
889.883	19982
890.006	20309
890.13	20218
890.254	20115
890.377	19982
890.501	19970
890.624	19849
890.748	19913
890.871	19852
890.995	19746
891.118	19624
891.241	19662
891.364	19837
891.488	19909
891.611	19643
891.734	19746
891.857	19864
891.98	19685
892.103	19921
892.226	19750
892.349	19578
892.471	19635
892.594	19784
892.717	19635
892.839	19632
892.962	19559
893.085	19624
893.207	19731
893.33	19655
893.452	19635
893.575	19616
893.697	19548
893.819	19761
893.941	19738
894.064	19913
894.186	19521
894.308	19544
894.43	19670
894.552	19769
894.674	19628
894.796	19529
894.918	19556
895.04	19567
895.161	19647
895.283	19727
895.405	19529
895.526	19601
895.648	19635
895.769	19624
895.891	19685
896.012	19731
896.134	19708
896.255	19685
896.376	19643
896.498	19590
896.619	19693
896.74	19681
896.861	19784
896.982	19883
897.103	20020
897.224	19986
897.345	19757
897.466	19772
897.587	19849
897.708	19963
897.828	19830
897.949	19860
898.07	19795
898.19	19928
898.311	19925
898.431	19811
898.552	19799
898.672	19967
898.792	19974
898.913	19902
899.033	19849
899.153	19651
899.273	19533
899.393	19662
899.513	19681
899.633	19639
899.753	19594
899.873	19445
899.993	19571
900.113	19586
900.232	19544
900.352	19548
900.472	19567
900.591	19426
900.711	19396
900.83	19369
900.95	19483
901.069	19483
901.189	19236
901.308	19088
901.427	18977
901.546	19069
901.665	19019
901.784	19122
901.904	18844
902.023	18821
902.141	18635
902.26	18540
902.379	18665
902.498	18502
902.617	18376
902.735	18578
902.854	18395
902.973	18365
903.091	18213
903.21	18228
903.328	18171
903.446	18121
903.565	18022
903.683	18053
903.801	17988
903.919	18007
904.038	17954
904.156	17737
904.274	17863
904.392	17760
904.51	17748
904.627	17760
904.745	17885
904.863	17779
904.981	17672
905.098	17444
905.216	17356
905.334	17463
905.451	17398
905.569	17296
905.686	17493
905.803	17433
905.921	17204
906.038	17311
906.155	17246
906.272	17056
906.389	17147
906.506	16942
906.623	16995
906.74	17052
906.857	16866
906.974	16919
907.091	17025
907.208	17014
907.324	16972
907.441	16854
907.557	16778
907.674	16786
907.79	16660
907.907	16717
908.023	16698
908.139	16740
908.256	16691
908.372	16786
908.488	16618
908.604	16516
908.72	16375
908.836	16398
908.952	16409
909.068	16440
909.184	16607
909.3	16394
909.415	16382
909.531	16428
909.647	16128
909.762	16177
909.878	16147
909.993	16181
910.108	16181
910.224	16109
910.339	16093
910.454	15884
910.57	16002
910.685	15918
910.8	16105
910.915	16093
911.03	15865
911.145	15812
911.259	15789
911.374	15793
911.489	15618
911.604	15690
911.718	15507
911.833	15542
911.947	15492
912.062	15431
912.176	15507
912.291	15599
912.405	15481
912.519	15686
912.633	15705
912.748	15504
912.862	15511
912.976	15313
913.09	15119
913.204	15252
913.318	15291
913.431	15454
913.545	15363
913.659	15511
913.772	15283
913.886	15169
914	15127
914.113	15279
914.226	15302
914.34	15184
914.453	15100
914.566	15154
914.68	14990
914.793	14994
914.906	14746
915.019	14777
915.132	14674
915.245	14762
915.358	14754
915.47	14701
915.583	14632
915.696	14777
915.809	14823
915.921	14868
916.034	14765
916.146	14644
916.259	14640
916.371	14720
916.483	14739
916.595	14682
916.708	14613
916.82	14518
916.932	14507
917.044	14522
917.156	14518
917.268	14389
917.38	14469
917.491	14423
917.603	14332
917.715	14358
917.826	14511
917.938	14336
918.049	14256
918.161	14282
918.272	14434
918.384	14457
918.495	14374
918.606	14313
918.717	14191
918.828	14176
918.939	14191
919.05	14134
919.161	14145
919.272	13959
919.383	14020
919.494	14256
919.604	14484
919.715	14130
919.826	14050
919.936	14172
920.047	14191
920.157	14126
920.267	14233
920.378	14130
920.488	14103
920.598	14358
920.708	14457
920.818	14187
920.928	14336
921.038	14412
921.148	14446
921.258	14027
921.368	14100
921.477	13989
921.587	13841
921.697	13696
921.806	13917
921.916	13833
922.025	13567
922.134	13556
922.244	13529
922.353	13544
922.462	13434
922.571	13358
922.68	13175
922.789	13103
922.898	13122
923.007	13072
923.116	13198
923.224	13175
923.333	13179
923.442	13008
923.55	13034
923.659	13069
923.767	13042
923.876	13023
923.984	13069
924.092	12894
924.201	13015
924.309	12840
924.417	12932
924.525	12894
924.633	12840
924.741	13791
924.849	12650
924.956	12833
925.064	12662
925.172	12627
925.279	12559
925.387	12566
925.494	12589
925.602	12734
925.709	12673
925.816	12525
925.924	12589
926.031	12658
926.138	12559
926.245	12616
926.352	12376
926.459	12669
926.566	12677
926.673	12597
926.779	12353
926.886	12433
926.993	12239
927.099	12159
927.206	12117
927.312	12144
927.419	12148
927.525	12201
927.631	12239
927.737	12026
927.843	12030
927.95	11927
928.056	11969
928.162	12011
928.267	12171
928.373	12658
928.479	12102
928.585	11908
928.69	11988
928.796	11999
928.901	11882
929.007	11699
929.112	11870
929.218	11942
929.323	11783
929.428	11733
929.533	11824
929.638	11649
929.743	11714
929.848	11729
929.953	11748
930.058	11604
930.163	11444
930.267	11509
930.372	11551
930.477	11425
930.581	11623
930.685	11509
930.79	11315
930.894	11353
930.998	11303
931.103	11414
931.207	11067
931.311	11136
931.415	10892
931.519	10752
931.623	10664
