Data from test_V78500241_5.txt Node
Date: Fri Mar 25 15:09:53 CST 2022
User: usil
Spectrometer: V785-0024
Trigger mode: 0
Integration Time (sec): 4.000000E-1
Scans to average: 1
Nonlinearity correction enabled: false
Boxcar width: 0
Storing dark spectrum: false
XAxis mode: Wavelengths
Number of Pixels in Spectrum: 1024
>>>>>Begin Spectral Data<<<<<
801.071	27481
801.214	27408
801.356	27214
801.499	27020
801.641	27017
801.783	26899
801.926	26967
802.068	26906
802.211	27032
802.353	26712
802.496	26598
802.638	26438
802.78	26438
802.923	26339
803.065	26423
803.208	26366
803.35	26374
803.492	26419
803.635	26689
803.777	26457
803.919	26495
804.061	26925
804.204	26465
804.346	26556
804.488	26427
804.63	26522
804.773	26282
804.915	26625
805.057	26499
805.199	26415
805.341	26461
805.483	26579
805.626	26492
805.768	26522
805.91	26606
806.052	26568
806.194	26488
806.336	26651
806.478	26469
806.62	26549
806.762	26598
806.904	26811
807.046	26811
807.188	26762
807.33	26868
807.472	26956
807.614	26819
807.756	26731
807.898	26693
808.04	26518
808.182	26762
808.324	26746
808.465	26720
808.607	26693
808.749	26914
808.891	26872
809.033	27051
809.174	27024
809.316	26853
809.458	26960
809.6	26940
809.741	26963
809.883	27104
810.025	27188
810.166	27150
810.308	27176
810.45	27104
810.591	26960
810.733	26982
810.875	26853
811.016	26746
811.158	26781
811.299	26777
811.441	26956
811.582	26842
811.724	26769
811.865	26743
812.007	26849
812.148	26762
812.29	26899
812.431	26975
812.573	27089
812.714	27245
812.855	27321
812.997	27344
813.138	27682
813.279	27424
813.421	27294
813.562	27275
813.703	27192
813.845	27055
813.986	26743
814.127	26613
814.268	26446
814.41	26377
814.551	26469
814.692	26499
814.833	26259
814.974	26370
815.115	26351
815.256	26210
815.397	26328
815.539	26149
815.68	26062
815.821	26054
815.962	25997
816.103	26043
816.244	26012
816.385	25841
816.526	25632
816.666	25647
816.807	25472
816.948	25685
817.089	25734
817.23	25552
817.371	25476
817.512	25499
817.653	25350
817.793	25354
817.934	25335
818.075	25362
818.216	25396
818.356	25377
818.497	25225
818.638	25069
818.778	25225
818.919	25187
819.06	25221
819.2	25190
819.341	25324
819.481	25282
819.622	25419
819.762	25643
819.903	25510
820.043	25476
820.184	25362
820.324	25537
820.465	25487
820.605	25373
820.746	25388
820.886	25141
821.026	25392
821.167	25350
821.307	25388
821.447	25354
821.588	25202
821.728	25213
821.868	25000
822.008	24886
822.149	24798
822.289	24745
822.429	24490
822.569	24513
822.709	24388
822.849	24232
822.99	24190
823.13	24171
823.27	24163
823.41	23954
823.55	23908
823.69	24144
823.83	24034
823.97	23836
824.11	23817
824.25	23767
824.389	23760
824.529	23752
824.669	23809
824.809	23805
824.949	23870
825.089	23824
825.228	23904
825.368	23657
825.508	23585
825.648	23604
825.787	23551
825.927	23608
826.067	23368
826.206	23376
826.346	23512
826.485	23608
826.625	23581
826.765	23566
826.904	23745
827.044	23280
827.183	23303
827.323	23174
827.462	23242
827.601	23235
827.741	23277
827.88	23212
828.02	23075
828.159	23162
828.298	23227
828.437	23246
828.577	23212
828.716	23288
828.855	23018
828.994	22957
829.134	23075
829.273	23124
829.412	22797
829.551	22805
829.69	22809
829.829	22869
829.968	22953
830.107	22790
830.246	22980
830.385	22683
830.524	22729
830.663	22679
830.802	22489
830.941	22451
831.08	22519
831.219	22371
831.357	22474
831.496	22805
831.635	22466
831.774	22261
831.913	22322
832.051	22333
832.19	22169
832.329	22169
832.467	22124
832.606	21899
832.744	22105
832.883	22044
833.022	22059
833.16	22048
833.299	22204
833.437	22055
833.576	22063
833.714	22166
833.852	22090
833.991	22223
834.129	22215
834.267	22265
834.406	22048
834.544	22074
834.682	22116
834.821	22013
834.959	22158
835.097	21915
835.235	22067
835.373	21983
835.511	21953
835.65	21941
835.788	21888
835.926	21789
836.064	21595
836.202	21831
836.34	21850
836.478	22086
836.615	22010
836.753	21778
836.891	22036
837.029	21823
837.167	21876
837.305	21865
837.443	21755
837.58	21644
837.718	21831
837.856	21838
837.993	21766
838.131	21709
838.269	21622
838.406	21690
838.544	21679
838.681	21344
838.819	21450
838.956	21192
839.094	21226
839.231	21222
839.369	21340
839.506	21610
839.643	21443
839.781	21142
839.918	20956
840.055	21123
840.193	21093
840.33	21020
840.467	20982
840.604	21096
840.742	21412
840.879	20994
841.016	21043
841.153	21085
841.29	21192
841.427	21119
841.564	21135
841.701	20971
841.838	21074
841.975	21013
842.112	21100
842.249	20845
842.385	20609
842.522	20891
842.659	20777
842.796	20777
842.933	20796
843.069	20773
843.206	20823
843.343	20804
843.479	20686
843.616	20750
843.752	20648
843.889	20495
844.025	20651
844.162	20469
844.298	20674
844.435	20651
844.571	20530
844.708	20389
844.844	20564
844.98	20648
845.117	20655
845.253	20366
845.389	20419
845.525	20381
845.661	20526
845.798	20214
845.934	20438
846.07	20172
846.206	20225
846.342	20339
846.478	20221
846.614	20035
846.75	19947
846.886	19871
847.022	20054
847.158	19841
847.294	20035
847.429	20092
847.565	19936
847.701	20225
847.837	19765
847.972	19556
848.108	19719
848.244	19769
848.379	19556
848.515	19521
848.65	19529
848.786	19434
848.921	19491
849.057	19601
849.192	19635
849.328	19533
849.463	19491
849.598	19495
849.734	19384
849.869	19240
850.004	19301
850.14	19278
850.275	19358
850.41	19110
850.545	19206
850.68	19190
850.815	19217
850.95	19251
851.085	19472
851.22	19422
851.355	19293
851.49	19129
851.625	19259
851.76	19103
851.895	19202
852.03	18996
852.165	19171
852.299	19145
852.434	19270
852.569	19232
852.703	19194
852.838	19175
852.973	19293
853.107	19362
853.242	19240
853.376	19050
853.511	18897
853.645	18989
853.78	19141
853.914	19069
854.048	19027
854.183	18993
854.317	19057
854.451	19255
854.585	18996
854.72	18985
854.854	19152
854.988	18943
855.122	18958
855.256	18947
855.39	18951
855.524	19118
855.658	19141
855.792	19008
855.926	19232
856.06	18989
856.194	19122
856.327	19031
856.461	18981
856.595	19000
856.729	18882
856.862	19000
856.996	18905
857.13	19015
857.263	19118
857.397	19091
857.53	18954
857.664	19015
857.797	18973
857.931	19107
858.064	18985
858.197	19114
858.331	19008
858.464	18901
858.597	18787
858.731	18993
858.864	18890
858.997	18932
859.13	18954
859.263	18985
859.396	19042
859.529	18935
859.662	18935
859.795	18779
859.928	18932
860.061	19019
860.194	19129
860.327	18993
860.46	18962
860.592	19000
860.725	19160
860.858	18981
860.99	18966
861.123	18783
861.256	18840
861.388	18913
861.521	19556
861.653	18848
861.786	18779
861.918	18848
862.05	18973
862.183	19023
862.315	18993
862.447	19088
862.58	18894
862.712	18817
862.844	18688
862.976	18772
863.108	18863
863.24	19217
863.372	18578
863.504	18578
863.636	18631
863.768	18646
863.9	18631
864.032	18623
864.164	18604
864.296	18612
864.428	18821
864.559	18810
864.691	18783
864.823	18620
864.954	18681
865.086	18570
865.217	18593
865.349	18502
865.48	18566
865.612	18578
865.743	18673
865.875	18707
866.006	18540
866.137	18684
866.269	18627
866.4	18623
866.531	18597
866.662	18597
866.793	18578
866.924	18650
867.055	18544
867.186	18574
867.317	18555
867.448	18460
867.579	18570
867.71	18544
867.841	18399
867.972	18566
868.103	18399
868.233	18486
868.364	18471
868.495	18597
868.625	18711
868.756	18791
868.886	18631
869.017	18856
869.147	18897
869.278	18837
869.408	18658
869.539	18734
869.669	18783
869.799	18916
869.929	18901
870.06	18810
870.19	19034
870.32	19053
870.45	19095
870.58	19088
870.71	19365
870.84	19266
870.97	19183
871.1	19244
871.23	19514
871.36	19396
871.489	19297
871.619	19297
871.749	19403
871.879	19335
872.008	19449
872.138	19415
872.267	19308
872.397	19438
872.526	19244
872.656	19202
872.785	19232
872.915	19335
873.044	19468
873.173	19388
873.303	19339
873.432	19499
873.561	19556
873.69	19487
873.819	19422
873.948	19544
874.077	19384
874.206	19324
874.335	19529
874.464	19499
874.593	19693
874.722	19624
874.851	19795
874.979	19693
875.108	19746
875.237	19567
875.365	19529
875.494	19575
875.623	19708
875.751	19624
875.88	19635
876.008	19795
876.136	19936
876.265	20149
876.393	20084
876.521	20180
876.65	20240
876.778	20134
876.906	20096
877.034	19959
877.162	20073
877.29	19898
877.418	20103
877.546	20001
877.674	20062
877.802	20111
877.93	20069
878.058	20077
878.185	20001
878.313	20008
878.441	19967
878.568	19765
878.696	20020
878.824	19970
878.951	20088
879.079	20187
879.206	20400
879.333	20221
879.461	20122
879.588	20168
879.715	20218
879.842	20309
879.97	20020
880.097	19932
880.224	19963
880.351	19780
880.478	19883
880.605	19841
880.732	19890
880.859	20103
880.986	19875
881.112	19921
881.239	19795
881.366	19616
881.493	19468
881.619	19506
881.746	19521
881.872	19453
881.999	19445
882.125	19373
882.252	19480
882.378	19407
882.505	19597
882.631	19476
882.757	19259
882.883	19411
883.01	19312
883.136	19145
883.262	19171
883.388	19076
883.514	19251
883.64	19426
883.766	19175
883.892	19061
884.018	19126
884.143	19255
884.269	19316
884.395	18973
884.52	18932
884.646	18973
884.772	18947
884.897	18837
885.023	18932
885.148	18958
885.274	19012
885.399	18985
885.524	18947
885.65	18848
885.775	18863
885.9	18962
886.025	18958
886.15	18993
886.275	18882
886.4	18768
886.525	18890
886.65	18707
886.775	18840
886.9	18924
887.025	18973
887.149	18802
887.274	18844
887.399	18715
887.523	18738
887.648	18673
887.773	18521
887.897	18726
888.021	18715
888.146	18616
888.27	18700
888.395	18890
888.519	18715
888.643	18669
888.767	18711
888.891	18578
889.015	18547
889.139	18490
889.263	18563
889.387	18555
889.511	18677
889.635	18517
889.759	18433
889.883	18342
890.006	18498
890.13	18582
890.254	18414
890.377	18323
890.501	18258
890.624	18270
890.748	18304
890.871	18243
890.995	17961
891.118	18026
891.241	18019
891.364	18129
891.488	18289
891.611	18083
891.734	18190
891.857	18159
891.98	18121
892.103	18087
892.226	18117
892.349	18049
892.471	17882
892.594	18121
892.717	18087
892.839	17954
892.962	18152
893.085	18159
893.207	18030
893.33	17942
893.452	17912
893.575	18106
893.697	18026
893.819	18110
893.941	18262
894.064	18152
894.186	17984
894.308	18030
894.43	18098
894.552	18182
894.674	18148
894.796	17954
894.918	18011
895.04	18011
895.161	18133
895.283	18136
895.405	18011
895.526	18007
895.648	18068
895.769	18049
895.891	18087
896.012	18106
896.134	18106
896.255	18186
896.376	18015
896.498	18152
896.619	18114
896.74	17980
896.861	18258
896.982	18498
897.103	18597
897.224	18315
897.345	18414
897.466	18285
897.587	18384
897.708	18532
897.828	18471
897.949	18372
898.07	18205
898.19	18262
898.311	18544
898.431	18376
898.552	18228
898.672	18407
898.792	18433
898.913	18365
899.033	18270
899.153	18167
899.273	18083
899.393	17999
899.513	18083
899.633	18079
899.753	18171
899.873	18095
899.993	18106
900.113	18098
900.232	18034
900.352	18083
900.472	17901
900.591	17878
900.711	17923
900.83	17931
900.95	18098
901.069	17942
901.189	17843
901.308	17562
901.427	17566
901.546	17448
901.665	17558
901.784	17665
901.904	17417
902.023	17284
902.141	17162
902.26	16991
902.379	17102
902.498	17117
902.617	16934
902.735	17124
902.854	17033
902.973	16957
903.091	16683
903.21	16763
903.328	16664
903.446	16611
903.565	16630
903.683	16618
903.801	16485
903.919	16554
904.038	16535
904.156	16363
904.274	16314
904.392	16352
904.51	16398
904.627	16272
904.745	16432
904.863	16386
904.981	16040
905.098	16017
905.216	15915
905.334	16029
905.451	15975
905.569	15979
905.686	16105
905.803	15983
905.921	15819
906.038	15949
906.155	15797
906.272	15781
906.389	15720
906.506	15538
906.623	15519
906.74	15504
906.857	15401
906.974	15481
907.091	15584
907.208	15576
907.324	15530
907.441	15401
907.557	15287
907.674	15260
907.79	15104
907.907	15256
908.023	15260
908.139	15207
908.256	15131
908.372	15157
908.488	15036
908.604	14986
908.72	14826
908.836	14914
908.952	14880
909.068	14960
909.184	14929
909.3	14861
909.415	14902
909.531	14864
909.647	14785
909.762	14708
909.878	14575
909.993	14689
910.108	14598
910.224	14571
910.339	14575
910.454	14571
910.57	14473
910.685	14454
910.8	14773
910.915	14579
911.03	14533
911.145	14328
911.259	14259
911.374	14164
911.489	14153
911.604	14206
911.718	14027
911.833	14096
911.947	13944
912.062	13852
912.176	13921
912.291	14088
912.405	13921
912.519	14081
912.633	14142
912.748	14130
912.862	13963
912.976	13887
913.09	13811
913.204	13616
913.318	13803
913.431	13909
913.545	13940
913.659	13902
913.772	13879
913.886	13750
914	13693
914.113	13734
914.226	13750
914.34	13849
914.453	13582
914.566	13700
914.68	13552
914.793	13529
914.906	13468
915.019	13369
915.132	13263
915.245	13209
915.358	13384
915.47	13324
915.583	13388
915.696	13438
915.809	13460
915.921	13472
916.034	13259
916.146	13263
916.259	13232
916.371	13312
916.483	13289
916.595	13213
916.708	13202
916.82	13289
916.932	13129
917.044	13171
917.156	13129
917.268	13065
917.38	13145
917.491	13012
917.603	13065
917.715	13095
917.826	13088
917.938	13000
918.049	12951
918.161	13038
918.272	13232
918.384	13202
918.495	13023
918.606	12928
918.717	12829
918.828	12863
918.939	12909
919.05	12779
919.161	12802
919.272	12585
919.383	12703
919.494	12867
919.604	13027
919.715	12897
919.826	12768
919.936	12757
920.047	12844
920.157	12878
920.267	13000
920.378	12707
920.488	12810
920.598	12996
920.708	13031
920.818	12989
920.928	12924
921.038	13122
921.148	13126
921.258	12730
921.368	12669
921.477	12654
921.587	12616
921.697	12433
921.806	12642
921.916	12399
922.025	12346
922.134	12209
922.244	12213
922.353	12334
922.462	12079
922.571	12060
922.68	11920
922.789	12015
922.898	11889
923.007	11775
923.116	11897
923.224	11783
923.333	11828
923.442	11786
923.55	11710
923.659	11790
923.767	11760
923.876	11634
923.984	11649
924.092	11638
924.201	11672
924.309	11653
924.417	11714
924.525	11649
924.633	11630
924.741	12483
924.849	11337
924.956	11524
925.064	11436
925.172	11360
925.279	11421
925.387	11440
925.494	11440
925.602	11539
925.709	11417
925.816	11337
925.924	11368
926.031	11425
926.138	11246
926.245	11318
926.352	11239
926.459	11455
926.566	11383
926.673	11288
926.779	11162
926.886	11189
926.993	11056
927.099	11029
927.206	10904
927.312	10919
927.419	11109
927.525	10968
927.631	11075
927.737	10934
927.843	10889
927.95	10725
928.056	10904
928.162	10904
928.267	10877
928.373	11615
928.479	10923
928.585	10694
928.69	10820
928.796	10866
928.901	10797
929.007	10615
929.112	10733
929.218	10733
929.323	10611
929.428	10634
929.533	10786
929.638	10550
929.743	10618
929.848	10675
929.953	10535
930.058	10432
930.163	10310
930.267	10398
930.372	10466
930.477	10253
930.581	10546
930.685	10428
930.79	10261
930.894	10211
930.998	10177
931.103	10306
931.207	10048
931.311	9899
931.415	9861
931.519	9587
931.623	9625
