Data from test_V78500241_3431.txt Node
Date: Fri Mar 25 15:33:45 CST 2022
User: usil
Spectrometer: V785-0024
Trigger mode: 0
Integration Time (sec): 4.000000E-1
Scans to average: 1
Nonlinearity correction enabled: false
Boxcar width: 0
Storing dark spectrum: false
XAxis mode: Wavelengths
Number of Pixels in Spectrum: 1024
>>>>>Begin Spectral Data<<<<<
801.071	27332
801.214	27214
801.356	26998
801.499	26979
801.641	26864
801.783	26659
801.926	26716
802.068	26644
802.211	26743
802.353	26644
802.496	26507
802.638	26476
802.78	26499
802.923	26248
803.065	26199
803.208	26374
803.35	26480
803.492	26609
803.635	26507
803.777	26495
803.919	26518
804.061	26963
804.204	26541
804.346	26480
804.488	26537
804.63	26457
804.773	26434
804.915	26636
805.057	26583
805.199	26648
805.341	26697
805.483	26758
805.626	26689
805.768	26705
805.91	26708
806.052	26735
806.194	26682
806.336	26883
806.478	26621
806.62	26575
806.762	26765
806.904	26956
807.046	27237
807.188	27058
807.33	27104
807.472	27131
807.614	26948
807.756	27024
807.898	26861
808.04	26891
808.182	26982
808.324	26823
808.465	26887
808.607	27199
808.749	27351
808.891	27291
809.033	27424
809.174	27431
809.316	27374
809.458	27256
809.6	27184
809.741	27420
809.883	27359
810.025	27591
810.166	27553
810.308	27477
810.45	27519
810.591	27447
810.733	27294
810.875	27283
811.016	27112
811.158	27055
811.299	27287
811.441	27367
811.582	27268
811.724	27135
811.865	27188
812.007	27249
812.148	27287
812.29	27233
812.431	27530
812.573	27458
812.714	27701
812.855	27682
812.997	27861
813.138	27892
813.279	27842
813.421	27762
813.562	27595
813.703	27557
813.845	27412
813.986	27287
814.127	27028
814.268	26811
814.41	26986
814.551	26925
814.692	27017
814.833	26739
814.974	26842
815.115	26918
815.256	26819
815.397	26621
815.539	26754
815.68	26659
815.821	26667
815.962	26758
816.103	26606
816.244	26495
816.385	26446
816.526	26393
816.666	26107
816.807	26153
816.948	26199
817.089	26202
817.23	26084
817.371	26172
817.512	26126
817.653	26084
817.793	26111
817.934	26142
818.075	26130
818.216	26221
818.356	26043
818.497	26027
818.638	26012
818.778	25944
818.919	25913
819.06	25966
819.2	26016
819.341	26096
819.481	26111
819.622	26240
819.762	26579
819.903	26271
820.043	26275
820.184	26385
820.324	26183
820.465	26358
820.605	26202
820.746	26263
820.886	26081
821.026	26286
821.167	26088
821.307	26237
821.447	26073
821.588	25978
821.728	25871
821.868	25818
822.008	25658
822.149	25616
822.289	25712
822.429	25377
822.569	25285
822.709	25221
822.849	25236
822.99	25099
823.13	25046
823.27	25065
823.41	24924
823.55	24920
823.69	24932
823.83	24947
823.97	24901
824.11	24749
824.25	24688
824.389	24757
824.529	24840
824.669	24825
824.809	24867
824.949	24814
825.089	24795
825.228	24692
825.368	24597
825.508	24616
825.648	24707
825.787	24669
825.927	24585
826.067	24688
826.206	24715
826.346	24635
826.485	24837
826.625	24616
826.765	24681
826.904	24589
827.044	24395
827.183	24433
827.323	24388
827.462	24376
827.601	24353
827.741	24391
827.88	24410
828.02	24243
828.159	24433
828.298	24395
828.437	24445
828.577	24270
828.716	24498
828.855	24209
828.994	24125
829.134	24117
829.273	24034
829.412	24136
829.551	24038
829.69	24159
829.829	24102
829.968	24167
830.107	24072
830.246	24163
830.385	23958
830.524	23912
830.663	23946
830.802	23794
830.941	23691
831.08	23611
831.219	23756
831.357	23889
831.496	23923
831.635	23649
831.774	23672
831.913	23699
832.051	23509
832.19	23543
832.329	23387
832.467	23425
832.606	23414
832.744	23261
832.883	23452
833.022	23429
833.16	23429
833.299	23368
833.437	23410
833.576	23467
833.714	23429
833.852	23444
833.991	23440
834.129	23562
834.267	23573
834.406	23356
834.544	23444
834.682	23474
834.821	23334
834.959	23471
835.097	23531
835.235	23448
835.373	23433
835.511	23482
835.65	23345
835.788	23410
835.926	23071
836.064	23128
836.202	23018
836.34	23296
836.478	23368
836.615	23200
836.753	23307
836.891	23341
837.029	23406
837.167	23231
837.305	23159
837.443	23124
837.58	23128
837.718	23311
837.856	23025
837.993	23098
838.131	23166
838.269	23128
838.406	23075
838.544	22820
838.681	22896
838.819	22748
838.956	22637
839.094	22584
839.231	22694
839.369	22793
839.506	22828
839.643	22862
839.781	22656
839.918	22694
840.055	22691
840.193	22611
840.33	22512
840.467	22584
840.604	22573
840.742	22755
840.879	22436
841.016	22493
841.153	22424
841.29	22611
841.427	22451
841.564	22554
841.701	22432
841.838	22542
841.975	22390
842.112	22428
842.249	22402
842.385	22280
842.522	22538
842.659	22363
842.796	22268
842.933	22352
843.069	22200
843.206	22204
843.343	22390
843.479	22310
843.616	22303
843.752	22078
843.889	22059
844.025	22306
844.162	22181
844.298	22314
844.435	22067
844.571	22086
844.708	22010
844.844	22291
844.98	22207
845.117	22196
845.253	22036
845.389	21956
845.525	22074
845.661	22116
845.798	21819
845.934	21861
846.07	21835
846.206	21781
846.342	21895
846.478	21762
846.614	21675
846.75	21481
846.886	21515
847.022	21698
847.158	21618
847.294	21568
847.429	21443
847.565	21572
847.701	21743
847.837	21218
847.972	21230
848.108	21454
848.244	21367
848.379	21150
848.515	21192
848.65	21108
848.786	21157
848.921	21294
849.057	21184
849.192	21169
849.328	21230
849.463	21173
849.598	21192
849.734	21077
849.869	20967
850.004	20876
850.14	20929
850.275	20921
850.41	21001
850.545	20986
850.68	20982
850.815	20971
850.95	21070
851.085	21112
851.22	21047
851.355	20956
851.49	20868
851.625	20891
851.76	20902
851.895	20785
852.03	20792
852.165	20971
852.299	20925
852.434	21020
852.569	20963
852.703	20937
852.838	20990
852.973	21085
853.107	21013
853.242	20921
853.376	20762
853.511	20571
853.645	20739
853.78	20876
853.914	20857
854.048	20617
854.183	20750
854.317	20796
854.451	21039
854.585	20762
854.72	20549
854.854	20792
854.988	20800
855.122	20659
855.256	20644
855.39	20788
855.524	20876
855.658	20849
855.792	20724
855.926	20765
856.06	20796
856.194	20830
856.327	20598
856.461	20724
856.595	20689
856.729	20651
856.862	20758
856.996	20705
857.13	20788
857.263	20933
857.397	20948
857.53	20625
857.664	20883
857.797	20807
857.931	20887
858.064	20689
858.197	20941
858.331	20705
858.464	20629
858.597	20701
858.731	20724
858.864	20720
858.997	20598
859.13	20693
859.263	20826
859.396	20785
859.529	20670
859.662	20750
859.795	20720
859.928	20720
860.061	20944
860.194	20979
860.327	20826
860.46	20845
860.592	20910
860.725	20880
860.858	20804
860.99	20849
861.123	20552
861.256	20625
861.388	20750
861.521	21329
861.653	20602
861.786	20446
861.918	20575
862.05	20632
862.183	20598
862.315	20750
862.447	20678
862.58	20590
862.712	20473
862.844	20514
862.976	20716
863.108	20579
863.24	21001
863.372	20374
863.504	20389
863.636	20351
863.768	20419
863.9	20434
864.032	20358
864.164	20507
864.296	20552
864.428	20503
864.559	20606
864.691	20533
864.823	20461
864.954	20454
865.086	20415
865.217	20434
865.349	20286
865.48	20385
865.612	20530
865.743	20492
865.875	20336
866.006	20282
866.137	20431
866.269	20408
866.4	20450
866.531	20362
866.662	20267
866.793	20355
866.924	20377
867.055	20431
867.186	20389
867.317	20282
867.448	20237
867.579	20317
867.71	20301
867.841	20267
867.972	20278
868.103	20385
868.233	20419
868.364	20366
868.495	20408
868.625	20545
868.756	20670
868.886	20423
869.017	20541
869.147	20640
869.278	20754
869.408	20541
869.539	20518
869.669	20655
869.799	20556
869.929	20629
870.06	20625
870.19	20929
870.32	20807
870.45	20872
870.58	21043
870.71	21074
870.84	21051
870.97	21005
871.1	20963
871.23	21112
871.36	21123
871.489	21176
871.619	21100
871.749	21055
871.879	21226
872.008	21188
872.138	21100
872.267	21093
872.397	21028
872.526	21024
872.656	21001
872.785	20979
872.915	21142
873.044	21180
873.173	21180
873.303	21142
873.432	21184
873.561	21283
873.69	21154
873.819	21211
873.948	21230
874.077	21157
874.206	21157
874.335	21157
874.464	21237
874.593	21496
874.722	21412
874.851	21568
874.979	21424
875.108	21435
875.237	21386
875.365	21329
875.494	21393
875.623	21561
875.751	21393
875.88	21408
876.008	21462
876.136	21656
876.265	21812
876.393	21983
876.521	21865
876.65	21991
876.778	21876
876.906	21755
877.034	21873
877.162	21899
877.29	21732
877.418	21656
877.546	21838
877.674	21838
877.802	21831
877.93	21713
878.058	21747
878.185	21709
878.313	21686
878.441	21766
878.568	21583
878.696	21755
878.824	21717
878.951	21831
879.079	22006
879.206	22154
879.333	21774
879.461	21816
879.588	21709
879.715	21979
879.842	22040
879.97	21835
880.097	21542
880.224	21496
880.351	21618
880.478	21603
880.605	21610
880.732	21580
880.859	21743
880.986	21625
881.112	21648
881.239	21454
881.366	21184
881.493	21283
881.619	21123
881.746	21203
881.872	21207
881.999	21055
882.125	21222
882.252	21207
882.378	21214
882.505	21302
882.631	21043
882.757	20914
882.883	20990
883.01	20948
883.136	20868
883.262	20785
883.388	20716
883.514	20876
883.64	20887
883.766	20880
883.892	20693
884.018	20686
884.143	20891
884.269	20994
884.395	20571
884.52	20511
884.646	20594
884.772	20446
884.897	20377
885.023	20495
885.148	20587
885.274	20625
885.399	20609
885.524	20476
885.65	20552
885.775	20587
885.9	20583
886.025	20705
886.15	20625
886.275	20507
886.4	20385
886.525	20381
886.65	20457
886.775	20347
886.9	20530
887.025	20609
887.149	20533
887.274	20328
887.399	20351
887.523	20385
887.648	20115
887.773	20290
887.897	20328
888.021	20385
888.146	20298
888.27	20328
888.395	20324
888.519	20252
888.643	20221
888.767	20389
888.891	20221
889.015	20199
889.139	20107
889.263	20088
889.387	20111
889.511	20282
889.635	20286
889.759	20092
889.883	20122
890.006	20043
890.13	20176
890.254	19982
890.377	19993
890.501	19841
890.624	19879
890.748	19913
890.871	19769
890.995	19666
891.118	19624
891.241	19693
891.364	19693
891.488	19803
891.611	19765
891.734	19723
891.857	19674
891.98	19811
892.103	19655
892.226	19658
892.349	19590
892.471	19537
892.594	19639
892.717	19635
892.839	19548
892.962	19643
893.085	19715
893.207	19647
893.33	19499
893.452	19525
893.575	19643
893.697	19666
893.819	19723
893.941	19894
894.064	19826
894.186	19567
894.308	19457
894.43	19738
894.552	19753
894.674	19708
894.796	19540
894.918	19681
895.04	19540
895.161	19750
895.283	19635
895.405	19533
895.526	19670
895.648	19666
895.769	19681
895.891	19647
896.012	19712
896.134	19594
896.255	19590
896.376	19662
896.498	19601
896.619	19731
896.74	19506
896.861	19643
896.982	19959
897.103	20043
897.224	20008
897.345	19928
897.466	19784
897.587	19883
897.708	19928
897.828	19856
897.949	19917
898.07	19594
898.19	19795
898.311	19944
898.431	19860
898.552	19959
898.672	19974
898.792	19731
898.913	19875
899.033	19685
899.153	19613
899.273	19510
899.393	19666
899.513	19613
899.633	19514
899.753	19609
899.873	19567
899.993	19643
900.113	19571
900.232	19540
900.352	19468
900.472	19362
900.591	19369
900.711	19460
900.83	19354
900.95	19441
901.069	19438
901.189	19312
901.308	19034
901.427	19069
901.546	18798
901.665	19042
901.784	19015
901.904	18837
902.023	18730
902.141	18540
902.26	18627
902.379	18502
902.498	18582
902.617	18525
902.735	18578
902.854	18388
902.973	18361
903.091	18163
903.21	18140
903.328	18247
903.446	18205
903.565	18114
903.683	17912
903.801	17923
903.919	17977
904.038	17889
904.156	17646
904.274	17855
904.392	17824
904.51	17707
904.627	17794
904.745	17718
904.863	17710
904.981	17520
905.098	17288
905.216	17395
905.334	17455
905.451	17398
905.569	17448
905.686	17486
905.803	17448
905.921	17265
906.038	17330
906.155	17280
906.272	17052
906.389	17098
906.506	16930
906.623	17014
906.74	16968
906.857	16866
906.974	16911
907.091	16991
907.208	17105
907.324	16980
907.441	16873
907.557	16626
907.674	16717
907.79	16603
907.907	16725
908.023	16656
908.139	16694
908.256	16630
908.372	16550
908.488	16558
908.604	16523
908.72	16413
908.836	16333
908.952	16360
909.068	16459
909.184	16478
909.3	16440
909.415	16409
909.531	16375
909.647	16147
909.762	16097
909.878	16139
909.993	16093
910.108	16196
910.224	16059
910.339	16109
910.454	15979
910.57	15926
910.685	15903
910.8	16158
910.915	16143
911.03	15975
911.145	15766
911.259	15854
911.374	15667
911.489	15572
911.604	15553
911.718	15477
911.833	15454
911.947	15416
912.062	15332
912.176	15496
912.291	15515
912.405	15416
912.519	15606
912.633	15599
912.748	15500
912.862	15431
912.976	15268
913.09	15119
913.204	15230
913.318	15264
913.431	15329
913.545	15496
913.659	15340
913.772	15237
913.886	15146
914	15047
914.113	15119
914.226	15283
914.34	15195
914.453	14948
914.566	15058
914.68	15001
914.793	14906
914.906	14765
915.019	14769
915.132	14674
915.245	14727
915.358	14670
915.47	14735
915.583	14758
915.696	14731
915.809	14773
915.921	14872
916.034	14613
916.146	14674
916.259	14556
916.371	14693
916.483	14724
916.595	14556
916.708	14594
916.82	14556
916.932	14568
917.044	14530
917.156	14404
917.268	14336
917.38	14393
917.491	14423
917.603	14336
917.715	14434
917.826	14423
917.938	14355
918.049	14164
918.161	14336
918.272	14358
918.384	14469
918.495	14301
918.606	14237
918.717	14073
918.828	14172
918.939	14134
919.05	14058
919.161	14065
919.272	14024
919.383	14050
919.494	14221
919.604	14355
919.715	14134
919.826	14100
919.936	14039
920.047	14191
920.157	14126
920.267	14328
920.378	14153
920.488	14050
920.598	14229
920.708	14339
920.818	14248
920.928	14294
921.038	14396
921.148	14408
921.258	14138
921.368	14001
921.477	13898
921.587	13909
921.697	13753
921.806	13913
921.916	13704
922.025	13521
922.134	13441
922.244	13506
922.353	13525
922.462	13434
922.571	13308
922.68	13187
922.789	13084
922.898	13270
923.007	13190
923.116	13190
923.224	13198
923.333	13126
923.442	12973
923.55	12958
923.659	13088
923.767	13046
923.876	12947
923.984	13034
924.092	12878
924.201	12958
924.309	12901
924.417	12932
924.525	12840
924.633	12844
924.741	13818
924.849	12665
924.956	12734
925.064	12612
925.172	12513
925.279	12589
925.387	12635
925.494	12620
925.602	12757
925.709	12684
925.816	12540
925.924	12566
926.031	12642
926.138	12502
926.245	12604
926.352	12384
926.459	12658
926.566	12681
926.673	12555
926.779	12422
926.886	12399
926.993	12194
927.099	12224
927.206	12205
927.312	12133
927.419	12311
927.525	12155
927.631	12228
927.737	12114
927.843	12049
927.95	11916
928.056	11999
928.162	12110
928.267	12079
928.373	12570
928.479	12095
928.585	11882
928.69	12110
928.796	12053
928.901	11874
929.007	11672
929.112	11843
929.218	11927
929.323	11821
929.428	11752
929.533	11912
929.638	11638
929.743	11695
929.848	11790
929.953	11794
930.058	11589
930.163	11497
930.267	11512
930.372	11566
930.477	11490
930.581	11722
930.685	11551
930.79	11398
930.894	11414
930.998	11330
931.103	11512
931.207	11124
931.311	11079
931.415	10930
931.519	10782
931.623	10748
