Data from test_V78500241_2815.txt Node
Date: Fri Mar 25 15:29:27 CST 2022
User: usil
Spectrometer: V785-0024
Trigger mode: 0
Integration Time (sec): 4.000000E-1
Scans to average: 1
Nonlinearity correction enabled: false
Boxcar width: 0
Storing dark spectrum: false
XAxis mode: Wavelengths
Number of Pixels in Spectrum: 1024
>>>>>Begin Spectral Data<<<<<
801.071	27157
801.214	27146
801.356	26868
801.499	26762
801.641	26769
801.783	26800
801.926	26758
802.068	26773
802.211	26602
802.353	26473
802.496	26355
802.638	26301
802.78	26412
802.923	26324
803.065	26164
803.208	26210
803.35	26313
803.492	26389
803.635	26412
803.777	26358
803.919	26625
804.061	26758
804.204	26526
804.346	26495
804.488	26396
804.63	26545
804.773	26393
804.915	26396
805.057	26484
805.199	26393
805.341	26457
805.483	26560
805.626	26522
805.768	26507
805.91	26686
806.052	26598
806.194	26484
806.336	26651
806.478	26499
806.62	26564
806.762	26842
806.904	26876
807.046	27173
807.188	27074
807.33	27093
807.472	26944
807.614	26765
807.756	26971
807.898	26845
808.04	26823
808.182	26864
808.324	26785
808.465	26735
808.607	26876
808.749	27085
808.891	27241
809.033	27424
809.174	27207
809.316	27043
809.458	27146
809.6	27047
809.741	27218
809.883	27233
810.025	27500
810.166	27389
810.308	27386
810.45	27378
810.591	27351
810.733	27294
810.875	27157
811.016	27093
811.158	27157
811.299	27275
811.441	27317
811.582	27306
811.724	27138
811.865	27024
812.007	27199
812.148	27146
812.29	27123
812.431	27443
812.573	27545
812.714	27507
812.855	27701
812.997	27762
813.138	27934
813.279	27728
813.421	27694
813.562	27572
813.703	27256
813.845	27306
813.986	27211
814.127	26876
814.268	26838
814.41	26823
814.551	26899
814.692	26906
814.833	26845
814.974	26758
815.115	26788
815.256	26800
815.397	26648
815.539	26773
815.68	26632
815.821	26533
815.962	26663
816.103	26511
816.244	26385
816.385	26404
816.526	26244
816.666	26096
816.807	26050
816.948	26054
817.089	26103
817.23	26153
817.371	26035
817.512	26142
817.653	26126
817.793	26008
817.934	25997
818.075	26062
818.216	26103
818.356	26020
818.497	25955
818.638	25795
818.778	25894
818.919	25799
819.06	25947
819.2	26024
819.341	26035
819.481	26008
819.622	26107
819.762	26495
819.903	26332
820.043	26218
820.184	26107
820.324	26199
820.465	26256
820.605	26225
820.746	26084
820.886	25871
821.026	26111
821.167	26020
821.307	26054
821.447	26005
821.588	25978
821.728	25974
821.868	25734
822.008	25499
822.149	25567
822.289	25575
822.429	25327
822.569	25228
822.709	25099
822.849	25129
822.99	25168
823.13	25103
823.27	25008
823.41	24814
823.55	24730
823.69	25012
823.83	24840
823.97	24814
824.11	24593
824.25	24612
824.389	24593
824.529	24738
824.669	24578
824.809	24928
824.949	24726
825.089	24677
825.228	24760
825.368	24544
825.508	24509
825.648	24570
825.787	24635
825.927	24536
826.067	24315
826.206	24547
826.346	24593
826.485	24559
826.625	24479
826.765	24776
826.904	24471
827.044	24209
827.183	24365
827.323	24243
827.462	24330
827.601	24110
827.741	24125
827.88	24350
828.02	24106
828.159	24152
828.298	24235
828.437	24304
828.577	24205
828.716	24296
828.855	24038
828.994	23821
829.134	24011
829.273	23980
829.412	23920
829.551	23882
829.69	23897
829.829	24083
829.968	23973
830.107	24068
830.246	24018
830.385	23817
830.524	23843
830.663	23760
830.802	23547
830.941	23501
831.08	23482
831.219	23627
831.357	23619
831.496	23745
831.635	23501
831.774	23493
831.913	23402
832.051	23383
832.19	23349
832.329	23322
832.467	23151
832.606	23159
832.744	23079
832.883	23170
833.022	23128
833.16	23261
833.299	23265
833.437	23235
833.576	23250
833.714	23162
833.852	23299
833.991	23364
834.129	23398
834.267	23326
834.406	23246
834.544	23364
834.682	23307
834.821	23239
834.959	23429
835.097	23299
835.235	23277
835.373	23284
835.511	23223
835.65	23113
835.788	23170
835.926	22946
836.064	22881
836.202	22915
836.34	23162
836.478	23265
836.615	23079
836.753	23117
836.891	23117
837.029	23136
837.167	23022
837.305	23075
837.443	22991
837.58	22835
837.718	23044
837.856	22850
837.993	22869
838.131	22904
838.269	22862
838.406	22771
838.544	22854
838.681	22618
838.819	22573
838.956	22428
839.094	22390
839.231	22451
839.369	22626
839.506	22866
839.643	22653
839.781	22466
839.918	22284
840.055	22436
840.193	22428
840.33	22402
840.467	22333
840.604	22405
840.742	22599
840.879	22101
841.016	22379
841.153	22348
841.29	22352
841.427	22459
841.564	22386
841.701	22238
841.838	22375
841.975	22223
842.112	22424
842.249	22211
842.385	22204
842.522	22421
842.659	22230
842.796	22067
842.933	22215
843.069	22124
843.206	22059
843.343	22223
843.479	22097
843.616	22173
843.752	21911
843.889	22010
844.025	22097
844.162	21892
844.298	22006
844.435	21888
844.571	21861
844.708	21918
844.844	22048
844.98	21930
845.117	21854
845.253	21774
845.389	21641
845.525	21869
845.661	21618
845.798	21629
845.934	21583
846.07	21599
846.206	21564
846.342	21713
846.478	21583
846.614	21458
846.75	21226
846.886	21351
847.022	21424
847.158	21469
847.294	21317
847.429	21458
847.565	21389
847.701	21572
847.837	20948
847.972	21020
848.108	21096
848.244	21249
848.379	21039
848.515	20971
848.65	21005
848.786	21001
848.921	21039
849.057	20998
849.192	21108
849.328	20933
849.463	20979
849.598	20918
849.734	20868
849.869	20838
850.004	20636
850.14	20678
850.275	20697
850.41	20621
850.545	20708
850.68	20632
850.815	20792
850.95	20678
851.085	20952
851.22	20807
851.355	20731
851.49	20701
851.625	20746
851.76	20659
851.895	20720
852.03	20606
852.165	20701
852.299	20765
852.434	20743
852.569	20712
852.703	20781
852.838	20845
852.973	20826
853.107	20811
853.242	20655
853.376	20545
853.511	20568
853.645	20499
853.78	20670
853.914	20564
854.048	20522
854.183	20454
854.317	20602
854.451	20678
854.585	20480
854.72	20446
854.854	20648
854.988	20545
855.122	20579
855.256	20507
855.39	20552
855.524	20648
855.658	20575
855.792	20495
855.926	20663
856.06	20552
856.194	20533
856.327	20526
856.461	20480
856.595	20457
856.729	20404
856.862	20564
856.996	20545
857.13	20617
857.263	20556
857.397	20762
857.53	20609
857.664	20533
857.797	20609
857.931	20689
858.064	20613
858.197	20659
858.331	20545
858.464	20374
858.597	20370
858.731	20568
858.864	20450
858.997	20434
859.13	20537
859.263	20564
859.396	20651
859.529	20526
859.662	20431
859.795	20385
859.928	20602
860.061	20689
860.194	20720
860.327	20651
860.46	20499
860.592	20613
860.725	20708
860.858	20568
860.99	20518
861.123	20396
861.256	20537
861.388	20621
861.521	21199
861.653	20427
861.786	20423
861.918	20389
862.05	20423
862.183	20465
862.315	20522
862.447	20651
862.58	20408
862.712	20248
862.844	20195
862.976	20290
863.108	20374
863.24	20667
863.372	20164
863.504	20225
863.636	20210
863.768	20434
863.9	20218
864.032	20191
864.164	20176
864.296	20305
864.428	20294
864.559	20408
864.691	20461
864.823	20278
864.954	20286
865.086	20237
865.217	20161
865.349	20168
865.48	20107
865.612	20278
865.743	20214
865.875	20210
866.006	20149
866.137	20225
866.269	20176
866.4	20039
866.531	20164
866.662	20107
866.793	20024
866.924	20081
867.055	20065
867.186	20187
867.317	20084
867.448	20020
867.579	20054
867.71	19947
867.841	20024
867.972	20088
868.103	20035
868.233	20107
868.364	20263
868.495	20199
868.625	20328
868.756	20446
868.886	20381
869.017	20419
869.147	20514
869.278	20454
869.408	20427
869.539	20396
869.669	20492
869.799	20469
869.929	20450
870.06	20522
870.19	20686
870.32	20731
870.45	20674
870.58	20678
870.71	20754
870.84	20868
870.97	20739
871.1	20777
871.23	20929
871.36	21043
871.489	21001
871.619	20921
871.749	20921
871.879	20929
872.008	21066
872.138	20971
872.267	20963
872.397	20868
872.526	20823
872.656	20689
872.785	20754
872.915	21028
873.044	21112
873.173	21028
873.303	21066
873.432	21093
873.561	21135
873.69	21032
873.819	21055
873.948	21032
874.077	21028
874.206	20914
874.335	21009
874.464	21089
874.593	21249
874.722	21176
874.851	21252
874.979	21188
875.108	21180
875.237	21142
875.365	21096
875.494	21184
875.623	21184
875.751	21222
875.88	21325
876.008	21412
876.136	21431
876.265	21690
876.393	21717
876.521	21671
876.65	21606
876.778	21682
876.906	21458
877.034	21572
877.162	21481
877.29	21542
877.418	21519
877.546	21614
877.674	21530
877.802	21599
877.93	21553
878.058	21481
878.185	21408
878.313	21507
878.441	21515
878.568	21370
878.696	21458
878.824	21663
878.951	21682
879.079	21808
879.206	21747
879.333	21660
879.461	21648
879.588	21591
879.715	21637
879.842	21812
879.97	21709
880.097	21386
880.224	21473
880.351	21416
880.478	21606
880.605	21348
880.732	21462
880.859	21652
880.986	21530
881.112	21412
881.239	21241
881.366	21112
881.493	21013
881.619	20979
881.746	21116
881.872	20948
881.999	20979
882.125	20838
882.252	20986
882.378	21013
882.505	20948
882.631	20815
882.757	20689
882.883	20773
883.01	20754
883.136	20705
883.262	20518
883.388	20530
883.514	20648
883.64	20876
883.766	20640
883.892	20480
884.018	20522
884.143	20632
884.269	20674
884.395	20370
884.52	20305
884.646	20396
884.772	20210
884.897	20218
885.023	20358
885.148	20511
885.274	20347
885.399	20396
885.524	20313
885.65	20298
885.775	20400
885.9	20404
886.025	20366
886.15	20454
886.275	20290
886.4	20301
886.525	20229
886.65	20393
886.775	20343
886.9	20434
887.025	20545
887.149	20248
887.274	20115
887.399	20005
887.523	20138
887.648	20145
887.773	19963
887.897	20305
888.021	20084
888.146	20008
888.27	20267
888.395	20081
888.519	20202
888.643	20149
888.767	20134
888.891	20024
889.015	19909
889.139	19986
889.263	19940
889.387	20062
889.511	20111
889.635	20130
889.759	19936
889.883	19898
890.006	19898
890.13	19970
890.254	19841
890.377	19898
890.501	19700
890.624	19647
890.748	19609
890.871	19628
890.995	19567
891.118	19491
891.241	19521
891.364	19582
891.488	19677
891.611	19415
891.734	19487
891.857	19647
891.98	19529
892.103	19590
892.226	19567
892.349	19563
892.471	19221
892.594	19415
892.717	19396
892.839	19301
892.962	19396
893.085	19400
893.207	19491
893.33	19411
893.452	19411
893.575	19434
893.697	19346
893.819	19632
893.941	19537
894.064	19556
894.186	19419
894.308	19350
894.43	19609
894.552	19537
894.674	19529
894.796	19377
894.918	19449
895.04	19438
895.161	19483
895.283	19468
895.405	19358
895.526	19327
895.648	19381
895.769	19499
895.891	19419
896.012	19518
896.134	19540
896.255	19438
896.376	19354
896.498	19343
896.619	19449
896.74	19468
896.861	19411
896.982	19909
897.103	19913
897.224	19670
897.345	19708
897.466	19601
897.587	19734
897.708	19769
897.828	19632
897.949	19533
898.07	19533
898.19	19734
898.311	19613
898.431	19578
898.552	19727
898.672	19696
898.792	19700
898.913	19662
899.033	19586
899.153	19571
899.273	19472
899.393	19403
899.513	19422
899.633	19476
899.753	19480
899.873	19362
899.993	19457
900.113	19244
900.232	19320
900.352	19266
900.472	19282
900.591	19244
900.711	19175
900.83	19091
900.95	19297
901.069	19331
901.189	19084
901.308	18928
901.427	18760
901.546	18837
901.665	18837
901.784	18886
901.904	18722
902.023	18681
902.141	18483
902.26	18281
902.379	18357
902.498	18490
902.617	18285
902.735	18376
902.854	18372
902.973	18220
903.091	17973
903.21	18045
903.328	18015
903.446	17961
903.565	17893
903.683	17855
903.801	17668
903.919	17851
904.038	17798
904.156	17661
904.274	17691
904.392	17528
904.51	17604
904.627	17615
904.745	17623
904.863	17585
904.981	17421
905.098	17311
905.216	17277
905.334	17345
905.451	17220
905.569	17155
905.686	17330
905.803	17250
905.921	16972
906.038	17090
906.155	17098
906.272	17018
906.389	16976
906.506	16782
906.623	16824
906.74	16805
906.857	16759
906.974	16668
907.091	16965
907.208	16911
907.324	16820
907.441	16774
907.557	16538
907.674	16538
907.79	16523
907.907	16504
908.023	16497
908.139	16500
908.256	16440
908.372	16405
908.488	16440
908.604	16363
908.72	16215
908.836	16226
908.952	16242
909.068	16299
909.184	16284
909.3	16181
909.415	16223
909.531	16215
909.647	16010
909.762	16013
909.878	15888
909.993	15987
910.108	15937
910.224	16013
910.339	15850
910.454	15888
910.57	15831
910.685	15739
910.8	16063
910.915	15960
911.03	15770
911.145	15625
911.259	15530
911.374	15587
911.489	15542
911.604	15507
911.718	15363
911.833	15283
911.947	15249
912.062	15176
912.176	15283
912.291	15313
912.405	15313
912.519	15606
912.633	15481
912.748	15302
912.862	15359
912.976	15245
913.09	15112
913.204	15066
913.318	15180
913.431	15161
913.545	15176
913.659	15264
913.772	15066
913.886	14876
914	14853
914.113	15062
914.226	15001
914.34	15043
914.453	14937
914.566	14929
914.68	14830
914.793	14823
914.906	14648
915.019	14556
915.132	14522
915.245	14488
915.358	14484
915.47	14511
915.583	14587
915.696	14571
915.809	14724
915.921	14689
916.034	14415
916.146	14484
916.259	14442
916.371	14511
916.483	14404
916.595	14389
916.708	14389
916.82	14434
916.932	14400
917.044	14396
917.156	14339
917.268	14218
917.38	14248
917.491	14214
917.603	14263
917.715	14305
917.826	14248
917.938	14221
918.049	14100
918.161	14225
918.272	14347
918.384	14343
918.495	14237
918.606	14043
918.717	14008
918.828	14134
918.939	14058
919.05	13970
919.161	13997
919.272	13791
919.383	13864
919.494	13989
919.604	14229
919.715	13982
919.826	14058
919.936	13982
920.047	14035
920.157	14016
920.267	14142
920.378	13978
920.488	13925
920.598	14062
920.708	14248
920.818	14149
920.928	14134
921.038	14290
921.148	14210
921.258	13944
921.368	13902
921.477	13947
921.587	13693
921.697	13544
921.806	13674
921.916	13582
922.025	13506
922.134	13422
922.244	13369
922.353	13419
922.462	13244
922.571	13202
922.68	13012
922.789	13072
922.898	13057
923.007	13015
923.116	13008
923.224	13053
923.333	12954
923.442	12958
923.55	12806
923.659	12878
923.767	12882
923.876	12863
923.984	12924
924.092	12719
924.201	12821
924.309	12741
924.417	12779
924.525	12715
924.633	12806
924.741	13426
924.849	12559
924.956	12738
925.064	12448
925.172	12410
925.279	12433
925.387	12555
925.494	12471
925.602	12646
925.709	12536
925.816	12388
925.924	12414
926.031	12513
926.138	12399
926.245	12528
926.352	12315
926.459	12410
926.566	12483
926.673	12323
926.779	12194
926.886	12251
926.993	12121
927.099	12140
927.206	12072
927.312	11965
927.419	12026
927.525	12091
927.631	12129
927.737	11927
927.843	11958
927.95	11824
928.056	11889
928.162	11897
928.267	11923
928.373	12475
928.479	11958
928.585	11752
928.69	11851
928.796	11889
928.901	11790
929.007	11653
929.112	11680
929.218	11623
929.323	11691
929.428	11585
929.533	11851
929.638	11558
929.743	11585
929.848	11714
929.953	11558
930.058	11505
930.163	11353
930.267	11364
930.372	11421
930.477	11353
930.581	11528
930.685	11345
930.79	11185
930.894	11250
930.998	11258
931.103	11269
931.207	11033
931.311	10843
931.415	10812
931.519	10592
931.623	10645
