Data from test_V78500241_2234.txt Node
Date: Fri Mar 25 15:25:24 CST 2022
User: usil
Spectrometer: V785-0024
Trigger mode: 0
Integration Time (sec): 4.000000E-1
Scans to average: 1
Nonlinearity correction enabled: false
Boxcar width: 0
Storing dark spectrum: false
XAxis mode: Wavelengths
Number of Pixels in Spectrum: 1024
>>>>>Begin Spectral Data<<<<<
801.071	27755
801.214	27629
801.356	27618
801.499	27408
801.641	27405
801.783	27207
801.926	27348
802.068	27283
802.211	27291
802.353	27180
802.496	27055
802.638	27020
802.78	26861
802.923	26971
803.065	26811
803.208	26864
803.35	26994
803.492	27192
803.635	27024
803.777	26975
803.919	27245
804.061	27466
804.204	27211
804.346	27131
804.488	27047
804.63	27112
804.773	27051
804.915	27207
805.057	27192
805.199	27195
805.341	27195
805.483	27252
805.626	27275
805.768	27154
805.91	27180
806.052	27340
806.194	27211
806.336	27443
806.478	27424
806.62	27142
806.762	27431
806.904	27405
807.046	27690
807.188	27694
807.33	27705
807.472	27747
807.614	27755
807.756	27789
807.898	27595
808.04	27530
808.182	27583
808.324	27496
808.465	27614
808.607	27835
808.749	28109
808.891	28162
809.033	28070
809.174	28002
809.316	27808
809.458	27884
809.6	28006
809.741	27998
809.883	28143
810.025	28150
810.166	28097
810.308	28200
810.45	28139
810.591	28040
810.733	28010
810.875	27941
811.016	27732
811.158	27804
811.299	27975
811.441	28143
811.582	28032
811.724	27907
811.865	27911
812.007	27739
812.148	27850
812.29	27998
812.431	28109
812.573	28257
812.714	28329
812.855	28329
812.997	28577
813.138	28694
813.279	28580
813.421	28466
813.562	28394
813.703	28135
813.845	28067
813.986	27873
814.127	27785
814.268	27538
814.41	27557
814.551	27656
814.692	27580
814.833	27496
814.974	27553
815.115	27458
815.256	27511
815.397	27405
815.539	27405
815.68	27424
815.821	27272
815.962	27420
816.103	27260
816.244	27245
816.385	27176
816.526	27104
816.666	27085
816.807	26785
816.948	26880
817.089	26998
817.23	26857
817.371	26849
817.512	26834
817.653	26743
817.793	26804
817.934	26857
818.075	26830
818.216	26815
818.356	26940
818.497	26727
818.638	26629
818.778	26590
818.919	26545
819.06	26564
819.2	26743
819.341	26807
819.481	26823
819.622	27020
819.762	27123
819.903	27142
820.043	27222
820.184	26956
820.324	26948
820.465	26990
820.605	27036
820.746	26960
820.886	26781
821.026	26830
821.167	26925
821.307	26986
821.447	26956
821.588	26765
821.728	26560
821.868	26549
822.008	26298
822.149	26298
822.289	26229
822.429	26107
822.569	26092
822.709	26100
822.849	25818
822.99	25753
823.13	25769
823.27	25750
823.41	25594
823.55	25491
823.69	25559
823.83	25594
823.97	25719
824.11	25445
824.25	25343
824.389	25441
824.529	25343
824.669	25301
824.809	25597
824.949	25487
825.089	25491
825.228	25521
825.368	25491
825.508	25293
825.648	25369
825.787	25343
825.927	25415
826.067	25331
826.206	25381
826.346	25259
826.485	25335
826.625	25316
826.765	25464
826.904	25346
827.044	25152
827.183	25133
827.323	24905
827.462	25084
827.601	25046
827.741	24989
827.88	25091
828.02	24852
828.159	24977
828.298	25069
828.437	25061
828.577	24958
828.716	25088
828.855	25012
828.994	24726
829.134	24848
829.273	24856
829.412	24700
829.551	24688
829.69	24673
829.829	24654
829.968	24837
830.107	24692
830.246	24734
830.385	24646
830.524	24547
830.663	24532
830.802	24483
830.941	24254
831.08	24277
831.219	24365
831.357	24437
831.496	24418
831.635	24304
831.774	24296
831.913	24182
832.051	24110
832.19	24079
832.329	24182
832.467	23908
832.606	23916
832.744	23920
832.883	23950
833.022	23904
833.16	24076
833.299	24178
833.437	23965
833.576	24034
833.714	24018
833.852	24129
833.991	24098
834.129	24277
834.267	24068
834.406	24110
834.544	24140
834.682	23992
834.821	24007
834.959	24239
835.097	24076
835.235	24102
835.373	24095
835.511	23863
835.65	23851
835.788	23939
835.926	23783
836.064	23710
836.202	23684
836.34	23912
836.478	23946
836.615	23897
836.753	23874
836.891	23923
837.029	23821
837.167	23863
837.305	23809
837.443	23817
837.58	23733
837.718	23665
837.856	23824
837.993	23729
838.131	23775
838.269	23653
838.406	23611
838.544	23589
838.681	23368
838.819	23341
838.956	23197
839.094	23235
839.231	23242
839.369	23493
839.506	23581
839.643	23505
839.781	23197
839.918	23075
840.055	23185
840.193	23166
840.33	23109
840.467	22968
840.604	23151
840.742	23326
840.879	22934
841.016	22927
841.153	22946
841.29	23307
841.427	23090
841.564	23200
841.701	23037
841.838	23041
841.975	22987
842.112	22987
842.249	22919
842.385	22904
842.522	23121
842.659	22850
842.796	22850
842.933	22930
843.069	22877
843.206	22850
843.343	22900
843.479	22930
843.616	22869
843.752	22656
843.889	22573
844.025	22839
844.162	22706
844.298	22763
844.435	22592
844.571	22645
844.708	22622
844.844	22824
844.98	22630
845.117	22607
845.253	22440
845.389	22451
845.525	22493
845.661	22413
845.798	22242
845.934	22314
846.07	22424
846.206	22382
846.342	22500
846.478	22318
846.614	22093
846.75	22120
846.886	22207
847.022	22044
847.158	22162
847.294	22093
847.429	22139
847.565	22059
847.701	22329
847.837	21759
847.972	21732
848.108	21804
848.244	21960
848.379	21823
848.515	21713
848.65	21720
848.786	21652
848.921	21720
849.057	21732
849.192	21850
849.328	21842
849.463	21781
849.598	21587
849.734	21599
849.869	21511
850.004	21424
850.14	21424
850.275	21363
850.41	21310
850.545	21447
850.68	21355
850.815	21481
850.95	21405
851.085	21572
851.22	21610
851.355	21466
851.49	21500
851.625	21408
851.76	21466
851.895	21351
852.03	21291
852.165	21428
852.299	21420
852.434	21568
852.569	21507
852.703	21359
852.838	21450
852.973	21454
853.107	21519
853.242	21397
853.376	21374
853.511	21180
853.645	21275
853.78	21355
853.914	21355
854.048	21226
854.183	21237
854.317	21226
854.451	21545
854.585	21313
854.72	21230
854.854	21321
854.988	21268
855.122	21302
855.256	21237
855.39	21195
855.524	21393
855.658	21249
855.792	21207
855.926	21325
856.06	21370
856.194	21408
856.327	21214
856.461	21188
856.595	21336
856.729	21310
856.862	21294
856.996	21332
857.13	21283
857.263	21336
857.397	21275
857.53	21264
857.664	21386
857.797	21367
857.931	21359
858.064	21363
858.197	21370
858.331	21233
858.464	21203
858.597	21119
858.731	21272
858.864	21150
858.997	21370
859.13	21287
859.263	21256
859.396	21310
859.529	21329
859.662	21233
859.795	21188
859.928	21161
860.061	21416
860.194	21534
860.327	21344
860.46	21348
860.592	21397
860.725	21431
860.858	21431
860.99	21302
861.123	21169
861.256	21176
861.388	21256
861.521	21983
861.653	21222
861.786	21123
861.918	21077
862.05	21192
862.183	21249
862.315	21256
862.447	21226
862.58	21192
862.712	20853
862.844	21070
862.976	21062
863.108	20948
863.24	21260
863.372	20902
863.504	20979
863.636	20967
863.768	20956
863.9	21043
864.032	20914
864.164	20956
864.296	21043
864.428	21032
864.559	21066
864.691	21055
864.823	21066
864.954	20918
865.086	20998
865.217	20857
865.349	20796
865.48	20872
865.612	20861
865.743	21066
865.875	20758
866.006	20910
866.137	20769
866.269	20811
866.4	20845
866.531	20754
866.662	20773
866.793	20800
866.924	20765
867.055	20895
867.186	20750
867.317	20918
867.448	20697
867.579	20781
867.71	20651
867.841	20724
867.972	20857
868.103	20872
868.233	20815
868.364	20727
868.495	20861
868.625	20952
868.756	21135
868.886	20906
869.017	21157
869.147	21127
869.278	21211
869.408	21074
869.539	21085
869.669	21051
869.799	20986
869.929	21154
870.06	21165
870.19	21378
870.32	21256
870.45	21340
870.58	21424
870.71	21644
870.84	21469
870.97	21447
871.1	21370
871.23	21728
871.36	21587
871.489	21625
871.619	21675
871.749	21587
871.879	21656
872.008	21694
872.138	21656
872.267	21587
872.397	21466
872.526	21553
872.656	21557
872.785	21511
872.915	21701
873.044	21724
873.173	21694
873.303	21762
873.432	21743
873.561	21652
873.69	21728
873.819	21622
873.948	21781
874.077	21591
874.206	21564
874.335	21622
874.464	21778
874.593	21892
874.722	21846
874.851	21994
874.979	21972
875.108	21911
875.237	21709
875.365	21812
875.494	21797
875.623	21873
875.751	21865
875.88	21972
876.008	21987
876.136	22082
876.265	22287
876.393	22352
876.521	22356
876.65	22314
876.778	22215
876.906	22246
877.034	22344
877.162	22325
877.29	22070
877.418	22234
877.546	22287
877.674	22074
877.802	22200
877.93	22318
878.058	22223
878.185	22158
878.313	22021
878.441	22055
878.568	22074
878.696	22109
878.824	22204
878.951	22356
879.079	22432
879.206	22470
879.333	22379
879.461	22238
879.588	22280
879.715	22436
879.842	22500
879.97	22360
880.097	22040
880.224	22051
880.351	22120
880.478	22116
880.605	22116
880.732	22116
880.859	22169
880.986	22139
881.112	22101
881.239	22013
881.366	21724
881.493	21705
881.619	21728
881.746	21778
881.872	21568
881.999	21496
882.125	21504
882.252	21720
882.378	21530
882.505	21675
882.631	21386
882.757	21458
882.883	21348
883.01	21378
883.136	21214
883.262	21169
883.388	21184
883.514	21332
883.64	21355
883.766	21222
883.892	21138
884.018	21165
884.143	21264
884.269	21317
884.395	21028
884.52	20834
884.646	21051
884.772	20956
884.897	20876
885.023	20868
885.148	21093
885.274	21055
885.399	20982
885.524	21020
885.65	21009
885.775	20986
885.9	20994
886.025	21047
886.15	20933
886.275	20864
886.4	20891
886.525	20986
886.65	20933
886.775	20956
886.9	21100
887.025	21226
887.149	20910
887.274	20845
887.399	20785
887.523	20804
887.648	20663
887.773	20590
887.897	20781
888.021	20842
888.146	20670
888.27	20883
888.395	20815
888.519	20739
888.643	20693
888.767	20899
888.891	20518
889.015	20533
889.139	20648
889.263	20556
889.387	20640
889.511	20689
889.635	20781
889.759	20644
889.883	20499
890.006	20571
890.13	20651
890.254	20507
890.377	20412
890.501	20248
890.624	20252
890.748	20263
890.871	20206
890.995	20153
891.118	20122
891.241	20225
891.364	20088
891.488	20199
891.611	20119
891.734	20149
891.857	20142
891.98	20027
892.103	20107
892.226	20065
892.349	20005
892.471	19947
892.594	19932
892.717	20088
892.839	20005
892.962	20001
893.085	20001
893.207	20001
893.33	19833
893.452	19982
893.575	20065
893.697	19959
893.819	20142
893.941	20267
894.064	20138
894.186	19913
894.308	19955
894.43	20016
894.552	20130
894.674	20039
894.796	19925
894.918	19997
895.04	19955
895.161	20149
895.283	20134
895.405	19932
895.526	20043
895.648	19974
895.769	20096
895.891	19967
896.012	20161
896.134	20031
896.255	20237
896.376	19879
896.498	20119
896.619	20031
896.74	20077
896.861	20016
896.982	20370
897.103	20499
897.224	20351
897.345	20294
897.466	20195
897.587	20351
897.708	20427
897.828	20248
897.949	20218
898.07	20237
898.19	20164
898.311	20305
898.431	20343
898.552	20263
898.672	20271
898.792	20343
898.913	20332
899.033	20142
899.153	20195
899.273	19932
899.393	20024
899.513	20020
899.633	20024
899.753	20069
899.873	19746
899.993	20035
900.113	19947
900.232	20035
900.352	19925
900.472	19925
900.591	19864
900.711	19784
900.83	19780
900.95	19769
901.069	19940
901.189	19666
901.308	19502
901.427	19278
901.546	19312
901.665	19324
901.784	19453
901.904	19289
902.023	19008
902.141	19004
902.26	18833
902.379	18897
902.498	19004
902.617	18764
902.735	18951
902.854	18886
902.973	18791
903.091	18639
903.21	18585
903.328	18528
903.446	18563
903.565	18353
903.683	18513
903.801	18228
903.919	18247
904.038	18262
904.156	18087
904.274	18186
904.392	18026
904.51	18194
904.627	18220
904.745	18076
904.863	18068
904.981	18026
905.098	17783
905.216	17748
905.334	17813
905.451	17946
905.569	17745
905.686	17859
905.803	17699
905.921	17520
906.038	17687
906.155	17600
906.272	17512
906.389	17482
906.506	17303
906.623	17368
906.74	17368
906.857	17166
906.974	17208
907.091	17288
907.208	17474
907.324	17330
907.441	17216
907.557	16999
907.674	17098
907.79	16995
907.907	16919
908.023	16953
908.139	17029
908.256	17147
908.372	16946
908.488	16885
908.604	16748
908.72	16793
908.836	16809
908.952	16793
909.068	16767
909.184	16831
909.3	16713
909.415	16824
909.531	16812
909.647	16535
909.762	16451
909.878	16504
909.993	16538
910.108	16405
910.224	16398
910.339	16481
910.454	16265
910.57	16299
910.685	16090
910.8	16580
910.915	16337
911.03	16188
911.145	16055
911.259	16059
911.374	16105
911.489	16131
911.604	15987
911.718	15831
911.833	15831
911.947	15660
912.062	15690
912.176	15823
912.291	15823
912.405	15778
912.519	15953
912.633	15930
912.748	15842
912.862	15629
912.976	15633
913.09	15549
913.204	15603
913.318	15606
913.431	15633
913.545	15682
913.659	15793
913.772	15557
913.886	15424
914	15389
914.113	15435
914.226	15454
914.34	15439
914.453	15351
914.566	15443
914.68	15272
914.793	15252
914.906	15131
915.019	15081
915.132	14933
915.245	15036
915.358	15062
915.47	14971
915.583	15188
915.696	15017
915.809	15058
915.921	15222
916.034	14937
916.146	14853
916.259	14906
916.371	15093
916.483	14963
916.595	14902
916.708	14914
916.82	14883
916.932	14750
917.044	14796
917.156	14785
917.268	14682
917.38	14689
917.491	14686
917.603	14590
917.715	14788
917.826	14773
917.938	14663
918.049	14511
918.161	14644
918.272	14705
918.384	14670
918.495	14610
918.606	14461
918.717	14419
918.828	14503
918.939	14514
919.05	14305
919.161	14438
919.272	14294
919.383	14282
919.494	14484
919.604	14659
919.715	14446
919.826	14221
919.936	14423
920.047	14507
920.157	14328
920.267	14552
920.378	14320
920.488	14309
920.598	14526
920.708	14693
920.818	14560
920.928	14522
921.038	14674
921.148	14568
921.258	14431
921.368	14317
921.477	14153
921.587	14168
921.697	13997
921.806	14103
921.916	13993
922.025	13890
922.134	13803
922.244	13753
922.353	13814
922.462	13693
922.571	13719
922.68	13495
922.789	13445
922.898	13495
923.007	13362
923.116	13422
923.224	13411
923.333	13460
923.442	13304
923.55	13244
923.659	13316
923.767	13324
923.876	13270
923.984	13339
924.092	13126
924.201	13312
924.309	13149
924.417	13152
924.525	13156
924.633	13187
924.741	13837
924.849	12909
924.956	13057
925.064	12913
925.172	12882
925.279	12791
925.387	12962
925.494	12932
925.602	13046
925.709	12970
925.816	12642
925.924	12787
926.031	12897
926.138	12715
926.245	12871
926.352	12749
926.459	12920
926.566	12935
926.673	12688
926.779	12669
926.886	12692
926.993	12460
927.099	12502
927.206	12308
927.312	12395
927.419	12437
927.525	12433
927.631	12448
927.737	12315
927.843	12254
927.95	12171
928.056	12232
928.162	12205
928.267	12380
928.373	12924
928.479	12334
928.585	12079
928.69	12220
928.796	12273
928.901	12026
929.007	11904
929.112	12167
929.218	12175
929.323	12098
929.428	12015
929.533	12030
929.638	11908
929.743	11969
929.848	11999
929.953	11950
930.058	11832
930.163	11661
930.267	11737
930.372	11870
930.477	11714
930.581	11843
930.685	11733
930.79	11554
930.894	11638
930.998	11539
931.103	11657
931.207	11391
931.311	11193
931.415	11136
931.519	10999
931.623	10946
