Data from test_V78500241_2237.txt Node
Date: Fri Mar 25 15:25:26 CST 2022
User: usil
Spectrometer: V785-0024
Trigger mode: 0
Integration Time (sec): 4.000000E-1
Scans to average: 1
Nonlinearity correction enabled: false
Boxcar width: 0
Storing dark spectrum: false
XAxis mode: Wavelengths
Number of Pixels in Spectrum: 1024
>>>>>Begin Spectral Data<<<<<
801.071	27812
801.214	27732
801.356	27656
801.499	27564
801.641	27321
801.783	27256
801.926	27420
802.068	27317
802.211	27329
802.353	27211
802.496	27013
802.638	26982
802.78	26902
802.923	26883
803.065	26880
803.208	26834
803.35	27005
803.492	27184
803.635	27161
803.777	27055
803.919	27055
804.061	27355
804.204	27188
804.346	27089
804.488	27131
804.63	27123
804.773	27043
804.915	27207
805.057	27279
805.199	27157
805.341	27195
805.483	27188
805.626	27230
805.768	27192
805.91	27344
806.052	27302
806.194	27203
806.336	27393
806.478	27279
806.62	27268
806.762	27317
806.904	27576
807.046	27705
807.188	27660
807.33	27747
807.472	27789
807.614	27622
807.756	27717
807.898	27504
808.04	27511
808.182	27526
808.324	27610
808.465	27671
808.607	27778
808.749	27869
808.891	28013
809.033	27945
809.174	27945
809.316	27781
809.458	27994
809.6	27812
809.741	28173
809.883	27979
810.025	28238
810.166	28169
810.308	28242
810.45	28093
810.591	27983
810.733	27926
810.875	27728
811.016	27846
811.158	27797
811.299	28002
811.441	28029
811.582	28029
811.724	28006
811.865	27800
812.007	27956
812.148	27854
812.29	27987
812.431	28147
812.573	28242
812.714	28322
812.855	28413
812.997	28405
813.138	28580
813.279	28569
813.421	28500
813.562	28352
813.703	28295
813.845	28211
813.986	27838
814.127	27766
814.268	27652
814.41	27530
814.551	27652
814.692	27587
814.833	27622
814.974	27530
815.115	27549
815.256	27549
815.397	27439
815.539	27526
815.68	27416
815.821	27291
815.962	27302
816.103	27321
816.244	27351
816.385	27047
816.526	27211
816.666	27100
816.807	26792
816.948	26948
817.089	27024
817.23	26956
817.371	26925
817.512	26887
817.653	26773
817.793	26720
817.934	26765
818.075	26861
818.216	26853
818.356	26800
818.497	26754
818.638	26575
818.778	26530
818.919	26689
819.06	26632
819.2	26724
819.341	26899
819.481	26792
819.622	27005
819.762	27241
819.903	27112
820.043	27100
820.184	26994
820.324	26982
820.465	26967
820.605	27036
820.746	26872
820.886	26994
821.026	26975
821.167	26895
821.307	27055
821.447	26838
821.588	26811
821.728	26625
821.868	26423
822.008	26374
822.149	26317
822.289	26377
822.429	26043
822.569	25974
822.709	26077
822.849	25860
822.99	26005
823.13	25845
823.27	25883
823.41	25624
823.55	25567
823.69	25647
823.83	25727
823.97	25651
824.11	25449
824.25	25400
824.389	25529
824.529	25563
824.669	25487
824.809	25594
824.949	25552
825.089	25445
825.228	25460
825.368	25244
825.508	25388
825.648	25377
825.787	25343
825.927	25331
826.067	25324
826.206	25293
826.346	25377
826.485	25362
826.625	25339
826.765	25487
826.904	25263
827.044	25091
827.183	25095
827.323	25053
827.462	24981
827.601	25065
827.741	24932
827.88	25019
828.02	24745
828.159	25053
828.298	25057
828.437	25050
828.577	25031
828.716	25126
828.855	24935
828.994	24741
829.134	24798
829.273	24817
829.412	24692
829.551	24665
829.69	24734
829.829	24741
829.968	24837
830.107	24745
830.246	24764
830.385	24635
830.524	24795
830.663	24498
830.802	24437
830.941	24441
831.08	24376
831.219	24380
831.357	24441
831.496	24593
831.635	24361
831.774	24384
831.913	24235
832.051	24057
832.19	24136
832.329	24102
832.467	24129
832.606	23920
832.744	23935
832.883	23977
833.022	23931
833.16	24053
833.299	24197
833.437	24136
833.576	24102
833.714	24209
833.852	24095
833.991	24117
834.129	24106
834.267	24098
834.406	24091
834.544	24159
834.682	24057
834.821	24098
834.959	24251
835.097	23999
835.235	24110
835.373	24072
835.511	24041
835.65	23840
835.788	23927
835.926	23828
836.064	23596
836.202	23737
836.34	23908
836.478	23996
836.615	23847
836.753	23870
836.891	24038
837.029	23836
837.167	23984
837.305	23790
837.443	23786
837.58	23657
837.718	23790
837.856	23741
837.993	23661
838.131	23722
838.269	23611
838.406	23676
838.544	23383
838.681	23406
838.819	23242
838.956	23189
839.094	23208
839.231	23372
839.369	23410
839.506	23573
839.643	23509
839.781	23277
839.918	23098
840.055	23273
840.193	23216
840.33	22991
840.467	23132
840.604	23052
840.742	23345
840.879	23056
841.016	23022
841.153	22984
841.29	23128
841.427	23083
841.564	23128
841.701	22972
841.838	23223
841.975	22949
842.112	22995
842.249	23022
842.385	22869
842.522	23109
842.659	22976
842.796	22767
842.933	22976
843.069	22679
843.206	22930
843.343	22843
843.479	22809
843.616	22904
843.752	22672
843.889	22721
844.025	22725
844.162	22622
844.298	22809
844.435	22554
844.571	22637
844.708	22752
844.844	22752
844.98	22797
845.117	22824
845.253	22554
845.389	22694
845.525	22706
845.661	22497
845.798	22379
845.934	22421
846.07	22329
846.206	22531
846.342	22447
846.478	22348
846.614	22162
846.75	22238
846.886	22120
847.022	22226
847.158	22124
847.294	22116
847.429	22131
847.565	22036
847.701	22382
847.837	21892
847.972	21789
848.108	21972
848.244	21987
848.379	21789
848.515	21679
848.65	21701
848.786	21701
848.921	21743
849.057	21884
849.192	21823
849.328	21812
849.463	21759
849.598	21770
849.734	21500
849.869	21481
850.004	21363
850.14	21511
850.275	21515
850.41	21389
850.545	21469
850.68	21500
850.815	21595
850.95	21454
851.085	21606
851.22	21671
851.355	21439
851.49	21488
851.625	21614
851.76	21488
851.895	21405
852.03	21370
852.165	21553
852.299	21519
852.434	21504
852.569	21549
852.703	21450
852.838	21561
852.973	21633
853.107	21614
853.242	21397
853.376	21340
853.511	21116
853.645	21195
853.78	21389
853.914	21291
854.048	21302
854.183	21268
854.317	21237
854.451	21580
854.585	21344
854.72	21165
854.854	21401
854.988	21176
855.122	21329
855.256	21161
855.39	21340
855.524	21325
855.658	21412
855.792	21241
855.926	21294
856.06	21332
856.194	21424
856.327	21294
856.461	21074
856.595	21199
856.729	21287
856.862	21359
856.996	21317
857.13	21313
857.263	21310
857.397	21431
857.53	21363
857.664	21340
857.797	21302
857.931	21405
858.064	21302
858.197	21431
858.331	21321
858.464	21233
858.597	21131
858.731	21264
858.864	21325
858.997	21184
859.13	21355
859.263	21226
859.396	21370
859.529	21203
859.662	21294
859.795	21249
859.928	21237
860.061	21378
860.194	21473
860.327	21355
860.46	21428
860.592	21348
860.725	21325
860.858	21317
860.99	21287
861.123	21157
861.256	21302
861.388	21176
861.521	21880
861.653	21127
861.786	21039
861.918	21108
862.05	21135
862.183	21222
862.315	21131
862.447	21287
862.58	21188
862.712	20990
862.844	21013
862.976	20975
863.108	21089
863.24	21378
863.372	21036
863.504	20948
863.636	20956
863.768	21138
863.9	21055
864.032	20899
864.164	21024
864.296	21096
864.428	21028
864.559	21108
864.691	21112
864.823	20982
864.954	20914
865.086	20967
865.217	20872
865.349	20716
865.48	20872
865.612	20823
865.743	20971
865.875	20941
866.006	20914
866.137	20880
866.269	20830
866.4	20819
866.531	20678
866.662	20625
866.793	20853
866.924	20864
867.055	20967
867.186	20845
867.317	20697
867.448	20800
867.579	20823
867.71	20735
867.841	20743
867.972	20792
868.103	20823
868.233	20754
868.364	20864
868.495	20929
868.625	21036
868.756	21272
868.886	20933
869.017	21093
869.147	21161
869.278	21127
869.408	21001
869.539	20952
869.669	21176
869.799	21096
869.929	21264
870.06	21184
870.19	21378
870.32	21230
870.45	21386
870.58	21454
870.71	21492
870.84	21660
870.97	21488
871.1	21450
871.23	21580
871.36	21644
871.489	21667
871.619	21625
871.749	21599
871.879	21766
872.008	21800
872.138	21603
872.267	21622
872.397	21542
872.526	21454
872.656	21473
872.785	21439
872.915	21671
873.044	21774
873.173	21679
873.303	21641
873.432	21743
873.561	21637
873.69	21557
873.819	21652
873.948	21747
874.077	21599
874.206	21614
874.335	21701
874.464	21785
874.593	21930
874.722	21816
874.851	21941
874.979	21953
875.108	21987
875.237	21869
875.365	21789
875.494	21972
875.623	22013
875.751	21831
875.88	21941
876.008	22002
876.136	22070
876.265	22211
876.393	22421
876.521	22398
876.65	22360
876.778	22356
876.906	22242
877.034	22295
877.162	22280
877.29	22173
877.418	22223
877.546	22090
877.674	22204
877.802	22253
877.93	22211
878.058	22230
878.185	22074
878.313	22143
878.441	22204
878.568	21968
878.696	22268
878.824	22181
878.951	22230
879.079	22291
879.206	22493
879.333	22436
879.461	22238
879.588	22409
879.715	22432
879.842	22561
879.97	22215
880.097	21922
880.224	22010
880.351	22101
880.478	22169
880.605	22139
880.732	22010
880.859	22356
880.986	22120
881.112	22131
881.239	22010
881.366	21823
881.493	21808
881.619	21667
881.746	21637
881.872	21625
881.999	21637
882.125	21633
882.252	21690
882.378	21622
882.505	21667
882.631	21488
882.757	21454
882.883	21526
883.01	21447
883.136	21351
883.262	21386
883.388	21195
883.514	21351
883.64	21344
883.766	21237
883.892	21104
884.018	21169
884.143	21294
884.269	21466
884.395	21119
884.52	20990
884.646	20941
884.772	20982
884.897	20724
885.023	20842
885.148	21055
885.274	21146
885.399	20975
885.524	20956
885.65	21024
885.775	21020
885.9	20887
886.025	21017
886.15	21036
886.275	20929
886.4	20944
886.525	20788
886.65	20830
886.775	20967
886.9	21093
887.025	21184
887.149	20895
887.274	20754
887.399	20819
887.523	20743
887.648	20746
887.773	20583
887.897	20796
888.021	20826
888.146	20579
888.27	20834
888.395	20777
888.519	20735
888.643	20739
888.767	20906
888.891	20670
889.015	20648
889.139	20625
889.263	20693
889.387	20552
889.511	20868
889.635	20613
889.759	20518
889.883	20427
890.006	20446
890.13	20708
890.254	20469
890.377	20484
890.501	20286
890.624	20313
890.748	20336
890.871	20275
890.995	20130
891.118	20027
891.241	20088
891.364	20214
891.488	20259
891.611	20259
891.734	20145
891.857	20263
891.98	20043
892.103	20229
892.226	19997
892.349	19928
892.471	19898
892.594	20077
892.717	20126
892.839	20111
892.962	20111
893.085	20081
893.207	19963
893.33	19932
893.452	20081
893.575	20100
893.697	19989
893.819	20206
893.941	20324
894.064	20259
894.186	20024
894.308	20111
894.43	20107
894.552	20195
894.674	20180
894.796	20020
894.918	20005
895.04	19936
895.161	20142
895.283	19993
895.405	19978
895.526	20107
895.648	19947
895.769	20107
895.891	20001
896.012	20081
896.134	20039
896.255	20046
896.376	19940
896.498	19986
896.619	19970
896.74	19875
896.861	20111
896.982	20362
897.103	20427
897.224	20370
897.345	20248
897.466	20225
897.587	20271
897.708	20427
897.828	20404
897.949	20164
898.07	20024
898.19	20218
898.311	20290
898.431	20225
898.552	20199
898.672	20263
898.792	20336
898.913	20195
899.033	20195
899.153	20183
899.273	19902
899.393	19883
899.513	20153
899.633	20039
899.753	20031
899.873	19986
899.993	20016
900.113	19978
900.232	19902
900.352	19963
900.472	19791
900.591	19772
900.711	19814
900.83	19643
900.95	19928
901.069	19921
901.189	19689
901.308	19499
901.427	19419
901.546	19320
901.665	19350
901.784	19396
901.904	19190
902.023	19251
902.141	18996
902.26	19004
902.379	19160
902.498	18939
902.617	18753
902.735	18909
902.854	18848
902.973	18779
903.091	18513
903.21	18570
903.328	18502
903.446	18582
903.565	18490
903.683	18296
903.801	18251
903.919	18433
904.038	18304
904.156	18194
904.274	18197
904.392	18129
904.51	18186
904.627	18079
904.745	18209
904.863	18220
904.981	17904
905.098	17741
905.216	17760
905.334	17847
905.451	17813
905.569	17741
905.686	17885
905.803	17840
905.921	17627
906.038	17756
906.155	17653
906.272	17493
906.389	17592
906.506	17284
906.623	17452
906.74	17429
906.857	17311
906.974	17223
907.091	17376
907.208	17474
907.324	17440
907.441	17235
907.557	17204
907.674	17064
907.79	17056
907.907	16957
908.023	17132
908.139	17064
908.256	16942
908.372	16942
908.488	16911
908.604	16892
908.72	16744
908.836	16801
908.952	16721
909.068	16801
909.184	16889
909.3	16816
909.415	16790
909.531	16786
909.647	16550
909.762	16637
909.878	16538
909.993	16569
910.108	16535
910.224	16447
910.339	16443
910.454	16398
910.57	16371
910.685	16295
910.8	16447
910.915	16390
911.03	16310
911.145	16181
911.259	16078
911.374	16116
911.489	16116
911.604	15987
911.718	15846
911.833	15846
911.947	15713
912.062	15709
912.176	15778
912.291	15808
912.405	15812
912.519	16029
912.633	16006
912.748	15728
912.862	15816
912.976	15656
913.09	15504
913.204	15610
913.318	15656
913.431	15793
913.545	15823
913.659	15743
913.772	15515
913.886	15485
914	15447
914.113	15515
914.226	15481
914.34	15599
914.453	15298
914.566	15526
914.68	15351
914.793	15325
914.906	15138
915.019	15055
915.132	15081
915.245	15039
915.358	15032
915.47	15100
915.583	15005
915.696	15074
915.809	15184
915.921	15199
916.034	15169
916.146	14944
916.259	14979
916.371	15001
916.483	14979
916.595	14921
916.708	14921
916.82	14971
916.932	14857
917.044	14796
917.156	14788
917.268	14762
917.38	14724
917.491	14663
917.603	14632
917.715	14693
917.826	14785
917.938	14610
918.049	14571
918.161	14697
918.272	14765
918.384	14781
918.495	14640
918.606	14503
918.717	14408
918.828	14442
918.939	14526
919.05	14465
919.161	14431
919.272	14366
919.383	14301
919.494	14507
919.604	14701
919.715	14473
919.826	14362
919.936	14427
920.047	14575
920.157	14514
920.267	14655
920.378	14404
920.488	14415
920.598	14507
920.708	14819
920.818	14533
920.928	14549
921.038	14727
921.148	14754
921.258	14385
921.368	14339
921.477	14180
921.587	14180
921.697	14096
921.806	14103
921.916	14130
922.025	13807
922.134	13822
922.244	13906
922.353	13875
922.462	13689
922.571	13776
922.68	13571
922.789	13483
922.898	13476
923.007	13483
923.116	13487
923.224	13548
923.333	13434
923.442	13293
923.55	13335
923.659	13335
923.767	13430
923.876	13270
923.984	13285
924.092	13255
924.201	13244
924.309	13278
924.417	13183
924.525	13175
924.633	13183
924.741	13921
924.849	12989
924.956	13072
925.064	12951
925.172	12867
925.279	12798
925.387	12977
925.494	12932
925.602	13008
925.709	12966
925.816	12787
925.924	12966
926.031	13023
926.138	12814
926.245	12909
926.352	12764
926.459	12837
926.566	12890
926.673	12684
926.779	12662
926.886	12612
926.993	12486
927.099	12410
927.206	12407
927.312	12407
927.419	12544
927.525	12429
927.631	12502
927.737	12388
927.843	12311
927.95	12262
928.056	12338
928.162	12205
928.267	12338
928.373	12951
928.479	12369
928.585	12152
928.69	12292
928.796	12243
928.901	12190
929.007	12041
929.112	12235
929.218	12076
929.323	12038
929.428	12038
929.533	12144
929.638	11950
929.743	11946
929.848	11935
929.953	11973
930.058	11828
930.163	11745
930.267	11756
930.372	11855
930.477	11722
930.581	11874
930.685	11707
930.79	11608
930.894	11642
930.998	11554
931.103	11688
931.207	11322
931.311	11132
931.415	11208
931.519	10930
931.623	10892
