Data from test_V78500241_392.txt Node
Date: Fri Mar 25 15:12:35 CST 2022
User: usil
Spectrometer: V785-0024
Trigger mode: 0
Integration Time (sec): 4.000000E-1
Scans to average: 1
Nonlinearity correction enabled: false
Boxcar width: 0
Storing dark spectrum: false
XAxis mode: Wavelengths
Number of Pixels in Spectrum: 1024
>>>>>Begin Spectral Data<<<<<
801.071	26967
801.214	26937
801.356	26609
801.499	26670
801.641	26697
801.783	26530
801.926	26575
802.068	26655
802.211	26488
802.353	26278
802.496	26248
802.638	26092
802.78	26218
802.923	26244
803.065	26119
803.208	26191
803.35	26305
803.492	26488
803.635	26374
803.777	26084
803.919	26263
804.061	26693
804.204	26328
804.346	26298
804.488	26305
804.63	26259
804.773	26081
804.915	26362
805.057	26400
805.199	26336
805.341	26427
805.483	26499
805.626	26389
805.768	26195
805.91	26366
806.052	26328
806.194	26343
806.336	26518
806.478	26503
806.62	26362
806.762	26545
806.904	26556
807.046	26929
807.188	26857
807.33	26693
807.472	26944
807.614	26750
807.756	26678
807.898	26708
808.04	26678
808.182	26594
808.324	26667
808.465	26606
808.607	26830
808.749	26819
808.891	26990
809.033	27192
809.174	27131
809.316	26994
809.458	26967
809.6	26899
809.741	27077
809.883	27096
810.025	27119
810.166	27241
810.308	27165
810.45	27237
810.591	27241
810.733	27070
810.875	27039
811.016	26830
811.158	26815
811.299	27165
811.441	27096
811.582	27074
811.724	26906
811.865	26979
812.007	26940
812.148	26944
812.29	27009
812.431	27173
812.573	27260
812.714	27336
812.855	27473
812.997	27629
813.138	27724
813.279	27675
813.421	27568
813.562	27458
813.703	27374
813.845	27146
813.986	26918
814.127	26861
814.268	26678
814.41	26552
814.551	26621
814.692	26663
814.833	26476
814.974	26590
815.115	26526
815.256	26495
815.397	26579
815.539	26492
815.68	26347
815.821	26393
815.962	26423
816.103	26408
816.244	26351
816.385	26180
816.526	26115
816.666	26138
816.807	25913
816.948	25997
817.089	26073
817.23	25963
817.371	25906
817.512	25868
817.653	25742
817.793	25845
817.934	25978
818.075	25856
818.216	26020
818.356	25947
818.497	25799
818.638	25521
818.778	25670
818.919	25563
819.06	25681
819.2	25898
819.341	25704
819.481	25811
819.622	26035
819.762	26278
819.903	26305
820.043	26069
820.184	25993
820.324	26084
820.465	26107
820.605	26024
820.746	26043
820.886	25936
821.026	25940
821.167	25944
821.307	25970
821.447	25925
821.588	25780
821.728	25575
821.868	25510
822.008	25259
822.149	25460
822.289	25308
822.429	25069
822.569	25118
822.709	25065
822.849	24840
822.99	24776
823.13	24905
823.27	24814
823.41	24707
823.55	24642
823.69	24730
823.83	24593
823.97	24547
824.11	24494
824.25	24437
824.389	24525
824.529	24582
824.669	24490
824.809	24715
824.949	24730
825.089	24608
825.228	24635
825.368	24407
825.508	24437
825.648	24414
825.787	24334
825.927	24365
826.067	24224
826.206	24384
826.346	24517
826.485	24429
826.625	24414
826.765	24353
826.904	24456
827.044	24144
827.183	24121
827.323	23988
827.462	24235
827.601	24072
827.741	23950
827.88	24102
828.02	24038
828.159	24057
828.298	24041
828.437	24114
828.577	24057
828.716	24057
828.855	23965
828.994	23798
829.134	23863
829.273	23790
829.412	23870
829.551	23798
829.69	23745
829.829	23859
829.968	23836
830.107	23866
830.246	23672
830.385	23707
830.524	23832
830.663	23581
830.802	23570
830.941	23482
831.08	23467
831.219	23528
831.357	23528
831.496	23528
831.635	23452
831.774	23277
831.913	23288
832.051	23105
832.19	23246
832.329	23220
832.467	23094
832.606	23174
832.744	22987
832.883	23060
833.022	23155
833.16	23185
833.299	23216
833.437	23071
833.576	23204
833.714	23239
833.852	23292
833.991	23227
834.129	23296
834.267	23204
834.406	23147
834.544	23166
834.682	23174
834.821	23136
834.959	23277
835.097	23269
835.235	23254
835.373	23124
835.511	23117
835.65	23102
835.788	23048
835.926	22923
836.064	22793
836.202	22980
836.34	22991
836.478	23197
836.615	22991
836.753	23014
836.891	23090
837.029	23037
837.167	22953
837.305	23041
837.443	23060
837.58	22858
837.718	22995
837.856	22934
837.993	22793
838.131	22831
838.269	22824
838.406	22778
838.544	22698
838.681	22489
838.819	22402
838.956	22367
839.094	22253
839.231	22348
839.369	22660
839.506	22812
839.643	22649
839.781	22432
839.918	22363
840.055	22356
840.193	22405
840.33	22211
840.467	22382
840.604	22322
840.742	22519
840.879	22169
841.016	22188
841.153	22207
841.29	22348
841.427	22394
841.564	22226
841.701	22382
841.838	22291
841.975	22147
842.112	22135
842.249	22082
842.385	22051
842.522	22261
842.659	22059
842.796	21975
842.933	21964
843.069	21994
843.206	21934
843.343	22124
843.479	22105
843.616	22135
843.752	21915
843.889	21876
844.025	22013
844.162	21774
844.298	22051
844.435	21899
844.571	21873
844.708	21835
844.844	22078
844.98	21960
845.117	21911
845.253	21739
845.389	21694
845.525	21781
845.661	21690
845.798	21580
845.934	21667
846.07	21500
846.206	21538
846.342	21705
846.478	21606
846.614	21420
846.75	21317
846.886	21291
847.022	21397
847.158	21306
847.294	21313
847.429	21249
847.565	21370
847.701	21572
847.837	20963
847.972	20963
848.108	21051
848.244	21252
848.379	20895
848.515	20796
848.65	20834
848.786	20937
848.921	21005
849.057	21024
849.192	21032
849.328	20883
849.463	20933
849.598	20781
849.734	20765
849.869	20830
850.004	20716
850.14	20769
850.275	20651
850.41	20579
850.545	20598
850.68	20727
850.815	20708
850.95	20636
851.085	20849
851.22	20830
851.355	20625
851.49	20686
851.625	20663
851.76	20560
851.895	20446
852.03	20533
852.165	20754
852.299	20765
852.434	20762
852.569	20804
852.703	20716
852.838	20720
852.973	20800
853.107	20819
853.242	20644
853.376	20511
853.511	20332
853.645	20537
853.78	20686
853.914	20419
854.048	20457
854.183	20575
854.317	20461
854.451	20651
854.585	20473
854.72	20514
854.854	20556
854.988	20374
855.122	20575
855.256	20400
855.39	20499
855.524	20571
855.658	20476
855.792	20503
855.926	20575
856.06	20522
856.194	20560
856.327	20499
856.461	20389
856.595	20507
856.729	20571
856.862	20537
856.996	20495
857.13	20609
857.263	20590
857.397	20511
857.53	20442
857.664	20629
857.797	20613
857.931	20670
858.064	20564
858.197	20598
858.331	20617
858.464	20393
858.597	20419
858.731	20381
858.864	20423
858.997	20511
859.13	20438
859.263	20556
859.396	20571
859.529	20469
859.662	20480
859.795	20484
859.928	20590
860.061	20545
860.194	20716
860.327	20480
860.46	20564
860.592	20636
860.725	20606
860.858	20564
860.99	20518
861.123	20514
861.256	20370
861.388	20511
861.521	21230
861.653	20442
861.786	20286
861.918	20298
862.05	20419
862.183	20446
862.315	20446
862.447	20541
862.58	20465
862.712	20149
862.844	20214
862.976	20324
863.108	20362
863.24	20743
863.372	20164
863.504	20100
863.636	20336
863.768	20309
863.9	20256
864.032	20130
864.164	20157
864.296	20142
864.428	20377
864.559	20336
864.691	20267
864.823	20301
864.954	20290
865.086	20206
865.217	20225
865.349	20073
865.48	20210
865.612	20172
865.743	20309
865.875	20111
866.006	20096
866.137	20016
866.269	20214
866.4	20084
866.531	20065
866.662	20035
866.793	20043
866.924	20016
867.055	20100
867.186	20073
867.317	20035
867.448	20046
867.579	19955
867.71	19947
867.841	19932
867.972	20046
868.103	20100
868.233	20157
868.364	19982
868.495	20084
868.625	20218
868.756	20377
868.886	20195
869.017	20343
869.147	20503
869.278	20396
869.408	20248
869.539	20320
869.669	20332
869.799	20461
869.929	20446
870.06	20294
870.19	20708
870.32	20514
870.45	20678
870.58	20708
870.71	20842
870.84	20876
870.97	20689
871.1	20781
871.23	20792
871.36	20910
871.489	20758
871.619	20864
871.749	20902
871.879	21013
872.008	21009
872.138	20918
872.267	20891
872.397	20804
872.526	20781
872.656	20754
872.785	20785
872.915	20960
873.044	21108
873.173	20792
873.303	20982
873.432	20872
873.561	21013
873.69	20937
873.819	20914
873.948	21089
874.077	20921
874.206	20880
874.335	20895
874.464	21119
874.593	21230
874.722	21047
874.851	21245
874.979	21108
875.108	21302
875.237	21135
875.365	21066
875.494	21146
875.623	21180
875.751	21207
875.88	21291
876.008	21393
876.136	21344
876.265	21462
876.393	21675
876.521	21698
876.65	21675
876.778	21564
876.906	21553
877.034	21557
877.162	21545
877.29	21561
877.418	21652
877.546	21526
877.674	21492
877.802	21526
877.93	21667
878.058	21496
878.185	21443
878.313	21526
878.441	21511
878.568	21329
878.696	21401
878.824	21576
878.951	21564
879.079	21759
879.206	21831
879.333	21766
879.461	21580
879.588	21599
879.715	21720
879.842	21743
879.97	21690
880.097	21386
880.224	21397
880.351	21389
880.478	21370
880.605	21298
880.732	21405
880.859	21526
880.986	21412
881.112	21291
881.239	21245
881.366	21192
881.493	21074
881.619	20990
881.746	21032
881.872	20834
881.999	20948
882.125	20758
882.252	20902
882.378	20895
882.505	20956
882.631	20914
882.757	20686
882.883	20716
883.01	20712
883.136	20609
883.262	20545
883.388	20541
883.514	20705
883.64	20762
883.766	20644
883.892	20408
884.018	20476
884.143	20575
884.269	20693
884.395	20400
884.52	20358
884.646	20259
884.772	20259
884.897	20240
885.023	20233
885.148	20415
885.274	20454
885.399	20514
885.524	20396
885.65	20313
885.775	20408
885.9	20278
886.025	20415
886.15	20434
886.275	20282
886.4	20172
886.525	20199
886.65	20191
886.775	20309
886.9	20343
887.025	20514
887.149	20267
887.274	20107
887.399	20126
887.523	20027
887.648	20115
887.773	20073
887.897	20142
888.021	20180
888.146	19936
888.27	20138
888.395	20126
888.519	20103
888.643	19982
888.767	20202
888.891	19940
889.015	19944
889.139	19940
889.263	19833
889.387	19894
889.511	20111
889.635	20027
889.759	19887
889.883	19883
890.006	19906
890.13	19963
890.254	19871
890.377	19841
890.501	19605
890.624	19594
890.748	19647
890.871	19548
890.995	19384
891.118	19445
891.241	19533
891.364	19407
891.488	19594
891.611	19415
891.734	19396
891.857	19556
891.98	19620
892.103	19457
892.226	19460
892.349	19434
892.471	19156
892.594	19476
892.717	19457
892.839	19487
892.962	19403
893.085	19567
893.207	19400
893.33	19244
893.452	19400
893.575	19438
893.697	19457
893.819	19514
893.941	19639
894.064	19476
894.186	19411
894.308	19403
894.43	19354
894.552	19586
894.674	19419
894.796	19255
894.918	19369
895.04	19312
895.161	19472
895.283	19365
895.405	19392
895.526	19339
895.648	19426
895.769	19327
895.891	19445
896.012	19430
896.134	19468
896.255	19438
896.376	19335
896.498	19282
896.619	19434
896.74	19255
896.861	19445
896.982	19734
897.103	19807
897.224	19807
897.345	19616
897.466	19567
897.587	19681
897.708	19712
897.828	19681
897.949	19548
898.07	19544
898.19	19605
898.311	19635
898.431	19655
898.552	19639
898.672	19616
898.792	19696
898.913	19632
899.033	19533
899.153	19312
899.273	19400
899.393	19373
899.513	19388
899.633	19453
899.753	19400
899.873	19381
899.993	19350
900.113	19331
900.232	19335
900.352	19228
900.472	19126
900.591	19080
900.711	19225
900.83	19061
900.95	19331
901.069	19308
901.189	18996
901.308	18722
901.427	18661
901.546	18844
901.665	18821
901.784	18810
901.904	18684
902.023	18578
902.141	18292
902.26	18346
902.379	18502
902.498	18270
902.617	18273
902.735	18319
902.854	18334
902.973	18216
903.091	18026
903.21	17920
903.328	17901
903.446	17802
903.565	17695
903.683	17893
903.801	17771
903.919	17752
904.038	17691
904.156	17596
904.274	17627
904.392	17490
904.51	17425
904.627	17516
904.745	17596
904.863	17551
904.981	17421
905.098	17227
905.216	17261
905.334	17258
905.451	17273
905.569	17193
905.686	17189
905.803	17239
905.921	17079
906.038	17151
906.155	17003
906.272	16911
906.389	17003
906.506	16702
906.623	16759
906.74	16736
906.857	16698
906.974	16691
907.091	16835
907.208	16911
907.324	16782
907.441	16626
907.557	16508
907.674	16561
907.79	16462
907.907	16489
908.023	16409
908.139	16497
908.256	16440
908.372	16432
908.488	16386
908.604	16219
908.72	16147
908.836	16310
908.952	16204
909.068	16261
909.184	16375
909.3	16261
909.415	16234
909.531	16169
909.647	15888
909.762	15854
909.878	15964
909.993	15949
910.108	15911
910.224	15850
910.339	15934
910.454	15819
910.57	15751
910.685	15793
910.8	16021
910.915	15915
911.03	15747
911.145	15561
911.259	15530
911.374	15526
911.489	15492
911.604	15355
911.718	15302
911.833	15214
911.947	15108
912.062	15039
912.176	15157
912.291	15249
912.405	15226
912.519	15408
912.633	15412
912.748	15386
912.862	15370
912.976	15089
913.09	15001
913.204	14986
913.318	15207
913.431	15119
913.545	15131
913.659	15173
913.772	15093
913.886	14971
914	14986
914.113	14956
914.226	15005
914.34	14975
914.453	14845
914.566	14948
914.68	14887
914.793	14765
914.906	14541
915.019	14495
915.132	14537
915.245	14476
915.358	14579
915.47	14613
915.583	14587
915.696	14674
915.809	14587
915.921	14613
916.034	14503
916.146	14526
916.259	14488
916.371	14568
916.483	14450
916.595	14488
916.708	14381
916.82	14358
916.932	14278
917.044	14256
917.156	14275
917.268	14199
917.38	14275
917.491	14206
917.603	14225
917.715	14290
917.826	14256
917.938	14206
918.049	14134
918.161	14157
918.272	14252
918.384	14275
918.495	14202
918.606	14043
918.717	13898
918.828	13978
918.939	14031
919.05	13902
919.161	14024
919.272	13795
919.383	13845
919.494	14107
919.604	14103
919.715	13978
919.826	13898
919.936	13970
920.047	14062
920.157	13967
920.267	14214
920.378	13913
920.488	13986
920.598	14111
920.708	14294
920.818	14123
920.928	14126
921.038	14244
921.148	14180
921.258	13970
921.368	13845
921.477	13795
921.587	13647
921.697	13613
921.806	13677
921.916	13571
922.025	13453
922.134	13358
922.244	13403
922.353	13400
922.462	13213
922.571	13133
922.68	13015
922.789	13057
922.898	13019
923.007	12993
923.116	13110
923.224	12958
923.333	12981
923.442	12878
923.55	12795
923.659	12890
923.767	12913
923.876	12878
923.984	12802
924.092	12692
924.201	12764
924.309	12802
924.417	12753
924.525	12700
924.633	12730
924.741	13419
924.849	12506
924.956	12692
925.064	12498
925.172	12441
925.279	12338
925.387	12498
925.494	12467
925.602	12528
925.709	12448
925.816	12376
925.924	12445
926.031	12391
926.138	12395
926.245	12471
926.352	12273
926.459	12414
926.566	12471
926.673	12346
926.779	12281
926.886	12251
926.993	12079
927.099	11999
927.206	12064
927.312	12087
927.419	12041
927.525	11992
927.631	12152
927.737	12003
927.843	11916
927.95	11790
928.056	11863
928.162	11889
928.267	11866
928.373	12570
928.479	11961
928.585	11767
928.69	11821
928.796	11923
928.901	11649
929.007	11558
929.112	11729
929.218	11649
929.323	11707
929.428	11722
929.533	11726
929.638	11482
929.743	11524
929.848	11634
929.953	11577
930.058	11478
930.163	11269
930.267	11299
930.372	11486
930.477	11273
930.581	11455
930.685	11364
930.79	11143
930.894	11231
930.998	11231
931.103	11337
931.207	11079
931.311	10850
931.415	10721
931.519	10603
931.623	10565
