Data from test_V78500241_2435.txt Node
Date: Fri Mar 25 15:26:48 CST 2022
User: usil
Spectrometer: V785-0024
Trigger mode: 0
Integration Time (sec): 4.000000E-1
Scans to average: 1
Nonlinearity correction enabled: false
Boxcar width: 0
Storing dark spectrum: false
XAxis mode: Wavelengths
Number of Pixels in Spectrum: 1024
>>>>>Begin Spectral Data<<<<<
801.071	27173
801.214	27096
801.356	26804
801.499	26804
801.641	26697
801.783	26712
801.926	26712
802.068	26651
802.211	26602
802.353	26587
802.496	26275
802.638	26225
802.78	26244
802.923	26271
803.065	26172
803.208	26153
803.35	26301
803.492	26309
803.635	26453
803.777	26309
803.919	26457
804.061	26758
804.204	26412
804.346	26237
804.488	26317
804.63	26328
804.773	26480
804.915	26366
805.057	26526
805.199	26332
805.341	26499
805.483	26530
805.626	26385
805.768	26415
805.91	26442
806.052	26571
806.194	26503
806.336	26765
806.478	26545
806.62	26480
806.762	26636
806.904	26811
807.046	26910
807.188	26800
807.33	26891
807.472	27039
807.614	26872
807.756	26887
807.898	26682
808.04	26731
808.182	26762
808.324	26845
808.465	26819
808.607	27043
808.749	27081
808.891	27207
809.033	27195
809.174	27157
809.316	27077
809.458	27070
809.6	27127
809.741	27233
809.883	27192
810.025	27393
810.166	27249
810.308	27302
810.45	27222
810.591	27169
810.733	27036
810.875	27020
811.016	26918
811.158	26940
811.299	27055
811.441	27226
811.582	27264
811.724	27184
811.865	27070
812.007	27093
812.148	27005
812.29	27127
812.431	27249
812.573	27485
812.714	27515
812.855	27439
812.997	27713
813.138	27804
813.279	27705
813.421	27713
813.562	27496
813.703	27272
813.845	27150
813.986	27036
814.127	26743
814.268	26758
814.41	26887
814.551	26750
814.692	26857
814.833	26693
814.974	26674
815.115	26720
815.256	26503
815.397	26629
815.539	26640
815.68	26473
815.821	26438
815.962	26552
816.103	26431
816.244	26412
816.385	26423
816.526	26313
816.666	26138
816.807	26031
816.948	26092
817.089	26142
817.23	25963
817.371	25887
817.512	25902
817.653	26058
817.793	25898
817.934	26031
818.075	25940
818.216	25993
818.356	25997
818.497	25833
818.638	25742
818.778	25715
818.919	25807
819.06	25761
819.2	25879
819.341	25879
819.481	25925
819.622	26145
819.762	26286
819.903	26240
820.043	26058
820.184	26035
820.324	26081
820.465	26081
820.605	26100
820.746	26069
820.886	25807
821.026	26016
821.167	26088
821.307	26039
821.447	25947
821.588	25963
821.728	25803
821.868	25483
822.008	25495
822.149	25502
822.289	25479
822.429	25187
822.569	25198
822.709	25038
822.849	24996
822.99	24951
823.13	24890
823.27	25019
823.41	24772
823.55	24856
823.69	24684
823.83	24783
823.97	24585
824.11	24608
824.25	24612
824.389	24574
824.529	24601
824.669	24741
824.809	24700
824.949	24627
825.089	24707
825.228	24555
825.368	24464
825.508	24490
825.648	24452
825.787	24365
825.927	24639
826.067	24471
826.206	24414
826.346	24528
826.485	24445
826.625	24471
826.765	24540
826.904	24483
827.044	24353
827.183	24216
827.323	24186
827.462	24235
827.601	24098
827.741	24167
827.88	24232
828.02	24030
828.159	24243
828.298	24216
828.437	24258
828.577	24060
828.716	24239
828.855	24262
828.994	23999
829.134	23980
829.273	23942
829.412	23707
829.551	23752
829.69	23813
829.829	23824
829.968	23946
830.107	24041
830.246	23939
830.385	23760
830.524	23756
830.663	23737
830.802	23547
830.941	23573
831.08	23516
831.219	23501
831.357	23729
831.496	23718
831.635	23429
831.774	23436
831.913	23395
832.051	23269
832.19	23242
832.329	23345
832.467	23265
832.606	23140
832.744	23079
832.883	23147
833.022	23105
833.16	23124
833.299	23273
833.437	23235
833.576	23193
833.714	23334
833.852	23398
833.991	23273
834.129	23444
834.267	23311
834.406	23273
834.544	23143
834.682	23311
834.821	23265
834.959	23311
835.097	23147
835.235	23231
835.373	23212
835.511	23269
835.65	23037
835.788	23208
835.926	22968
836.064	22843
836.202	22976
836.34	23071
836.478	23273
836.615	23056
836.753	23060
836.891	23098
837.029	23178
837.167	23064
837.305	23022
837.443	22957
837.58	22908
837.718	22949
837.856	22999
837.993	22873
838.131	22965
838.269	22854
838.406	22892
838.544	22763
838.681	22493
838.819	22554
838.956	22596
839.094	22447
839.231	22428
839.369	22523
839.506	22786
839.643	22622
839.781	22337
839.918	22386
840.055	22344
840.193	22455
840.33	22265
840.467	22333
840.604	22390
840.742	22656
840.879	22200
841.016	22287
841.153	22246
841.29	22436
841.427	22428
841.564	22424
841.701	22306
841.838	22333
841.975	22207
842.112	22249
842.249	22196
842.385	22128
842.522	22314
842.659	22150
842.796	22128
842.933	22029
843.069	22086
843.206	22059
843.343	22070
843.479	22044
843.616	22086
843.752	21918
843.889	21880
844.025	22070
844.162	21930
844.298	21968
844.435	21926
844.571	21869
844.708	21911
844.844	22124
844.98	22067
845.117	21998
845.253	21804
845.389	21743
845.525	21915
845.661	21759
845.798	21656
845.934	21682
846.07	21671
846.206	21759
846.342	21755
846.478	21618
846.614	21473
846.75	21306
846.886	21431
847.022	21507
847.158	21428
847.294	21386
847.429	21408
847.565	21405
847.701	21583
847.837	21100
847.972	21032
848.108	21230
848.244	21169
848.379	21135
848.515	20914
848.65	20914
848.786	20887
848.921	20967
849.057	21077
849.192	21017
849.328	20944
849.463	21001
849.598	21024
849.734	20883
849.869	20800
850.004	20648
850.14	20823
850.275	20598
850.41	20762
850.545	20689
850.68	20693
850.815	20724
850.95	20674
851.085	20861
851.22	20781
851.355	20678
851.49	20788
851.625	20629
851.76	20571
851.895	20724
852.03	20651
852.165	20701
852.299	20739
852.434	20918
852.569	20754
852.703	20587
852.838	20838
852.973	20967
853.107	20788
853.242	20602
853.376	20659
853.511	20533
853.645	20442
853.78	20659
853.914	20636
854.048	20541
854.183	20571
854.317	20488
854.451	20640
854.585	20507
854.72	20564
854.854	20655
854.988	20476
855.122	20484
855.256	20465
855.39	20484
855.524	20579
855.658	20495
855.792	20549
855.926	20533
856.06	20480
856.194	20727
856.327	20560
856.461	20473
856.595	20533
856.729	20507
856.862	20609
856.996	20537
857.13	20667
857.263	20758
857.397	20648
857.53	20556
857.664	20549
857.797	20697
857.931	20659
858.064	20499
858.197	20568
858.331	20537
858.464	20541
858.597	20377
858.731	20686
858.864	20556
858.997	20507
859.13	20583
859.263	20511
859.396	20674
859.529	20670
859.662	20476
859.795	20587
859.928	20537
860.061	20724
860.194	20724
860.327	20484
860.46	20594
860.592	20644
860.725	20625
860.858	20765
860.99	20564
861.123	20503
861.256	20431
861.388	20625
861.521	21142
861.653	20404
861.786	20415
861.918	20385
862.05	20526
862.183	20431
862.315	20412
862.447	20549
862.58	20526
862.712	20339
862.844	20218
862.976	20446
863.108	20400
863.24	20598
863.372	20221
863.504	20214
863.636	20210
863.768	20233
863.9	20298
864.032	20122
864.164	20252
864.296	20267
864.428	20404
864.559	20313
864.691	20336
864.823	20332
864.954	20313
865.086	20252
865.217	20122
865.349	20176
865.48	20134
865.612	20191
865.743	20324
865.875	20168
866.006	20218
866.137	20191
866.269	20130
866.4	20122
866.531	20172
866.662	20126
866.793	20058
866.924	20065
867.055	20210
867.186	20092
867.317	20107
867.448	20020
867.579	19997
867.71	20016
867.841	20024
867.972	20229
868.103	20218
868.233	20157
868.364	20088
868.495	20218
868.625	20263
868.756	20537
868.886	20199
869.017	20309
869.147	20446
869.278	20412
869.408	20336
869.539	20298
869.669	20419
869.799	20370
869.929	20419
870.06	20484
870.19	20644
870.32	20682
870.45	20758
870.58	20769
870.71	20815
870.84	20899
870.97	20796
871.1	20746
871.23	20891
871.36	20857
871.489	20883
871.619	20971
871.749	20899
871.879	20918
872.008	21077
872.138	21051
872.267	20838
872.397	20739
872.526	20773
872.656	20838
872.785	20765
872.915	20952
873.044	21074
873.173	20921
873.303	21058
873.432	20990
873.561	21127
873.69	20982
873.819	20876
873.948	20982
874.077	21074
874.206	20773
874.335	20982
874.464	21081
874.593	21188
874.722	21233
874.851	21211
874.979	21249
875.108	21313
875.237	21116
875.365	21043
875.494	21302
875.623	21291
875.751	21298
875.88	21294
876.008	21378
876.136	21416
876.265	21599
876.393	21713
876.521	21644
876.65	21759
876.778	21622
876.906	21637
877.034	21408
877.162	21633
877.29	21492
877.418	21534
877.546	21447
877.674	21557
877.802	21599
877.93	21564
878.058	21454
878.185	21553
878.313	21523
878.441	21549
878.568	21382
878.696	21435
878.824	21637
878.951	21701
879.079	21762
879.206	21846
879.333	21717
879.461	21538
879.588	21720
879.715	21698
879.842	21892
879.97	21648
880.097	21496
880.224	21424
880.351	21420
880.478	21496
880.605	21325
880.732	21408
880.859	21698
880.986	21401
881.112	21348
881.239	21370
881.366	21112
881.493	21169
881.619	20941
881.746	20990
881.872	20941
881.999	20994
882.125	20899
882.252	20967
882.378	20952
882.505	21005
882.631	20845
882.757	20693
882.883	20785
883.01	20739
883.136	20613
883.262	20644
883.388	20514
883.514	20750
883.64	20796
883.766	20594
883.892	20495
884.018	20480
884.143	20606
884.269	20705
884.395	20412
884.52	20358
884.646	20263
884.772	20225
884.897	20134
885.023	20454
885.148	20434
885.274	20374
885.399	20476
885.524	20358
885.65	20393
885.775	20374
885.9	20225
886.025	20343
886.15	20446
886.275	20275
886.4	20199
886.525	20374
886.65	20275
886.775	20286
886.9	20377
887.025	20473
887.149	20301
887.274	20206
887.399	20180
887.523	20092
887.648	20168
887.773	20126
887.897	20092
888.021	20130
888.146	20077
888.27	20278
888.395	20176
888.519	20073
888.643	20161
888.767	20168
888.891	20008
889.015	19978
889.139	19997
889.263	19963
889.387	20081
889.511	20096
889.635	20024
889.759	19852
889.883	19887
890.006	19902
890.13	20058
890.254	19837
890.377	19788
890.501	19681
890.624	19567
890.748	19655
890.871	19582
890.995	19575
891.118	19556
891.241	19514
891.364	19506
891.488	19567
891.611	19537
891.734	19487
891.857	19480
891.98	19510
892.103	19567
892.226	19510
892.349	19422
892.471	19236
892.594	19552
892.717	19377
892.839	19312
892.962	19514
893.085	19575
893.207	19324
893.33	19251
893.452	19324
893.575	19434
893.697	19529
893.819	19594
893.941	19597
894.064	19514
894.186	19426
894.308	19434
894.43	19415
894.552	19518
894.674	19453
894.796	19358
894.918	19495
895.04	19373
895.161	19453
895.283	19468
895.405	19308
895.526	19468
895.648	19373
895.769	19487
895.891	19453
896.012	19632
896.134	19438
896.255	19460
896.376	19411
896.498	19514
896.619	19468
896.74	19495
896.861	19438
896.982	19655
897.103	19944
897.224	19715
897.345	19616
897.466	19537
897.587	19582
897.708	19795
897.828	19742
897.949	19590
898.07	19499
898.19	19601
898.311	19658
898.431	19582
898.552	19704
898.672	19723
898.792	19746
898.913	19693
899.033	19537
899.153	19460
899.273	19362
899.393	19506
899.513	19510
899.633	19419
899.753	19537
899.873	19289
899.993	19506
900.113	19403
900.232	19312
900.352	19358
900.472	19297
900.591	19050
900.711	19225
900.83	19099
900.95	19232
901.069	19297
901.189	18985
901.308	18878
901.427	18734
901.546	18757
901.665	18897
901.784	18738
901.904	18661
902.023	18551
902.141	18388
902.26	18285
902.379	18300
902.498	18289
902.617	18270
902.735	18346
902.854	18304
902.973	18216
903.091	18022
903.21	17999
903.328	17996
903.446	17901
903.565	17859
903.683	17897
903.801	17737
903.919	17779
904.038	17752
904.156	17611
904.274	17642
904.392	17589
904.51	17642
904.627	17592
904.745	17691
904.863	17691
904.981	17448
905.098	17296
905.216	17235
905.334	17265
905.451	17239
905.569	17337
905.686	17341
905.803	17364
905.921	17060
906.038	17140
906.155	17041
906.272	16938
906.389	17010
906.506	16771
906.623	16812
906.74	16835
906.857	16656
906.974	16797
907.091	16786
907.208	16953
907.324	16843
907.441	16649
907.557	16588
907.674	16538
907.79	16508
907.907	16481
908.023	16512
908.139	16599
908.256	16371
908.372	16421
908.488	16413
908.604	16257
908.72	16177
908.836	16272
908.952	16158
909.068	16219
909.184	16337
909.3	16238
909.415	16234
909.531	16284
909.647	16120
909.762	16006
909.878	15918
909.993	16105
910.108	15918
910.224	15903
910.339	15945
910.454	15842
910.57	15823
910.685	15587
910.8	16048
910.915	15968
911.03	15755
911.145	15557
911.259	15595
911.374	15576
911.489	15435
911.604	15420
911.718	15378
911.833	15332
911.947	15199
912.062	15112
912.176	15317
912.291	15245
912.405	15241
912.519	15477
912.633	15534
912.748	15313
912.862	15272
912.976	15135
913.09	15024
913.204	15112
913.318	15203
913.431	15249
913.545	15275
913.659	15211
913.772	15093
913.886	15017
914	14941
914.113	15017
914.226	15058
914.34	14979
914.453	14952
914.566	14979
914.68	14830
914.793	14838
914.906	14629
915.019	14541
915.132	14526
915.245	14571
915.358	14571
915.47	14541
915.583	14476
915.696	14606
915.809	14617
915.921	14670
916.034	14522
916.146	14503
916.259	14484
916.371	14492
916.483	14511
916.595	14473
916.708	14415
916.82	14393
916.932	14408
917.044	14393
917.156	14366
917.268	14164
917.38	14248
917.491	14278
917.603	14233
917.715	14320
917.826	14415
917.938	14134
918.049	14020
918.161	14195
918.272	14358
918.384	14362
918.495	14130
918.606	14035
918.717	13947
918.828	14016
918.939	14073
919.05	13879
919.161	14020
919.272	13765
919.383	13849
919.494	14100
919.604	14142
919.715	14092
919.826	13986
919.936	13864
920.047	14012
920.157	14077
920.267	14134
920.378	13959
920.488	13871
920.598	14126
920.708	14294
920.818	14138
920.928	14134
921.038	14237
921.148	14248
921.258	13989
921.368	13868
921.477	13788
921.587	13738
921.697	13529
921.806	13696
921.916	13491
922.025	13506
922.134	13396
922.244	13343
922.353	13419
922.462	13232
922.571	13118
922.68	13000
922.789	12996
922.898	13084
923.007	12951
923.116	13042
923.224	13004
923.333	12977
923.442	12951
923.55	12856
923.659	12939
923.767	12989
923.876	12867
923.984	12901
924.092	12726
924.201	12837
924.309	12863
924.417	12829
924.525	12688
924.633	12719
924.741	13620
924.849	12540
924.956	12642
925.064	12498
925.172	12407
925.279	12486
925.387	12532
925.494	12490
925.602	12547
925.709	12509
925.816	12426
925.924	12471
926.031	12532
926.138	12445
926.245	12479
926.352	12300
926.459	12490
926.566	12471
926.673	12369
926.779	12228
926.886	12186
926.993	12106
927.099	12087
927.206	12152
927.312	11954
927.419	12152
927.525	12007
927.631	12053
927.737	11939
927.843	11874
927.95	11809
928.056	11840
928.162	11901
928.267	11939
928.373	12506
928.479	12019
928.585	11710
928.69	11832
928.796	11889
928.901	11771
929.007	11573
929.112	11783
929.218	11714
929.323	11680
929.428	11509
929.533	11764
929.638	11623
929.743	11592
929.848	11596
929.953	11551
930.058	11528
930.163	11368
930.267	11372
930.372	11535
930.477	11349
930.581	11493
930.685	11455
930.79	11216
930.894	11288
930.998	11105
931.103	11201
931.207	10911
931.311	10850
931.415	10881
931.519	10542
931.623	10626
