Data from test_V78500241_688.txt Node
Date: Fri Mar 25 15:14:38 CST 2022
User: usil
Spectrometer: V785-0024
Trigger mode: 0
Integration Time (sec): 4.000000E-1
Scans to average: 1
Nonlinearity correction enabled: false
Boxcar width: 0
Storing dark spectrum: false
XAxis mode: Wavelengths
Number of Pixels in Spectrum: 1024
>>>>>Begin Spectral Data<<<<<
801.071	28150
801.214	28082
801.356	27743
801.499	27968
801.641	27827
801.783	27743
801.926	27690
802.068	27774
802.211	27614
802.353	27454
802.496	27405
802.638	27370
802.78	27355
802.923	27306
803.065	27298
803.208	27374
803.35	27462
803.492	27325
803.635	27542
803.777	27416
803.919	27504
804.061	27960
804.204	27701
804.346	27580
804.488	27397
804.63	27412
804.773	27545
804.915	27576
805.057	27641
805.199	27523
805.341	27553
805.483	27739
805.626	27667
805.768	27500
805.91	27671
806.052	27648
806.194	27701
806.336	27884
806.478	27713
806.62	27762
806.762	27842
806.904	28029
807.046	28112
807.188	28166
807.33	28086
807.472	28211
807.614	28059
807.756	28128
807.898	27934
808.04	27876
808.182	27941
808.324	27922
808.465	27937
808.607	28101
808.749	28211
808.891	28329
809.033	28550
809.174	28303
809.316	28390
809.458	28356
809.6	28466
809.741	28500
809.883	28500
810.025	28599
810.166	28733
810.308	28649
810.45	28713
810.591	28596
810.733	28367
810.875	28306
811.016	28352
811.158	28158
811.299	28569
811.441	28443
811.582	28493
811.724	28363
811.865	28325
812.007	28409
812.148	28287
812.29	28474
812.431	28523
812.573	28641
812.714	28908
812.855	28866
812.997	28999
813.138	29136
813.279	29067
813.421	28946
813.562	28862
813.703	28767
813.845	28634
813.986	28265
814.127	28154
814.268	28116
814.41	28188
814.551	28055
814.692	28154
814.833	28006
814.974	28025
815.115	28135
815.256	27861
815.397	27922
815.539	27850
815.68	27888
815.821	27911
815.962	27861
816.103	27865
816.244	27838
816.385	27648
816.526	27762
816.666	27469
816.807	27427
816.948	27538
817.089	27515
817.23	27435
817.371	27454
817.512	27435
817.653	27488
817.793	27287
817.934	27412
818.075	27298
818.216	27462
818.356	27401
818.497	27112
818.638	27192
818.778	27108
818.919	27043
819.06	27218
819.2	27233
819.341	27427
819.481	27454
819.622	27591
819.762	27701
819.903	27637
820.043	27572
820.184	27561
820.324	27443
820.465	27557
820.605	27523
820.746	27401
820.886	27389
821.026	27580
821.167	27488
821.307	27595
821.447	27321
821.588	27431
821.728	27127
821.868	27089
822.008	26864
822.149	26929
822.289	26785
822.429	26743
822.569	26503
822.709	26651
822.849	26442
822.99	26370
823.13	26298
823.27	26404
823.41	26343
823.55	26157
823.69	26103
823.83	26233
823.97	26043
824.11	26027
824.25	25966
824.389	26119
824.529	25966
824.669	26012
824.809	26130
824.949	26065
825.089	26039
825.228	25936
825.368	25871
825.508	25947
825.648	25898
825.787	25883
825.927	26050
826.067	25982
826.206	25814
826.346	25978
826.485	25814
826.625	25780
826.765	25883
826.904	25974
827.044	25609
827.183	25616
827.323	25594
827.462	25685
827.601	25693
827.741	25506
827.88	25670
828.02	25491
828.159	25571
828.298	25685
828.437	25655
828.577	25472
828.716	25506
828.855	25476
828.994	25327
829.134	25358
829.273	25392
829.412	25232
829.551	25148
829.69	25160
829.829	25350
829.968	25476
830.107	25316
830.246	25339
830.385	25141
830.524	25133
830.663	25023
830.802	25027
830.941	24947
831.08	24894
831.219	24859
831.357	25008
831.496	25126
831.635	24962
831.774	24741
831.913	24901
832.051	24741
832.19	24681
832.329	24719
832.467	24673
832.606	24509
832.744	24623
832.883	24589
833.022	24486
833.16	24566
833.299	24681
833.437	24654
833.576	24764
833.714	24646
833.852	24738
833.991	24688
834.129	24612
834.267	24772
834.406	24639
834.544	24608
834.682	24608
834.821	24578
834.959	24897
835.097	24593
835.235	24642
835.373	24677
835.511	24597
835.65	24540
835.788	24471
835.926	24262
836.064	24213
836.202	24197
836.34	24502
836.478	24547
836.615	24433
836.753	24608
836.891	24525
837.029	24505
837.167	24369
837.305	24422
837.443	24247
837.58	24319
837.718	24361
837.856	24319
837.993	24235
838.131	24380
838.269	24114
838.406	24308
838.544	24224
838.681	23977
838.819	23912
838.956	23802
839.094	23824
839.231	23680
839.369	23893
839.506	24232
839.643	24022
839.781	23866
839.918	23722
840.055	23611
840.193	23691
840.33	23627
840.467	23726
840.604	23798
840.742	23931
840.879	23653
841.016	23638
841.153	23608
841.29	23741
841.427	23562
841.564	23714
841.701	23676
841.838	23676
841.975	23474
842.112	23627
842.249	23429
842.385	23425
842.522	23570
842.659	23478
842.796	23337
842.933	23467
843.069	23421
843.206	23269
843.343	23581
843.479	23463
843.616	23501
843.752	23277
843.889	23318
844.025	23330
844.162	23113
844.298	23326
844.435	23303
844.571	23231
844.708	23242
844.844	23421
844.98	23292
845.117	23303
845.253	23086
845.389	23090
845.525	23162
845.661	22987
845.798	22820
845.934	22999
846.07	22816
846.206	22953
846.342	23071
846.478	22999
846.614	22702
846.75	22664
846.886	22702
847.022	22694
847.158	22702
847.294	22725
847.429	22748
847.565	22645
847.701	22885
847.837	22375
847.972	22386
848.108	22493
848.244	22474
848.379	22341
848.515	22261
848.65	22261
848.786	22253
848.921	22268
849.057	22402
849.192	22371
849.328	22352
849.463	22329
849.598	22234
849.734	22196
849.869	22139
850.004	22032
850.14	22040
850.275	21972
850.41	22029
850.545	21838
850.68	21945
850.815	22116
850.95	22036
851.085	22109
851.22	22169
851.355	22090
851.49	21983
851.625	22032
851.76	21895
851.895	21949
852.03	21907
852.165	22055
852.299	22044
852.434	22116
852.569	22185
852.703	22147
852.838	21987
852.973	22147
853.107	22272
853.242	21937
853.376	21968
853.511	21797
853.645	21720
853.78	21994
853.914	21823
854.048	21781
854.183	21876
854.317	21926
854.451	21945
854.585	21869
854.72	21789
854.854	21892
854.988	21842
855.122	21907
855.256	21694
855.39	21785
855.524	21926
855.658	21991
855.792	21709
855.926	21816
856.06	21823
856.194	21873
856.327	21907
856.461	21728
856.595	21808
856.729	21873
856.862	21869
856.996	21934
857.13	21915
857.263	22021
857.397	21895
857.53	21873
857.664	21892
857.797	21907
857.931	21930
858.064	21785
858.197	21953
858.331	21808
858.464	21846
858.597	21846
858.731	21918
858.864	21720
858.997	21793
859.13	21846
859.263	21949
859.396	21918
859.529	21774
859.662	21766
859.795	21827
859.928	21960
860.061	21934
860.194	21991
860.327	21854
860.46	21827
860.592	22044
860.725	21941
860.858	21937
860.99	21854
861.123	21720
861.256	21895
861.388	21903
861.521	22672
861.653	21812
861.786	21717
861.918	21713
862.05	21671
862.183	21823
862.315	21831
862.447	21949
862.58	21785
862.712	21587
862.844	21576
862.976	21762
863.108	21694
863.24	21888
863.372	21466
863.504	21595
863.636	21542
863.768	21504
863.9	21656
864.032	21469
864.164	21450
864.296	21481
864.428	21667
864.559	21603
864.691	21660
864.823	21542
864.954	21591
865.086	21618
865.217	21443
865.349	21405
865.48	21443
865.612	21469
865.743	21500
865.875	21431
866.006	21370
866.137	21477
866.269	21507
866.4	21412
866.531	21386
866.662	21336
866.793	21340
866.924	21306
867.055	21336
867.186	21416
867.317	21424
867.448	21256
867.579	21252
867.71	21165
867.841	21272
867.972	21351
868.103	21294
868.233	21408
868.364	21370
868.495	21435
868.625	21519
868.756	21667
868.886	21458
869.017	21587
869.147	21686
869.278	21739
869.408	21625
869.539	21625
869.669	21720
869.799	21800
869.929	21667
870.06	21663
870.19	21930
870.32	21854
870.45	21968
870.58	21991
870.71	22154
870.84	22177
870.97	22010
871.1	21934
871.23	22124
871.36	22185
871.489	22097
871.619	22131
871.749	22131
871.879	22325
872.008	22287
872.138	22181
872.267	22226
872.397	22029
872.526	22059
872.656	22006
872.785	22090
872.915	22207
873.044	22310
873.173	22291
873.303	22219
873.432	22162
873.561	22284
873.69	22318
873.819	22173
873.948	22272
874.077	22295
874.206	22181
874.335	22230
874.464	22230
874.593	22462
874.722	22497
874.851	22500
874.979	22432
875.108	22481
875.237	22360
875.365	22398
875.494	22447
875.623	22535
875.751	22325
875.88	22421
876.008	22485
876.136	22763
876.265	22797
876.393	22881
876.521	22965
876.65	22858
876.778	22919
876.906	22771
877.034	22729
877.162	22729
877.29	22767
877.418	22675
877.546	22824
877.674	22850
877.802	22702
877.93	22801
878.058	22729
878.185	22725
878.313	22740
878.441	22873
878.568	22641
878.696	22626
878.824	22816
878.951	22900
879.079	22930
879.206	23060
879.333	22953
879.461	22786
879.588	22915
879.715	23044
879.842	22987
879.97	22824
880.097	22573
880.224	22546
880.351	22649
880.478	22527
880.605	22527
880.732	22554
880.859	22839
880.986	22675
881.112	22588
881.239	22455
881.366	22325
881.493	22325
881.619	22143
881.746	22246
881.872	22185
881.999	22162
882.125	22067
882.252	22158
882.378	22173
882.505	22291
882.631	22097
882.757	21880
882.883	21937
883.01	21819
883.136	21994
883.262	21755
883.388	21652
883.514	21819
883.64	21759
883.766	21667
883.892	21625
884.018	21713
884.143	21762
884.269	21766
884.395	21549
884.52	21443
884.646	21492
884.772	21549
884.897	21408
885.023	21682
885.148	21595
885.274	21701
885.399	21587
885.524	21454
885.65	21500
885.775	21500
885.9	21542
886.025	21564
886.15	21671
886.275	21447
886.4	21401
886.525	21405
886.65	21397
886.775	21336
886.9	21466
887.025	21599
887.149	21431
887.274	21302
887.399	21359
887.523	21287
887.648	21169
887.773	21188
887.897	21241
888.021	21310
888.146	21249
888.27	21313
888.395	21420
888.519	21275
888.643	21207
888.767	21348
888.891	21207
889.015	21074
889.139	21150
889.263	21005
889.387	21211
889.511	21408
889.635	21108
889.759	21009
889.883	20948
890.006	21127
890.13	21028
890.254	20975
890.377	21070
890.501	20868
890.624	20853
890.748	20731
890.871	20587
890.995	20625
891.118	20594
891.241	20636
891.364	20712
891.488	20823
891.611	20617
891.734	20678
891.857	20594
891.98	20575
892.103	20754
892.226	20587
892.349	20560
892.471	20324
892.594	20518
892.717	20480
892.839	20419
892.962	20552
893.085	20495
893.207	20560
893.33	20408
893.452	20431
893.575	20537
893.697	20469
893.819	20590
893.941	20674
894.064	20712
894.186	20450
894.308	20355
894.43	20522
894.552	20632
894.674	20488
894.796	20366
894.918	20446
895.04	20431
895.161	20473
895.283	20495
895.405	20343
895.526	20579
895.648	20495
895.769	20522
895.891	20461
896.012	20613
896.134	20621
896.255	20476
896.376	20465
896.498	20446
896.619	20537
896.74	20602
896.861	20579
896.982	20861
897.103	20967
897.224	20838
897.345	20765
897.466	20701
897.587	20834
897.708	20796
897.828	20785
897.949	20644
898.07	20530
898.19	20522
898.311	20659
898.431	20674
898.552	20765
898.672	20819
898.792	20746
898.913	20712
899.033	20564
899.153	20465
899.273	20404
899.393	20404
899.513	20499
899.633	20499
899.753	20511
899.873	20438
899.993	20454
900.113	20332
900.232	20427
900.352	20457
900.472	20252
900.591	20206
900.711	20320
900.83	20145
900.95	20415
901.069	20263
901.189	20058
901.308	19913
901.427	19818
901.546	19898
901.665	19822
901.784	19852
901.904	19689
902.023	19647
902.141	19392
902.26	19228
902.379	19472
902.498	19365
902.617	19308
902.735	19324
902.854	19244
902.973	19236
903.091	19057
903.21	18981
903.328	18951
903.446	18859
903.565	18703
903.683	18757
903.801	18688
903.919	18753
904.038	18726
904.156	18479
904.274	18532
904.392	18559
904.51	18448
904.627	18437
904.745	18669
904.863	18475
904.981	18376
905.098	18235
905.216	18232
905.334	18334
905.451	18155
905.569	18239
905.686	18296
905.803	18247
905.921	18030
906.038	18095
906.155	18079
906.272	17969
906.389	17863
906.506	17775
906.623	17684
906.74	17729
906.857	17676
906.974	17703
907.091	17847
907.208	17954
907.324	17703
907.441	17642
907.557	17444
907.674	17463
907.79	17406
907.907	17360
908.023	17482
908.139	17444
908.256	17387
908.372	17402
908.488	17292
908.604	17166
908.72	17208
908.836	17242
908.952	17204
909.068	17143
909.184	17181
909.3	17239
909.415	17284
909.531	17193
909.647	16957
909.762	16946
909.878	16866
909.993	16877
910.108	16850
910.224	16854
910.339	16900
910.454	16733
910.57	16702
910.685	16736
910.8	16885
910.915	16782
911.03	16729
911.145	16531
911.259	16466
911.374	16519
911.489	16390
911.604	16367
911.718	16204
911.833	16299
911.947	16093
912.062	15979
912.176	16109
912.291	16219
912.405	16101
912.519	16409
912.633	16333
912.748	16219
912.862	16211
912.976	16017
913.09	15918
913.204	15941
913.318	15998
913.431	16154
913.545	16059
913.659	16093
913.772	16086
913.886	15945
914	15766
914.113	15926
914.226	15953
914.34	15751
914.453	15793
914.566	15812
914.68	15713
914.793	15599
914.906	15435
915.019	15435
915.132	15393
915.245	15416
915.358	15412
915.47	15367
915.583	15443
915.696	15443
915.809	15542
915.921	15568
916.034	15291
916.146	15279
916.259	15348
916.371	15367
916.483	15397
916.595	15283
916.708	15222
916.82	15192
916.932	15161
917.044	15329
917.156	15093
917.268	15077
917.38	15142
917.491	15020
917.603	15009
917.715	15142
917.826	15116
917.938	15020
918.049	14937
918.161	15001
918.272	15108
918.384	15058
918.495	14979
918.606	14902
918.717	14735
918.828	14754
918.939	14857
919.05	14686
919.161	14811
919.272	14625
919.383	14739
919.494	14823
919.604	14994
919.715	14815
919.826	14629
919.936	14773
920.047	14834
920.157	14716
920.267	14921
920.378	14686
920.488	14727
920.598	14785
920.708	15047
920.818	14948
920.928	14834
921.038	15058
921.148	14952
921.258	14708
921.368	14625
921.477	14533
921.587	14484
921.697	14427
921.806	14541
921.916	14332
922.025	14145
922.134	14084
922.244	14115
922.353	14240
922.462	14058
922.571	14016
922.68	13769
922.789	13769
922.898	13799
923.007	13681
923.116	13841
923.224	13746
923.333	13742
923.442	13609
923.55	13594
923.659	13658
923.767	13666
923.876	13499
923.984	13681
924.092	13483
924.201	13464
924.309	13460
924.417	13495
924.525	13434
924.633	13499
924.741	14172
924.849	13259
924.956	13316
925.064	13247
925.172	13183
925.279	13129
925.387	13225
925.494	13228
925.602	13365
925.709	13301
925.816	12932
925.924	13091
926.031	13221
926.138	13099
926.245	13244
926.352	13042
926.459	13118
926.566	13225
926.673	13080
926.779	12920
926.886	12951
926.993	12673
927.099	12738
927.206	12696
927.312	12597
927.419	12738
927.525	12730
927.631	12749
927.737	12582
927.843	12563
927.95	12441
928.056	12544
928.162	12555
928.267	12532
928.373	13175
928.479	12646
928.585	12361
928.69	12574
928.796	12506
928.901	12399
929.007	12330
929.112	12422
929.218	12372
929.323	12251
929.428	12243
929.533	12414
929.638	12216
929.743	12289
929.848	12281
929.953	12235
930.058	12114
930.163	11942
930.267	12034
930.372	12110
930.477	11840
930.581	12136
930.685	11988
930.79	11817
930.894	11916
930.998	11863
931.103	11912
931.207	11551
931.311	11478
931.415	11509
931.519	11132
931.623	11303
