Data from test_V78500241_1443.txt Node
Date: Fri Mar 25 15:19:54 CST 2022
User: usil
Spectrometer: V785-0024
Trigger mode: 0
Integration Time (sec): 4.000000E-1
Scans to average: 1
Nonlinearity correction enabled: false
Boxcar width: 0
Storing dark spectrum: false
XAxis mode: Wavelengths
Number of Pixels in Spectrum: 1024
>>>>>Begin Spectral Data<<<<<
801.071	28063
801.214	28124
801.356	27926
801.499	27930
801.641	27724
801.783	27633
801.926	27876
802.068	27580
802.211	27743
802.353	27637
802.496	27435
802.638	27431
802.78	27382
802.923	27279
803.065	27348
803.208	27310
803.35	27359
803.492	27393
803.635	27587
803.777	27431
803.919	27549
804.061	27972
804.204	27572
804.346	27606
804.488	27504
804.63	27526
804.773	27568
804.915	27618
805.057	27580
805.199	27443
805.341	27736
805.483	27789
805.626	27637
805.768	27606
805.91	27698
806.052	27732
806.194	27644
806.336	27846
806.478	27812
806.62	27713
806.762	27922
806.904	27975
807.046	28158
807.188	28090
807.33	28169
807.472	28150
807.614	28029
807.756	28219
807.898	28048
808.04	28002
808.182	27972
808.324	28093
808.465	28070
808.607	28276
808.749	28379
808.891	28455
809.033	28523
809.174	28367
809.316	28409
809.458	28303
809.6	28352
809.741	28588
809.883	28550
810.025	28656
810.166	28588
810.308	28744
810.45	28672
810.591	28546
810.733	28268
810.875	28493
811.016	28284
811.158	28265
811.299	28447
811.441	28569
811.582	28618
811.724	28546
811.865	28443
812.007	28257
812.148	28379
812.29	28478
812.431	28573
812.573	28748
812.714	28839
812.855	28972
812.997	28995
813.138	29170
813.279	29025
813.421	28987
813.562	28839
813.703	28835
813.845	28786
813.986	28386
814.127	28177
814.268	28139
814.41	28162
814.551	28246
814.692	28162
814.833	28036
814.974	28070
815.115	28105
815.256	27949
815.397	27983
815.539	28188
815.68	27953
815.821	27842
815.962	27994
816.103	28013
816.244	27892
816.385	27679
816.526	27671
816.666	27564
816.807	27401
816.948	27504
817.089	27542
817.23	27344
817.371	27287
817.512	27500
817.653	27393
817.793	27332
817.934	27370
818.075	27431
818.216	27420
818.356	27348
818.497	27325
818.638	27169
818.778	27062
818.919	27214
819.06	27370
819.2	27287
819.341	27367
819.481	27272
819.622	27515
819.762	27873
819.903	27698
820.043	27610
820.184	27656
820.324	27473
820.465	27652
820.605	27507
820.746	27477
820.886	27298
821.026	27599
821.167	27359
821.307	27469
821.447	27458
821.588	27249
821.728	27222
821.868	26948
822.008	26906
822.149	26845
822.289	26769
822.429	26670
822.569	26629
822.709	26625
822.849	26415
822.99	26495
823.13	26351
823.27	26408
823.41	26301
823.55	26065
823.69	26389
823.83	26115
823.97	26138
824.11	26016
824.25	25947
824.389	25970
824.529	26027
824.669	25940
824.809	26187
824.949	26122
825.089	26157
825.228	26107
825.368	25928
825.508	25856
825.648	25902
825.787	25928
825.927	26073
826.067	25841
826.206	25746
826.346	25936
826.485	25970
826.625	25974
826.765	25932
826.904	26001
827.044	25704
827.183	25635
827.323	25723
827.462	25696
827.601	25685
827.741	25647
827.88	25582
828.02	25571
828.159	25525
828.298	25651
828.437	25586
828.577	25476
828.716	25666
828.855	25510
828.994	25297
829.134	25415
829.273	25407
829.412	25255
829.551	25244
829.69	25297
829.829	25339
829.968	25426
830.107	25369
830.246	25240
830.385	25198
830.524	25202
830.663	25156
830.802	25019
830.941	25019
831.08	24962
831.219	25095
831.357	24897
831.496	25202
831.635	24913
831.774	24768
831.913	24791
832.051	24753
832.19	24688
832.329	24665
832.467	24753
832.606	24620
832.744	24471
832.883	24513
833.022	24486
833.16	24650
833.299	24559
833.437	24563
833.576	24677
833.714	24616
833.852	24703
833.991	24730
834.129	24745
834.267	24673
834.406	24688
834.544	24661
834.682	24810
834.821	24620
834.959	24757
835.097	24642
835.235	24623
835.373	24707
835.511	24616
835.65	24448
835.788	24376
835.926	24334
836.064	24171
836.202	24330
836.34	24479
836.478	24448
836.615	24486
836.753	24460
836.891	24475
837.029	24422
837.167	24486
837.305	24300
837.443	24338
837.58	24315
837.718	24399
837.856	24319
837.993	24232
838.131	24228
838.269	24106
838.406	24228
838.544	24106
838.681	23946
838.819	23794
838.956	23737
839.094	23699
839.231	23866
839.369	23916
839.506	24205
839.643	23969
839.781	23726
839.918	23649
840.055	23642
840.193	23687
840.33	23703
840.467	23627
840.604	23756
840.742	23893
840.879	23524
841.016	23661
841.153	23406
841.29	23882
841.427	23745
841.564	23737
841.701	23710
841.838	23630
841.975	23608
842.112	23589
842.249	23395
842.385	23356
842.522	23547
842.659	23490
842.796	23372
842.933	23448
843.069	23387
843.206	23356
843.343	23452
843.479	23421
843.616	23436
843.752	23223
843.889	23284
844.025	23349
844.162	23231
844.298	23383
844.435	23216
844.571	23162
844.708	23254
844.844	23360
844.98	23383
845.117	23425
845.253	23162
845.389	23052
845.525	23124
845.661	22995
845.798	23006
845.934	22965
846.07	22919
846.206	23094
846.342	23086
846.478	23003
846.614	22679
846.75	22592
846.886	22634
847.022	22733
847.158	22679
847.294	22596
847.429	22588
847.565	22630
847.701	22961
847.837	22421
847.972	22367
848.108	22478
848.244	22508
848.379	22322
848.515	22249
848.65	22276
848.786	22181
848.921	22428
849.057	22390
849.192	22451
849.328	22215
849.463	22192
849.598	22238
849.734	22120
849.869	21960
850.004	22044
850.14	21994
850.275	22029
850.41	21915
850.545	21964
850.68	22029
850.815	21869
850.95	21991
851.085	22150
851.22	22097
851.355	22173
851.49	21998
851.625	21918
851.76	22055
851.895	21907
852.03	21945
852.165	22120
852.299	22006
852.434	22017
852.569	22036
852.703	22101
852.838	22006
852.973	22105
853.107	22150
853.242	21892
853.376	21838
853.511	21747
853.645	21880
853.78	21949
853.914	21793
854.048	21895
854.183	21747
854.317	21857
854.451	22238
854.585	21850
854.72	21968
854.854	21991
854.988	21709
855.122	21778
855.256	21751
855.39	21755
855.524	21838
855.658	21827
855.792	21827
855.926	21876
856.06	21911
856.194	21876
856.327	21819
856.461	21671
856.595	21686
856.729	21774
856.862	21934
856.996	21800
857.13	21956
857.263	21945
857.397	21960
857.53	21701
857.664	21876
857.797	21945
857.931	21888
858.064	21892
858.197	21838
858.331	21823
858.464	21759
858.597	21679
858.731	21762
858.864	21823
858.997	21808
859.13	21789
859.263	21895
859.396	21979
859.529	21812
859.662	21857
859.795	21690
859.928	21899
860.061	21975
860.194	22036
860.327	21915
860.46	21895
860.592	21899
860.725	22002
860.858	22017
860.99	21728
861.123	21728
861.256	21732
861.388	21835
861.521	22280
861.653	21713
861.786	21534
861.918	21724
862.05	21682
862.183	21770
862.315	21732
862.447	21770
862.58	21629
862.712	21530
862.844	21526
862.976	21610
863.108	21595
863.24	21892
863.372	21405
863.504	21576
863.636	21538
863.768	21603
863.9	21500
864.032	21393
864.164	21473
864.296	21580
864.428	21561
864.559	21500
864.691	21717
864.823	21580
864.954	21500
865.086	21412
865.217	21336
865.349	21279
865.48	21317
865.612	21336
865.743	21492
865.875	21310
866.006	21370
866.137	21447
866.269	21462
866.4	21348
866.531	21321
866.662	21378
866.793	21245
866.924	21230
867.055	21374
867.186	21325
867.317	21344
867.448	21321
867.579	21359
867.71	21245
867.841	21256
867.972	21374
868.103	21226
868.233	21401
868.364	21310
868.495	21462
868.625	21591
868.756	21682
868.886	21519
869.017	21637
869.147	21698
869.278	21614
869.408	21599
869.539	21709
869.669	21625
869.799	21580
869.929	21656
870.06	21755
870.19	21762
870.32	21937
870.45	21934
870.58	21941
870.71	22192
870.84	21991
870.97	21934
871.1	21934
871.23	22063
871.36	22173
871.489	22063
871.619	22154
871.749	22295
871.879	22268
872.008	22246
872.138	22249
872.267	22226
872.397	22002
872.526	22097
872.656	22078
872.785	22021
872.915	22226
873.044	22329
873.173	22181
873.303	22280
873.432	22246
873.561	22265
873.69	22169
873.819	22131
873.948	22055
874.077	22150
874.206	22261
874.335	22192
874.464	22367
874.593	22424
874.722	22280
874.851	22386
874.979	22455
875.108	22485
875.237	22341
875.365	22253
875.494	22318
875.623	22432
875.751	22440
875.88	22535
876.008	22478
876.136	22607
876.265	22866
876.393	22900
876.521	22976
876.65	22786
876.778	22790
876.906	22721
877.034	22763
877.162	22721
877.29	22649
877.418	22733
877.546	22824
877.674	22774
877.802	22805
877.93	22790
878.058	22637
878.185	22630
878.313	22771
878.441	22706
878.568	22485
878.696	22523
878.824	22801
878.951	22915
879.079	22915
879.206	23109
879.333	22854
879.461	22706
879.588	22767
879.715	22923
879.842	23025
879.97	22809
880.097	22459
880.224	22641
880.351	22637
880.478	22481
880.605	22584
880.732	22694
880.859	22767
880.986	22527
881.112	22611
881.239	22402
881.366	22299
881.493	22280
881.619	22150
881.746	22150
881.872	22120
881.999	22139
882.125	22010
882.252	22188
882.378	22067
882.505	22154
882.631	21998
882.757	21911
882.883	21850
883.01	21835
883.136	21755
883.262	21663
883.388	21641
883.514	21766
883.64	21884
883.766	21667
883.892	21591
884.018	21622
884.143	21762
884.269	21793
884.395	21572
884.52	21412
884.646	21488
884.772	21435
884.897	21283
885.023	21462
885.148	21603
885.274	21679
885.399	21500
885.524	21424
885.65	21431
885.775	21534
885.9	21561
886.025	21614
886.15	21477
886.275	21435
886.4	21298
886.525	21348
886.65	21405
886.775	21374
886.9	21591
887.025	21713
887.149	21416
887.274	21325
887.399	21214
887.523	21287
887.648	21074
887.773	21203
887.897	21207
888.021	21298
888.146	21100
888.27	21378
888.395	21355
888.519	21291
888.643	21127
888.767	21355
888.891	21104
889.015	21070
889.139	21074
889.263	21058
889.387	21199
889.511	21203
889.635	21070
889.759	21077
889.883	21085
890.006	20952
890.13	21055
890.254	20902
890.377	20982
890.501	20788
890.624	20663
890.748	20880
890.871	20716
890.995	20530
891.118	20575
891.241	20560
891.364	20594
891.488	20640
891.611	20590
891.734	20492
891.857	20712
891.98	20457
892.103	20651
892.226	20552
892.349	20594
892.471	20385
892.594	20545
892.717	20579
892.839	20442
892.962	20446
893.085	20488
893.207	20476
893.33	20366
893.452	20381
893.575	20393
893.697	20465
893.819	20621
893.941	20636
894.064	20682
894.186	20511
894.308	20324
894.43	20537
894.552	20701
894.674	20571
894.796	20412
894.918	20457
895.04	20469
895.161	20492
895.283	20507
895.405	20511
895.526	20412
895.648	20461
895.769	20370
895.891	20545
896.012	20617
896.134	20461
896.255	20522
896.376	20347
896.498	20362
896.619	20484
896.74	20457
896.861	20526
896.982	20765
897.103	20941
897.224	20712
897.345	20629
897.466	20533
897.587	20686
897.708	20708
897.828	20590
897.949	20640
898.07	20530
898.19	20720
898.311	20731
898.431	20549
898.552	20590
898.672	20788
898.792	20625
898.913	20693
899.033	20549
899.153	20537
899.273	20309
899.393	20412
899.513	20385
899.633	20465
899.753	20381
899.873	20461
899.993	20343
900.113	20396
900.232	20408
900.352	20298
900.472	20248
900.591	20107
900.711	20183
900.83	20069
900.95	20320
901.069	20332
901.189	20115
901.308	19833
901.427	19719
901.546	19864
901.665	19788
901.784	19761
901.904	19632
902.023	19620
902.141	19297
902.26	19362
902.379	19312
902.498	19407
902.617	19270
902.735	19320
902.854	19266
902.973	19179
903.091	18985
903.21	19012
903.328	18951
903.446	18787
903.565	18749
903.683	18806
903.801	18692
903.919	18669
904.038	18730
904.156	18551
904.274	18604
904.392	18525
904.51	18395
904.627	18528
904.745	18551
904.863	18525
904.981	18308
905.098	18140
905.216	18133
905.334	18224
905.451	18171
905.569	18209
905.686	18277
905.803	18125
905.921	18011
906.038	17965
906.155	17946
906.272	17942
906.389	17950
906.506	17668
906.623	17699
906.74	17767
906.857	17649
906.974	17596
907.091	17733
907.208	17935
907.324	17638
907.441	17570
907.557	17467
907.674	17421
907.79	17303
907.907	17368
908.023	17490
908.139	17463
908.256	17368
908.372	17379
908.488	17463
908.604	17170
908.72	17189
908.836	17140
908.952	17048
909.068	17140
909.184	17288
909.3	17071
909.415	17151
909.531	17254
909.647	16972
909.762	16927
909.878	16930
909.993	16862
910.108	16877
910.224	16858
910.339	16759
910.454	16637
910.57	16710
910.685	16584
910.8	16759
910.915	16767
911.03	16702
911.145	16375
911.259	16470
911.374	16371
911.489	16413
911.604	16272
911.718	16158
911.833	16128
911.947	15994
912.062	15994
912.176	16192
912.291	16177
912.405	16253
912.519	16322
912.633	16337
912.748	16246
912.862	16147
912.976	16112
913.09	15903
913.204	15934
913.318	15994
913.431	16071
913.545	16010
913.659	16150
913.772	15941
913.886	15785
914	15724
914.113	15842
914.226	15922
914.34	15907
914.453	15671
914.566	15728
914.68	15789
914.793	15675
914.906	15431
915.019	15351
915.132	15291
915.245	15382
915.358	15363
915.47	15424
915.583	15424
915.696	15386
915.809	15431
915.921	15523
916.034	15264
916.146	15287
916.259	15370
916.371	15408
916.483	15359
916.595	15245
916.708	15192
916.82	15207
916.932	15169
917.044	15188
917.156	15142
917.268	15112
917.38	15013
917.491	14960
917.603	15070
917.715	15127
917.826	15089
917.938	14971
918.049	14864
918.161	14857
918.272	15123
918.384	15066
918.495	14986
918.606	14796
918.717	14712
918.828	14849
918.939	14887
919.05	14739
919.161	14705
919.272	14511
919.383	14651
919.494	14941
919.604	14902
919.715	14785
919.826	14621
919.936	14659
920.047	14838
920.157	14754
920.267	14982
920.378	14689
920.488	14716
920.598	14937
920.708	14895
920.818	14796
920.928	14902
921.038	15024
921.148	14998
921.258	14807
921.368	14682
921.477	14549
921.587	14396
921.697	14286
921.806	14526
921.916	14278
922.025	14134
922.134	14065
922.244	14138
922.353	14096
922.462	13928
922.571	14016
922.68	13772
922.789	13666
922.898	13822
923.007	13624
923.116	13753
923.224	13746
923.333	13643
923.442	13624
923.55	13567
923.659	13533
923.767	13681
923.876	13426
923.984	13586
924.092	13457
924.201	13537
924.309	13502
924.417	13419
924.525	13335
924.633	13419
924.741	14183
924.849	13198
924.956	13449
925.064	13141
925.172	13080
925.279	13122
925.387	13171
925.494	13240
925.602	13217
925.709	13164
925.816	13088
925.924	13110
926.031	13228
926.138	13126
926.245	13133
926.352	13015
926.459	13171
926.566	13171
926.673	13061
926.779	12848
926.886	12814
926.993	12738
927.099	12654
927.206	12730
927.312	12673
927.419	12711
927.525	12749
927.631	12715
927.737	12635
927.843	12525
927.95	12429
928.056	12536
928.162	12464
928.267	12551
928.373	13149
928.479	12688
928.585	12437
928.69	12475
928.796	12475
928.901	12391
929.007	12361
929.112	12429
929.218	12289
929.323	12239
929.428	12205
929.533	12327
929.638	12175
929.743	12155
929.848	12296
929.953	12167
930.058	12129
930.163	11859
930.267	12049
930.372	12060
930.477	11946
930.581	12045
930.685	11939
930.79	11920
930.894	11904
930.998	11847
931.103	11912
931.207	11551
931.311	11482
931.415	11414
931.519	11151
931.623	11098
