Data from test_V78500241_96.txt Node
Date: Fri Mar 25 15:10:31 CST 2022
User: usil
Spectrometer: V785-0024
Trigger mode: 0
Integration Time (sec): 4.000000E-1
Scans to average: 1
Nonlinearity correction enabled: false
Boxcar width: 0
Storing dark spectrum: false
XAxis mode: Wavelengths
Number of Pixels in Spectrum: 1024
>>>>>Begin Spectral Data<<<<<
801.071	28265
801.214	28131
801.356	28063
801.499	27991
801.641	27911
801.783	27869
801.926	27842
802.068	27785
802.211	27720
802.353	27648
802.496	27549
802.638	27526
802.78	27496
802.923	27329
803.065	27397
803.208	27351
803.35	27386
803.492	27283
803.635	27515
803.777	27450
803.919	27637
804.061	27835
804.204	27564
804.346	27511
804.488	27481
804.63	27405
804.773	27192
804.915	27450
805.057	27564
805.199	27504
805.341	27568
805.483	27500
805.626	27545
805.768	27462
805.91	27625
806.052	27686
806.194	27374
806.336	27648
806.478	27466
806.62	27435
806.762	27686
806.904	27880
807.046	27964
807.188	28029
807.33	27911
807.472	27968
807.614	27854
807.756	28002
807.898	27625
808.04	27808
808.182	27652
808.324	27736
808.465	27637
808.607	27922
808.749	28109
808.891	27960
809.033	28154
809.174	28101
809.316	28086
809.458	28070
809.6	28093
809.741	28036
809.883	28200
810.025	28181
810.166	28257
810.308	28196
810.45	28341
810.591	28131
810.733	28097
810.875	27987
811.016	27846
811.158	27884
811.299	28082
811.441	28139
811.582	28093
811.724	27899
811.865	28025
812.007	27979
812.148	27918
812.29	27903
812.431	28166
812.573	28333
812.714	28253
812.855	28508
812.997	28611
813.138	28660
813.279	28462
813.421	28481
813.562	28401
813.703	28306
813.845	28154
813.986	27899
814.127	27713
814.268	27644
814.41	27629
814.551	27603
814.692	27667
814.833	27591
814.974	27553
815.115	27618
815.256	27447
815.397	27374
815.539	27435
815.68	27348
815.821	27367
815.962	27431
816.103	27298
816.244	27355
816.385	27108
816.526	26940
816.666	26845
816.807	26857
816.948	26758
817.089	26861
817.23	26705
817.371	26853
817.512	26758
817.653	26705
817.793	26682
817.934	26689
818.075	26838
818.216	26720
818.356	26746
818.497	26514
818.638	26374
818.778	26461
818.919	26476
819.06	26461
819.2	26678
819.341	26724
819.481	26621
819.622	26773
819.762	27036
819.903	26933
820.043	26819
820.184	26842
820.324	26678
820.465	26815
820.605	26826
820.746	26739
820.886	26674
821.026	26663
821.167	26621
821.307	26640
821.447	26705
821.588	26480
821.728	26400
821.868	26130
822.008	26145
822.149	26172
822.289	26172
822.429	25898
822.569	25883
822.709	25795
822.849	25613
822.99	25772
823.13	25483
823.27	25457
823.41	25369
823.55	25274
823.69	25339
823.83	25354
823.97	25285
824.11	25160
824.25	25156
824.389	25156
824.529	25206
824.669	25148
824.809	25362
824.949	25247
825.089	25179
825.228	25099
825.368	25000
825.508	24844
825.648	24882
825.787	25072
825.927	24890
826.067	24951
826.206	24863
826.346	25065
826.485	25091
826.625	24928
826.765	24981
826.904	25008
827.044	24715
827.183	24734
827.323	24627
827.462	24646
827.601	24688
827.741	24498
827.88	24852
828.02	24525
828.159	24517
828.298	24601
828.437	24726
828.577	24677
828.716	24783
828.855	24513
828.994	24350
829.134	24350
829.273	24327
829.412	24251
829.551	24247
829.69	24239
829.829	24334
829.968	24159
830.107	24254
830.246	24277
830.385	24292
830.524	24125
830.663	24026
830.802	24007
830.941	23847
831.08	24015
831.219	23885
831.357	23916
831.496	23980
831.635	23783
831.774	23809
831.913	23733
832.051	23516
832.19	23573
832.329	23589
832.467	23585
832.606	23402
832.744	23337
832.883	23436
833.022	23410
833.16	23486
833.299	23509
833.437	23467
833.576	23478
833.714	23459
833.852	23429
833.991	23528
834.129	23509
834.267	23600
834.406	23425
834.544	23512
834.682	23505
834.821	23467
834.959	23680
835.097	23379
835.235	23429
835.373	23493
835.511	23318
835.65	23398
835.788	23402
835.926	23124
836.064	23269
836.202	23322
836.34	23197
836.478	23395
836.615	23284
836.753	23398
836.891	23391
837.029	23284
837.167	23292
837.305	23239
837.443	23117
837.58	23048
837.718	23052
837.856	23303
837.993	23121
838.131	23162
838.269	23124
838.406	22991
838.544	22949
838.681	22706
838.819	22755
838.956	22462
839.094	22588
839.231	22645
839.369	22881
839.506	22930
839.643	22744
839.781	22512
839.918	22554
840.055	22512
840.193	22546
840.33	22478
840.467	22474
840.604	22519
840.742	22763
840.879	22360
841.016	22481
841.153	22329
841.29	22523
841.427	22527
841.564	22466
841.701	22455
841.838	22325
841.975	22329
842.112	22329
842.249	22219
842.385	22101
842.522	22432
842.659	22272
842.796	22169
842.933	22192
843.069	22128
843.206	22181
843.343	22348
843.479	22284
843.616	22150
843.752	21922
843.889	21876
844.025	22124
844.162	21934
844.298	22010
844.435	21941
844.571	21895
844.708	21869
844.844	22032
844.98	22139
845.117	22036
845.253	21812
845.389	21766
845.525	21854
845.661	21732
845.798	21660
845.934	21663
846.07	21568
846.206	21603
846.342	21774
846.478	21523
846.614	21370
846.75	21275
846.886	21382
847.022	21420
847.158	21428
847.294	21340
847.429	21481
847.565	21325
847.701	21572
847.837	21119
847.972	20979
848.108	21085
848.244	21176
848.379	21047
848.515	20952
848.65	20899
848.786	21081
848.921	20937
849.057	21173
849.192	21066
849.328	21001
849.463	20925
849.598	21055
849.734	20800
849.869	20781
850.004	20564
850.14	20670
850.275	20693
850.41	20602
850.545	20678
850.68	20598
850.815	20701
850.95	20648
851.085	20667
851.22	20674
851.355	20602
851.49	20598
851.625	20564
851.76	20423
851.895	20495
852.03	20488
852.165	20667
852.299	20522
852.434	20815
852.569	20689
852.703	20549
852.838	20667
852.973	20762
853.107	20769
853.242	20590
853.376	20541
853.511	20389
853.645	20385
853.78	20545
853.914	20526
854.048	20465
854.183	20362
854.317	20404
854.451	20644
854.585	20423
854.72	20533
854.854	20564
854.988	20305
855.122	20526
855.256	20301
855.39	20305
855.524	20503
855.658	20476
855.792	20282
855.926	20507
856.06	20537
856.194	20613
856.327	20400
856.461	20332
856.595	20431
856.729	20431
856.862	20533
856.996	20423
857.13	20533
857.263	20568
857.397	20617
857.53	20343
857.664	20423
857.797	20419
857.931	20575
858.064	20393
858.197	20465
858.331	20396
858.464	20393
858.597	20191
858.731	20271
858.864	20324
858.997	20446
859.13	20511
859.263	20408
859.396	20503
859.529	20400
859.662	20351
859.795	20351
859.928	20317
860.061	20495
860.194	20488
860.327	20454
860.46	20370
860.592	20442
860.725	20457
860.858	20412
860.99	20301
861.123	20164
861.256	20400
861.388	20317
861.521	20883
861.653	20214
861.786	20210
861.918	20221
862.05	20309
862.183	20309
862.315	20366
862.447	20533
862.58	20545
862.712	20259
862.844	20084
862.976	20229
863.108	20172
863.24	20552
863.372	20054
863.504	20043
863.636	20084
863.768	20206
863.9	20024
864.032	19993
864.164	19982
864.296	20054
864.428	20088
864.559	20145
864.691	20035
864.823	20229
864.954	20043
865.086	19967
865.217	19967
865.349	19871
865.48	19890
865.612	19967
865.743	20187
865.875	19963
866.006	19951
866.137	20008
866.269	19883
866.4	19925
866.531	19913
866.662	19967
866.793	20024
866.924	19932
867.055	19989
867.186	19913
867.317	19894
867.448	19868
867.579	19868
867.71	19734
867.841	19799
867.972	19887
868.103	19963
868.233	19928
868.364	19772
868.495	19959
868.625	20176
868.756	20263
868.886	20065
869.017	20084
869.147	20282
869.278	20225
869.408	20145
869.539	20176
869.669	20187
869.799	20176
869.929	20286
870.06	20142
870.19	20461
870.32	20389
870.45	20423
870.58	20465
870.71	20682
870.84	20674
870.97	20568
871.1	20476
871.23	20754
871.36	20617
871.489	20587
871.619	20632
871.749	20765
871.879	20765
872.008	20906
872.138	20746
872.267	20712
872.397	20560
872.526	20613
872.656	20537
872.785	20598
872.915	20750
873.044	20750
873.173	20651
873.303	20739
873.432	20743
873.561	20773
873.69	20743
873.819	20773
873.948	20819
874.077	20857
874.206	20765
874.335	20826
874.464	20982
874.593	21009
874.722	20982
874.851	21135
874.979	21032
875.108	21100
875.237	20948
875.365	20758
875.494	21081
875.623	21062
875.751	21058
875.88	21112
876.008	21123
876.136	21222
876.265	21416
876.393	21511
876.521	21515
876.65	21542
876.778	21447
876.906	21382
877.034	21294
877.162	21397
877.29	21256
877.418	21302
877.546	21401
877.674	21382
877.802	21386
877.93	21260
878.058	21382
878.185	21241
878.313	21218
878.441	21477
878.568	21195
878.696	21268
878.824	21313
878.951	21367
879.079	21488
879.206	21679
879.333	21492
879.461	21367
879.588	21382
879.715	21576
879.842	21447
879.97	21431
880.097	21226
880.224	21169
880.351	21294
880.478	21218
880.605	21051
880.732	21184
880.859	21443
880.986	21272
881.112	21268
881.239	21135
881.366	20952
881.493	20910
881.619	20731
881.746	20750
881.872	20777
881.999	20777
882.125	20686
882.252	20918
882.378	20804
882.505	20880
882.631	20579
882.757	20537
882.883	20606
883.01	20667
883.136	20579
883.262	20431
883.388	20332
883.514	20495
883.64	20522
883.766	20427
883.892	20191
884.018	20362
884.143	20587
884.269	20583
884.395	20240
884.52	20199
884.646	20256
884.772	20107
884.897	20214
885.023	20084
885.148	20275
885.274	20298
885.399	20225
885.524	20183
885.65	20221
885.775	20183
885.9	20145
886.025	20263
886.15	20244
886.275	20088
886.4	20153
886.525	20149
886.65	20062
886.775	20024
886.9	20286
887.025	20427
887.149	20168
887.274	19936
887.399	19947
887.523	19894
887.648	19928
887.773	19898
887.897	19875
888.021	19902
888.146	19837
888.27	19982
888.395	20119
888.519	19860
888.643	19978
888.767	19936
888.891	19890
889.015	19616
889.139	19902
889.263	19620
889.387	19723
889.511	19947
889.635	19833
889.759	19693
889.883	19609
890.006	19734
890.13	19814
890.254	19594
890.377	19628
890.501	19419
890.624	19396
890.748	19499
890.871	19403
890.995	19278
891.118	19331
891.241	19316
891.364	19263
891.488	19407
891.611	19232
891.734	19259
891.857	19369
891.98	19312
892.103	19274
892.226	19221
892.349	19266
892.471	19187
892.594	19335
892.717	19304
892.839	19122
892.962	19362
893.085	19293
893.207	19217
893.33	19031
893.452	19152
893.575	19202
893.697	19209
893.819	19320
893.941	19407
894.064	19232
894.186	19129
894.308	19095
894.43	19335
894.552	19381
894.674	19266
894.796	19114
894.918	19251
895.04	19236
895.161	19320
895.283	19213
895.405	19050
895.526	19145
895.648	19221
895.769	19369
895.891	19194
896.012	19377
896.134	19316
896.255	19217
896.376	19255
896.498	19247
896.619	19301
896.74	19346
896.861	19362
896.982	19605
897.103	19693
897.224	19544
897.345	19403
897.466	19430
897.587	19483
897.708	19597
897.828	19445
897.949	19468
898.07	19278
898.19	19392
898.311	19449
898.431	19308
898.552	19362
898.672	19483
898.792	19571
898.913	19525
899.033	19244
899.153	19190
899.273	19141
899.393	19080
899.513	19251
899.633	19240
899.753	19278
899.873	19000
899.993	19312
900.113	19080
900.232	19217
900.352	19190
900.472	19000
900.591	18924
900.711	18993
900.83	18878
900.95	19122
901.069	19114
901.189	18954
901.308	18677
901.427	18642
901.546	18578
901.665	18601
901.784	18620
901.904	18536
902.023	18319
902.141	18144
902.26	18068
902.379	18186
902.498	18087
902.617	18114
902.735	18095
902.854	18098
902.973	17977
903.091	17745
903.21	17661
903.328	17771
903.446	17608
903.565	17573
903.683	17471
903.801	17566
903.919	17592
904.038	17668
904.156	17391
904.274	17391
904.392	17372
904.51	17364
904.627	17395
904.745	17402
904.863	17478
904.981	17151
905.098	17052
905.216	16984
905.334	17113
905.451	17033
905.569	16854
905.686	17018
905.803	16972
905.921	16771
906.038	16930
906.155	16896
906.272	16630
906.389	16809
906.506	16519
906.623	16535
906.74	16634
906.857	16390
906.974	16360
907.091	16615
907.208	16675
907.324	16527
907.441	16489
907.557	16310
907.674	16226
907.79	16204
907.907	16238
908.023	16322
908.139	16238
908.256	16204
908.372	16154
908.488	16063
908.604	16017
908.72	15945
908.836	15991
908.952	15922
909.068	15945
909.184	16101
909.3	15869
909.415	15945
909.531	15819
909.647	15671
909.762	15652
909.878	15504
909.993	15641
910.108	15595
910.224	15473
910.339	15644
910.454	15561
910.57	15477
910.685	15264
910.8	15652
910.915	15545
911.03	15504
911.145	15241
911.259	15268
911.374	15252
911.489	15146
911.604	15112
911.718	14986
911.833	15032
911.947	14899
912.062	14838
912.176	14842
912.291	14979
912.405	14960
912.519	15180
912.633	15020
912.748	15119
912.862	14929
912.976	14781
913.09	14606
913.204	14663
913.318	14895
913.431	14906
913.545	14883
913.659	14857
913.772	14758
913.886	14674
914	14686
914.113	14693
914.226	14693
914.34	14632
914.453	14579
914.566	14610
914.68	14587
914.793	14564
914.906	14290
915.019	14256
915.132	14229
915.245	14282
915.358	14240
915.47	14233
915.583	14298
915.696	14282
915.809	14362
915.921	14301
916.034	14275
916.146	14225
916.259	14115
916.371	14301
916.483	14145
916.595	14107
916.708	14195
916.82	14157
916.932	14115
917.044	14050
917.156	14081
917.268	14043
917.38	13928
917.491	13940
917.603	13936
917.715	14005
917.826	14001
917.938	13894
918.049	13674
918.161	13814
918.272	13970
918.384	14008
918.495	13769
918.606	13723
918.717	13571
918.828	13746
918.939	13784
919.05	13658
919.161	13674
919.272	13502
919.383	13578
919.494	13628
919.604	13978
919.715	13685
919.826	13628
919.936	13666
920.047	13765
920.157	13647
920.267	13864
920.378	13681
920.488	13727
920.598	13757
920.708	13932
920.818	13860
920.928	13788
921.038	13967
921.148	13906
921.258	13601
921.368	13533
921.477	13468
921.587	13346
921.697	13316
921.806	13464
921.916	13278
922.025	13072
922.134	13084
922.244	13103
922.353	13057
922.462	12947
922.571	12871
922.68	12734
922.789	12764
922.898	12684
923.007	12642
923.116	12692
923.224	12589
923.333	12722
923.442	12517
923.55	12483
923.659	12540
923.767	12616
923.876	12486
923.984	12540
924.092	12403
924.201	12448
924.309	12410
924.417	12437
924.525	12369
924.633	12498
924.741	13168
924.849	12216
924.956	12308
925.064	12205
925.172	12167
925.279	12136
925.387	12216
925.494	12186
925.602	12285
925.709	12121
925.816	12133
925.924	12076
926.031	12232
926.138	12178
926.245	12125
926.352	11999
926.459	12163
926.566	12235
926.673	12106
926.779	11893
926.886	11939
926.993	11893
927.099	11688
927.206	11794
927.312	11764
927.419	11752
927.525	11722
927.631	11733
927.737	11551
927.843	11604
927.95	11543
928.056	11562
928.162	11722
928.267	11691
928.373	12114
928.479	11672
928.585	11452
928.69	11486
928.796	11604
928.901	11474
929.007	11318
929.112	11509
929.218	11444
929.323	11345
929.428	11269
929.533	11425
929.638	11258
929.743	11311
929.848	11368
929.953	11258
930.058	11128
930.163	11064
930.267	11029
930.372	11155
930.477	11022
930.581	11277
930.685	11117
930.79	10869
930.894	10934
930.998	10831
931.103	11041
931.207	10691
931.311	10588
931.415	10527
931.519	10261
931.623	10246
