Data from test_V78500241_462.txt Node
Date: Fri Mar 25 15:13:04 CST 2022
User: usil
Spectrometer: V785-0024
Trigger mode: 0
Integration Time (sec): 4.000000E-1
Scans to average: 1
Nonlinearity correction enabled: false
Boxcar width: 0
Storing dark spectrum: false
XAxis mode: Wavelengths
Number of Pixels in Spectrum: 1024
>>>>>Begin Spectral Data<<<<<
801.071	27279
801.214	27355
801.356	27332
801.499	27127
801.641	26948
801.783	26861
801.926	26940
802.068	26937
802.211	26754
802.353	26849
802.496	26560
802.638	26571
802.78	26552
802.923	26511
803.065	26526
803.208	26457
803.35	26446
803.492	26834
803.635	26849
803.777	26606
803.919	26849
804.061	26979
804.204	26625
804.346	26629
804.488	26644
804.63	26716
804.773	26648
804.915	26705
805.057	26708
805.199	26750
805.341	26758
805.483	26838
805.626	26762
805.768	26716
805.91	26876
806.052	26853
806.194	26750
806.336	26986
806.478	26857
806.62	26807
806.762	26910
806.904	27066
807.046	27252
807.188	27260
807.33	27256
807.472	27233
807.614	27138
807.756	27173
807.898	27093
808.04	27154
808.182	27024
808.324	27142
808.465	27005
808.607	27401
808.749	27469
808.891	27545
809.033	27641
809.174	27587
809.316	27431
809.458	27363
809.6	27378
809.741	27511
809.883	27561
810.025	27641
810.166	27690
810.308	27854
810.45	27705
810.591	27614
810.733	27553
810.875	27561
811.016	27427
811.158	27355
811.299	27538
811.441	27572
811.582	27530
811.724	27397
811.865	27363
812.007	27408
812.148	27317
812.29	27287
812.431	27481
812.573	27724
812.714	27823
812.855	27975
812.997	28086
813.138	28215
813.279	28257
813.421	28036
813.562	28059
813.703	27812
813.845	27656
813.986	27374
814.127	27340
814.268	27070
814.41	27055
814.551	26956
814.692	27123
814.833	26975
814.974	27062
815.115	27039
815.256	26986
815.397	27005
815.539	26914
815.68	26842
815.821	26891
815.962	26880
816.103	26800
816.244	26697
816.385	26701
816.526	26587
816.666	26431
816.807	26339
816.948	26484
817.089	26579
817.23	26469
817.371	26533
817.512	26358
817.653	26286
817.793	26366
817.934	26393
818.075	26434
818.216	26286
818.356	26377
818.497	26233
818.638	25936
818.778	26168
818.919	26180
819.06	26138
819.2	26229
819.341	26427
819.481	26374
819.622	26412
819.762	26613
819.903	26606
820.043	26606
820.184	26465
820.324	26609
820.465	26545
820.605	26503
820.746	26419
820.886	26457
821.026	26495
821.167	26457
821.307	26575
821.447	26317
821.588	26233
821.728	26221
821.868	25997
822.008	25966
822.149	25856
822.289	25723
822.429	25567
822.569	25529
822.709	25533
822.849	25403
822.99	25335
823.13	25339
823.27	25270
823.41	25137
823.55	24977
823.69	25168
823.83	25198
823.97	25278
824.11	24905
824.25	25069
824.389	24962
824.529	25008
824.669	25179
824.809	24958
824.949	25023
825.089	25034
825.228	25004
825.368	24905
825.508	24954
825.648	24863
825.787	24833
825.927	24878
826.067	24852
826.206	24867
826.346	24878
826.485	24875
826.625	24856
826.765	24913
826.904	24863
827.044	24707
827.183	24642
827.323	24498
827.462	24525
827.601	24726
827.741	24563
827.88	24490
828.02	24475
828.159	24623
828.298	24608
828.437	24661
828.577	24646
828.716	24658
828.855	24597
828.994	24357
829.134	24232
829.273	24315
829.412	24277
829.551	24213
829.69	24270
829.829	24281
829.968	24475
830.107	24414
830.246	24239
830.385	24315
830.524	24243
830.663	24049
830.802	23996
830.941	23961
831.08	23931
831.219	23980
831.357	24072
831.496	24068
831.635	24022
831.774	23786
831.913	23939
832.051	23771
832.19	23733
832.329	23764
832.467	23653
832.606	23570
832.744	23642
832.883	23638
833.022	23604
833.16	23577
833.299	23710
833.437	23570
833.576	23646
833.714	23668
833.852	23756
833.991	23653
834.129	23882
834.267	23775
834.406	23729
834.544	23748
834.682	23581
834.821	23615
834.959	23882
835.097	23611
835.235	23707
835.373	23589
835.511	23642
835.65	23455
835.788	23566
835.926	23467
836.064	23334
836.202	23337
836.34	23535
836.478	23630
836.615	23558
836.753	23535
836.891	23520
837.029	23402
837.167	23482
837.305	23269
837.443	23284
837.58	23368
837.718	23372
837.856	23486
837.993	23330
838.131	23288
838.269	23299
838.406	23235
838.544	23162
838.681	23109
838.819	22927
838.956	22877
839.094	22911
839.231	22934
839.369	22987
839.506	23178
839.643	23132
839.781	22889
839.918	22805
840.055	22824
840.193	22801
840.33	22774
840.467	22809
840.604	22854
840.742	23079
840.879	22763
841.016	22675
841.153	22683
841.29	22923
841.427	22763
841.564	22847
841.701	22767
841.838	22706
841.975	22611
842.112	22710
842.249	22478
842.385	22500
842.522	22725
842.659	22656
842.796	22485
842.933	22660
843.069	22500
843.206	22474
843.343	22596
843.479	22470
843.616	22440
843.752	22295
843.889	22322
844.025	22523
844.162	22295
844.298	22432
844.435	22299
844.571	22363
844.708	22352
844.844	22402
844.98	22322
845.117	22462
845.253	22272
845.389	22284
845.525	22322
845.661	22150
845.798	21991
845.934	22105
846.07	22013
846.206	22150
846.342	22120
846.478	21964
846.614	21724
846.75	21720
846.886	21831
847.022	21869
847.158	21876
847.294	21880
847.429	21785
847.565	21770
847.701	21979
847.837	21500
847.972	21515
848.108	21507
848.244	21622
848.379	21443
848.515	21424
848.65	21378
848.786	21382
848.921	21329
849.057	21511
849.192	21496
849.328	21496
849.463	21511
849.598	21466
849.734	21233
849.869	21230
850.004	21047
850.14	21131
850.275	21119
850.41	21058
850.545	21070
850.68	21123
850.815	21093
850.95	21287
851.085	21359
851.22	21211
851.355	21184
851.49	21074
851.625	21119
851.76	21169
851.895	21112
852.03	21039
852.165	21169
852.299	21188
852.434	21085
852.569	21188
852.703	21169
852.838	21077
852.973	21203
853.107	21291
853.242	21161
853.376	20986
853.511	20883
853.645	20838
853.78	21017
853.914	20963
854.048	20925
854.183	20902
854.317	20861
854.451	21252
854.585	21058
854.72	20933
854.854	21070
854.988	20830
855.122	21017
855.256	20830
855.39	20948
855.524	21074
855.658	20963
855.792	20971
855.926	21039
856.06	20967
856.194	21005
856.327	21036
856.461	20929
856.595	20804
856.729	20910
856.862	21066
856.996	21009
857.13	21020
857.263	21024
857.397	21017
857.53	20910
857.664	20937
857.797	21058
857.931	20975
858.064	20941
858.197	21058
858.331	20956
858.464	21017
858.597	20792
858.731	20826
858.864	20918
858.997	21028
859.13	21089
859.263	20982
859.396	21195
859.529	20921
859.662	20937
859.795	20937
859.928	20967
860.061	21142
860.194	21131
860.327	20982
860.46	20967
860.592	21062
860.725	21131
860.858	21096
860.99	20998
861.123	20902
861.256	20902
861.388	20929
861.521	21739
861.653	20834
861.786	20815
861.918	20823
862.05	20891
862.183	20807
862.315	20872
862.447	20979
862.58	20925
862.712	20609
862.844	20727
862.976	20804
863.108	20796
863.24	21116
863.372	20629
863.504	20602
863.636	20712
863.768	20754
863.9	20670
864.032	20632
864.164	20632
864.296	20648
864.428	20796
864.559	20739
864.691	20693
864.823	20750
864.954	20587
865.086	20674
865.217	20587
865.349	20522
865.48	20613
865.612	20606
865.743	20716
865.875	20522
866.006	20473
866.137	20575
866.269	20636
866.4	20560
866.531	20465
866.662	20415
866.793	20400
866.924	20454
867.055	20625
867.186	20457
867.317	20412
867.448	20492
867.579	20457
867.71	20488
867.841	20396
867.972	20454
868.103	20408
868.233	20511
868.364	20545
868.495	20594
868.625	20682
868.756	20967
868.886	20678
869.017	20807
869.147	20887
869.278	20891
869.408	20796
869.539	20727
869.669	20788
869.799	20941
869.929	20891
870.06	20857
870.19	21036
870.32	20990
870.45	21074
870.58	21157
870.71	21214
870.84	21241
870.97	21188
871.1	21116
871.23	21313
871.36	21431
871.489	21355
871.619	21298
871.749	21306
871.879	21393
872.008	21458
872.138	21408
872.267	21378
872.397	21272
872.526	21199
872.656	21157
872.785	21100
872.915	21287
873.044	21504
873.173	21477
873.303	21370
873.432	21405
873.561	21568
873.69	21397
873.819	21374
873.948	21488
874.077	21340
874.206	21401
874.335	21416
874.464	21439
874.593	21561
874.722	21583
874.851	21667
874.979	21583
875.108	21671
875.237	21732
875.365	21382
875.494	21549
875.623	21660
875.751	21431
875.88	21583
876.008	21671
876.136	21797
876.265	21960
876.393	22101
876.521	22048
876.65	22021
876.778	22006
876.906	21903
877.034	21937
877.162	21880
877.29	21953
877.418	21846
877.546	21960
877.674	21975
877.802	21880
877.93	21968
878.058	21941
878.185	21850
878.313	21998
878.441	21991
878.568	21903
878.696	21819
878.824	21934
878.951	22143
879.079	21987
879.206	22234
879.333	22128
879.461	21922
879.588	22105
879.715	22246
879.842	22287
879.97	22078
880.097	21793
880.224	21720
880.351	21580
880.478	21823
880.605	21728
880.732	21724
880.859	21998
880.986	21694
881.112	21736
881.239	21637
881.366	21580
881.493	21534
881.619	21523
881.746	21351
881.872	21344
881.999	21313
882.125	21279
882.252	21405
882.378	21287
882.505	21359
882.631	21313
882.757	21131
882.883	21116
883.01	21146
883.136	21036
883.262	20952
883.388	20960
883.514	20986
883.64	21039
883.766	21005
883.892	20788
884.018	20899
884.143	20933
884.269	21051
884.395	20708
884.52	20708
884.646	20636
884.772	20667
884.897	20545
885.023	20792
885.148	20788
885.274	20826
885.399	20830
885.524	20720
885.65	20773
885.775	20743
885.9	20697
886.025	20819
886.15	20712
886.275	20560
886.4	20514
886.525	20606
886.65	20667
886.775	20648
886.9	20864
887.025	20895
887.149	20724
887.274	20583
887.399	20438
887.523	20476
887.648	20389
887.773	20381
887.897	20541
888.021	20495
888.146	20457
888.27	20530
888.395	20537
888.519	20514
888.643	20469
888.767	20609
888.891	20381
889.015	20248
889.139	20381
889.263	20282
889.387	20495
889.511	20552
889.635	20309
889.759	20305
889.883	20229
890.006	20305
890.13	20305
890.254	20157
890.377	20145
890.501	20027
890.624	19993
890.748	20142
890.871	20107
890.995	19818
891.118	19803
891.241	19856
891.364	19864
891.488	19830
891.611	19799
891.734	19887
891.857	19887
891.98	19875
892.103	19887
892.226	19959
892.349	19799
892.471	19662
892.594	19845
892.717	19788
892.839	19742
892.962	19826
893.085	19845
893.207	19890
893.33	19662
893.452	19658
893.575	19696
893.697	19715
893.819	19883
893.941	20039
894.064	19883
894.186	19643
894.308	19616
894.43	19807
894.552	19887
894.674	19803
894.796	19655
894.918	19689
895.04	19601
895.161	19883
895.283	19715
895.405	19723
895.526	19757
895.648	19658
895.769	19761
895.891	19875
896.012	19784
896.134	19723
896.255	19674
896.376	19776
896.498	19727
896.619	19871
896.74	19765
896.861	19852
896.982	20058
897.103	20142
897.224	20046
897.345	19925
897.466	19890
897.587	19993
897.708	20077
897.828	20043
897.949	19982
898.07	19917
898.19	19963
898.311	20046
898.431	19970
898.552	19955
898.672	20084
898.792	20058
898.913	19959
899.033	20016
899.153	19753
899.273	19700
899.393	19712
899.513	19677
899.633	19841
899.753	19750
899.873	19685
899.993	19750
900.113	19605
900.232	19746
900.352	19666
900.472	19552
900.591	19487
900.711	19533
900.83	19590
900.95	19632
901.069	19521
901.189	19411
901.308	19114
901.427	19050
901.546	19110
901.665	19156
901.784	19072
901.904	19000
902.023	18802
902.141	18719
902.26	18612
902.379	18669
902.498	18521
902.617	18646
902.735	18703
902.854	18612
902.973	18574
903.091	18376
903.21	18201
903.328	18342
903.446	18228
903.565	18220
903.683	18171
903.801	18026
903.919	18076
904.038	18045
904.156	17882
904.274	17965
904.392	17828
904.51	17802
904.627	17790
904.745	17939
904.863	17897
904.981	17707
905.098	17558
905.216	17436
905.334	17589
905.451	17493
905.569	17528
905.686	17558
905.803	17528
905.921	17292
906.038	17532
906.155	17341
906.272	17261
906.389	17223
906.506	17136
906.623	17117
906.74	17071
906.857	16957
906.974	16911
907.091	17162
907.208	17151
907.324	17121
907.441	17003
907.557	16774
907.674	16820
907.79	16729
907.907	16843
908.023	16782
908.139	16866
908.256	16790
908.372	16664
908.488	16641
908.604	16649
908.72	16424
908.836	16611
908.952	16519
909.068	16519
909.184	16675
909.3	16561
909.415	16592
909.531	16432
909.647	16166
909.762	16276
909.878	16230
909.993	16314
910.108	16223
910.224	16162
910.339	16272
910.454	16086
910.57	16032
910.685	15994
910.8	16215
910.915	16280
911.03	16010
911.145	16021
911.259	15823
911.374	15816
911.489	15827
911.604	15713
911.718	15587
911.833	15587
911.947	15561
912.062	15310
912.176	15568
912.291	15629
912.405	15625
912.519	15789
912.633	15884
912.748	15690
912.862	15667
912.976	15412
913.09	15211
913.204	15382
913.318	15363
913.431	15469
913.545	15443
913.659	15606
913.772	15306
913.886	15302
914	15256
914.113	15374
914.226	15283
914.34	15233
914.453	15131
914.566	15252
914.68	14982
914.793	15009
914.906	14971
915.019	14845
915.132	14746
915.245	14891
915.358	14842
915.47	14777
915.583	14716
915.696	14933
915.809	15013
915.921	15020
916.034	14819
916.146	14697
916.259	14689
916.371	14857
916.483	14804
916.595	14686
916.708	14678
916.82	14708
916.932	14583
917.044	14678
917.156	14564
917.268	14484
917.38	14587
917.491	14526
917.603	14590
917.715	14549
917.826	14670
917.938	14461
918.049	14442
918.161	14412
918.272	14693
918.384	14587
918.495	14377
918.606	14271
918.717	14259
918.828	14210
918.939	14305
919.05	14237
919.161	14294
919.272	14069
919.383	14130
919.494	14290
919.604	14393
919.715	14275
919.826	14130
919.936	14183
920.047	14324
920.157	14172
920.267	14438
920.378	14267
920.488	14134
920.598	14438
920.708	14549
920.818	14377
920.928	14358
921.038	14507
921.148	14495
921.258	14187
921.368	14031
921.477	13963
921.587	14016
921.697	13849
921.806	14027
921.916	13837
922.025	13723
922.134	13643
922.244	13499
922.353	13700
922.462	13495
922.571	13365
922.68	13297
922.789	13285
922.898	13289
923.007	13213
923.116	13339
923.224	13232
923.333	13175
923.442	13053
923.55	13160
923.659	13118
923.767	13202
923.876	13061
923.984	13114
924.092	13065
924.201	13023
924.309	13072
924.417	13042
924.525	12897
924.633	12970
924.741	13822
924.849	12719
924.956	12981
925.064	12817
925.172	12627
925.279	12639
925.387	12681
925.494	12726
925.602	12795
925.709	12787
925.816	12525
925.924	12585
926.031	12726
926.138	12623
926.245	12662
926.352	12570
926.459	12662
926.566	12753
926.673	12673
926.779	12517
926.886	12384
926.993	12327
927.099	12300
927.206	12235
927.312	12148
927.419	12338
927.525	12258
927.631	12338
927.737	12175
927.843	12106
927.95	12053
928.056	12087
928.162	12148
928.267	12205
928.373	12734
928.479	12155
928.585	11950
928.69	12076
928.796	12038
928.901	11992
929.007	11737
929.112	11984
929.218	11916
929.323	11859
929.428	11767
929.533	11893
929.638	11775
929.743	11767
929.848	11863
929.953	11756
930.058	11665
930.163	11463
930.267	11566
930.372	11661
930.477	11516
930.581	11703
930.685	11577
930.79	11467
930.894	11414
930.998	11318
931.103	11509
931.207	11261
931.311	11079
931.415	10987
931.519	10816
931.623	10740
