Data from test_V78500241_2942.txt Node
Date: Fri Mar 25 15:30:20 CST 2022
User: usil
Spectrometer: V785-0024
Trigger mode: 0
Integration Time (sec): 4.000000E-1
Scans to average: 1
Nonlinearity correction enabled: false
Boxcar width: 0
Storing dark spectrum: false
XAxis mode: Wavelengths
Number of Pixels in Spectrum: 1024
>>>>>Begin Spectral Data<<<<<
801.071	27237
801.214	27157
801.356	26902
801.499	26842
801.641	26792
801.783	26674
801.926	26746
802.068	26682
802.211	26705
802.353	26598
802.496	26579
802.638	26393
802.78	26495
802.923	26309
803.065	26176
803.208	26286
803.35	26404
803.492	26667
803.635	26533
803.777	26396
803.919	26571
804.061	26849
804.204	26568
804.346	26495
804.488	26457
804.63	26545
804.773	26396
804.915	26609
805.057	26640
805.199	26659
805.341	26571
805.483	26708
805.626	26724
805.768	26537
805.91	26693
806.052	26659
806.194	26541
806.336	26819
806.478	26598
806.62	26552
806.762	26746
806.904	26876
807.046	27218
807.188	27119
807.33	27146
807.472	27077
807.614	27070
807.756	26944
807.898	26902
808.04	26921
808.182	26750
808.324	26899
808.465	26971
808.607	27104
808.749	27218
808.891	27401
809.033	27340
809.174	27142
809.316	27237
809.458	27089
809.6	27222
809.741	27397
809.883	27355
810.025	27435
810.166	27504
810.308	27469
810.45	27553
810.591	27382
810.733	27310
810.875	27279
811.016	27119
811.158	27188
811.299	27325
811.441	27431
811.582	27317
811.724	27184
811.865	27203
812.007	27146
812.148	27283
812.29	27245
812.431	27378
812.573	27466
812.714	27606
812.855	27690
812.997	27755
813.138	27956
813.279	27960
813.421	27766
813.562	27656
813.703	27564
813.845	27557
813.986	27192
814.127	27039
814.268	26830
814.41	26857
814.551	26880
814.692	27001
814.833	26823
814.974	26857
815.115	26796
815.256	26762
815.397	26815
815.539	26849
815.68	26708
815.821	26575
815.962	26644
816.103	26674
816.244	26594
816.385	26609
816.526	26408
816.666	26248
816.807	26054
816.948	26305
817.089	26187
817.23	26248
817.371	26027
817.512	26252
817.653	26214
817.793	26039
817.934	26050
818.075	26168
818.216	26199
818.356	26130
818.497	26077
818.638	25753
818.778	25826
818.919	25791
819.06	26020
819.2	26062
819.341	26096
819.481	26107
819.622	26267
819.762	26404
819.903	26522
820.043	26324
820.184	26275
820.324	26263
820.465	26457
820.605	26176
820.746	26084
820.886	26161
821.026	26046
821.167	26107
821.307	26275
821.447	26043
821.588	26100
821.728	25936
821.868	25693
822.008	25662
822.149	25639
822.289	25571
822.429	25282
822.569	25358
822.709	25263
822.849	25168
822.99	25065
823.13	25099
823.27	25053
823.41	24928
823.55	24837
823.69	24947
823.83	24875
823.97	24798
824.11	24730
824.25	24749
824.389	24703
824.529	24795
824.669	24738
824.809	24856
824.949	24856
825.089	24772
825.228	24779
825.368	24528
825.508	24646
825.648	24635
825.787	24665
825.927	24654
826.067	24612
826.206	24536
826.346	24715
826.485	24639
826.625	24578
826.765	24673
826.904	24604
827.044	24407
827.183	24296
827.323	24178
827.462	24338
827.601	24395
827.741	24380
827.88	24342
828.02	24304
828.159	24167
828.298	24327
828.437	24315
828.577	24144
828.716	24319
828.855	24300
828.994	23996
829.134	23992
829.273	24095
829.412	23946
829.551	24030
829.69	23996
829.829	24041
829.968	24205
830.107	24125
830.246	24057
830.385	24045
830.524	23866
830.663	23901
830.802	23786
830.941	23672
831.08	23642
831.219	23687
831.357	23737
831.496	23866
831.635	23592
831.774	23551
831.913	23497
832.051	23417
832.19	23493
832.329	23490
832.467	23318
832.606	23288
832.744	23200
832.883	23368
833.022	23322
833.16	23311
833.299	23395
833.437	23189
833.576	23497
833.714	23414
833.852	23440
833.991	23486
834.129	23486
834.267	23353
834.406	23299
834.544	23376
834.682	23299
834.821	23265
834.959	23448
835.097	23185
835.235	23425
835.373	23315
835.511	23277
835.65	23147
835.788	23322
835.926	23044
836.064	22984
836.202	23113
836.34	23181
836.478	23239
836.615	23208
836.753	23181
836.891	23170
837.029	23318
837.167	23181
837.305	23075
837.443	22957
837.58	23029
837.718	23147
837.856	23079
837.993	23014
838.131	23056
838.269	22869
838.406	22961
838.544	22828
838.681	22778
838.819	22535
838.956	22443
839.094	22508
839.231	22588
839.369	22527
839.506	22942
839.643	22771
839.781	22592
839.918	22462
840.055	22481
840.193	22424
840.33	22280
840.467	22447
840.604	22531
840.742	22656
840.879	22261
841.016	22432
841.153	22402
841.29	22538
841.427	22428
841.564	22519
841.701	22337
841.838	22333
841.975	22337
842.112	22341
842.249	22325
842.385	22257
842.522	22390
842.659	22204
842.796	22230
842.933	22253
843.069	22078
843.206	22166
843.343	22173
843.479	22211
843.616	22120
843.752	21979
843.889	21934
844.025	22162
844.162	21915
844.298	21911
844.435	21945
844.571	21953
844.708	21903
844.844	22067
844.98	22040
845.117	21991
845.253	21899
845.389	21835
845.525	21819
845.661	21884
845.798	21679
845.934	21690
846.07	21618
846.206	21762
846.342	21739
846.478	21648
846.614	21538
846.75	21420
846.886	21424
847.022	21515
847.158	21447
847.294	21428
847.429	21583
847.565	21416
847.701	21686
847.837	21081
847.972	21108
848.108	21306
848.244	21150
848.379	21024
848.515	21039
848.65	21017
848.786	20891
848.921	21081
849.057	21020
849.192	21199
849.328	21051
849.463	20986
849.598	20952
849.734	20914
849.869	20857
850.004	20769
850.14	20864
850.275	20823
850.41	20629
850.545	20556
850.68	20781
850.815	20804
850.95	20769
851.085	20918
851.22	20899
851.355	20857
851.49	20788
851.625	20731
851.76	20826
851.895	20804
852.03	20758
852.165	20750
852.299	20838
852.434	20918
852.569	20819
852.703	20727
852.838	20933
852.973	20796
853.107	20895
853.242	20773
853.376	20663
853.511	20564
853.645	20587
853.78	20518
853.914	20663
854.048	20602
854.183	20621
854.317	20556
854.451	20807
854.585	20651
854.72	20617
854.854	20693
854.988	20609
855.122	20564
855.256	20488
855.39	20552
855.524	20762
855.658	20537
855.792	20587
855.926	20598
856.06	20606
856.194	20781
856.327	20549
856.461	20568
856.595	20484
856.729	20602
856.862	20705
856.996	20617
857.13	20708
857.263	20663
857.397	20655
857.53	20503
857.664	20568
857.797	20724
857.931	20682
858.064	20636
858.197	20750
858.331	20693
858.464	20507
858.597	20537
858.731	20507
858.864	20530
858.997	20495
859.13	20674
859.263	20708
859.396	20743
859.529	20556
859.662	20625
859.795	20571
859.928	20537
860.061	20792
860.194	20785
860.327	20613
860.46	20617
860.592	20762
860.725	20697
860.858	20720
860.99	20689
861.123	20587
861.256	20560
861.388	20587
861.521	21123
861.653	20560
861.786	20377
861.918	20465
862.05	20396
862.183	20514
862.315	20526
862.447	20590
862.58	20571
862.712	20259
862.844	20282
862.976	20370
863.108	20457
863.24	20914
863.372	20298
863.504	20362
863.636	20290
863.768	20404
863.9	20339
864.032	20252
864.164	20301
864.296	20393
864.428	20396
864.559	20438
864.691	20442
864.823	20240
864.954	20450
865.086	20256
865.217	20256
865.349	20119
865.48	20214
865.612	20252
865.743	20431
865.875	20263
866.006	20214
866.137	20161
866.269	20172
866.4	20237
866.531	20183
866.662	20126
866.793	20221
866.924	20115
867.055	20229
867.186	20328
867.317	20130
867.448	20172
867.579	20195
867.71	20100
867.841	20088
867.972	20256
868.103	20115
868.233	20180
868.364	20221
868.495	20210
868.625	20457
868.756	20492
868.886	20415
869.017	20389
869.147	20495
869.278	20587
869.408	20507
869.539	20503
869.669	20522
869.799	20404
869.929	20530
870.06	20560
870.19	20708
870.32	20686
870.45	20617
870.58	20887
870.71	20918
870.84	20941
870.97	20807
871.1	20823
871.23	21028
871.36	21100
871.489	20975
871.619	20849
871.749	20967
871.879	21127
872.008	21028
872.138	21051
872.267	20956
872.397	20899
872.526	20834
872.656	20800
872.785	20811
872.915	21051
873.044	21039
873.173	20910
873.303	20975
873.432	21093
873.561	21142
873.69	20971
873.819	21127
873.948	21089
874.077	21184
874.206	20937
874.335	21074
874.464	21154
874.593	21310
874.722	21154
874.851	21382
874.979	21275
875.108	21268
875.237	21268
875.365	21211
875.494	21188
875.623	21397
875.751	21230
875.88	21272
876.008	21370
876.136	21469
876.265	21717
876.393	21766
876.521	21778
876.65	21751
876.778	21698
876.906	21644
877.034	21663
877.162	21774
877.29	21359
877.418	21690
877.546	21595
877.674	21686
877.802	21622
877.93	21610
878.058	21557
878.185	21568
878.313	21507
878.441	21618
878.568	21424
878.696	21641
878.824	21599
878.951	21705
879.079	21713
879.206	21857
879.333	21835
879.461	21542
879.588	21774
879.715	21736
879.842	21991
879.97	21622
880.097	21530
880.224	21412
880.351	21610
880.478	21538
880.605	21336
880.732	21545
880.859	21705
880.986	21359
881.112	21435
881.239	21367
881.366	21230
881.493	21173
881.619	21119
881.746	21169
881.872	21055
881.999	21043
882.125	20925
882.252	21195
882.378	20975
882.505	21203
882.631	20845
882.757	20754
882.883	20853
883.01	20872
883.136	20629
883.262	20541
883.388	20598
883.514	20663
883.64	20807
883.766	20686
883.892	20476
884.018	20480
884.143	20758
884.269	20758
884.395	20549
884.52	20358
884.646	20522
884.772	20275
884.897	20237
885.023	20450
885.148	20484
885.274	20594
885.399	20545
885.524	20415
885.65	20431
885.775	20355
885.9	20473
886.025	20461
886.15	20514
886.275	20389
886.4	20305
886.525	20309
886.65	20100
886.775	20267
886.9	20526
887.025	20587
887.149	20339
887.274	20168
887.399	20149
887.523	20187
887.648	20046
887.773	20187
887.897	20259
888.021	20332
888.146	19947
888.27	20221
888.395	20195
888.519	20164
888.643	20130
888.767	20256
888.891	20065
889.015	19967
889.139	19989
889.263	19868
889.387	20039
889.511	20103
889.635	20054
889.759	19925
889.883	19986
890.006	19959
890.13	20092
890.254	19898
890.377	19944
890.501	19753
890.624	19635
890.748	19674
890.871	19590
890.995	19582
891.118	19552
891.241	19521
891.364	19514
891.488	19651
891.611	19567
891.734	19559
891.857	19563
891.98	19544
892.103	19586
892.226	19662
892.349	19487
892.471	19327
892.594	19453
892.717	19502
892.839	19373
892.962	19373
893.085	19525
893.207	19460
893.33	19358
893.452	19430
893.575	19495
893.697	19384
893.819	19586
893.941	19696
894.064	19643
894.186	19491
894.308	19365
894.43	19613
894.552	19647
894.674	19571
894.796	19426
894.918	19540
895.04	19343
895.161	19609
895.283	19491
895.405	19407
895.526	19350
895.648	19411
895.769	19590
895.891	19457
896.012	19533
896.134	19537
896.255	19480
896.376	19369
896.498	19430
896.619	19460
896.74	19506
896.861	19525
896.982	19811
897.103	19955
897.224	19852
897.345	19761
897.466	19662
897.587	19693
897.708	19795
897.828	19715
897.949	19674
898.07	19362
898.19	19533
898.311	19727
898.431	19647
898.552	19632
898.672	19830
898.792	19826
898.913	19681
899.033	19518
899.153	19556
899.273	19377
899.393	19487
899.513	19514
899.633	19430
899.753	19521
899.873	19304
899.993	19582
900.113	19460
900.232	19514
900.352	19358
900.472	19316
900.591	19297
900.711	19289
900.83	19217
900.95	19274
901.069	19331
901.189	19164
901.308	18996
901.427	18856
901.546	18886
901.665	18856
901.784	18810
901.904	18703
902.023	18585
902.141	18426
902.26	18376
902.379	18441
902.498	18483
902.617	18506
902.735	18467
902.854	18399
902.973	18273
903.091	18083
903.21	17999
903.328	18095
903.446	17954
903.565	17965
903.683	17912
903.801	17760
903.919	17893
904.038	17824
904.156	17611
904.274	17786
904.392	17627
904.51	17619
904.627	17722
904.745	17745
904.863	17627
904.981	17452
905.098	17368
905.216	17258
905.334	17296
905.451	17292
905.569	17242
905.686	17303
905.803	17288
905.921	17105
906.038	17178
906.155	16995
906.272	16976
906.389	16869
906.506	16839
906.623	16869
906.74	16702
906.857	16679
906.974	16755
907.091	16889
907.208	16927
907.324	16869
907.441	16843
907.557	16660
907.674	16584
907.79	16447
907.907	16561
908.023	16611
908.139	16535
908.256	16474
908.372	16424
908.488	16470
908.604	16265
908.72	16325
908.836	16234
908.952	16265
909.068	16234
909.184	16409
909.3	16280
909.415	16348
909.531	16295
909.647	15953
909.762	16048
909.878	15972
909.993	15968
910.108	15907
910.224	15960
910.339	16032
910.454	15838
910.57	15861
910.685	15766
910.8	16006
910.915	15964
911.03	15854
911.145	15701
911.259	15603
911.374	15641
911.489	15606
911.604	15420
911.718	15408
911.833	15359
911.947	15313
912.062	15195
912.176	15363
912.291	15443
912.405	15291
912.519	15603
912.633	15576
912.748	15294
912.862	15325
912.976	15222
913.09	15089
913.204	15203
913.318	15207
913.431	15272
913.545	15336
913.659	15195
913.772	15127
913.886	14994
914	14982
914.113	15093
914.226	15100
914.34	15051
914.453	14952
914.566	14944
914.68	14800
914.793	14807
914.906	14674
915.019	14613
915.132	14575
915.245	14610
915.358	14686
915.47	14655
915.583	14590
915.696	14636
915.809	14750
915.921	14807
916.034	14587
916.146	14564
916.259	14541
916.371	14606
916.483	14530
916.595	14377
916.708	14503
916.82	14503
916.932	14355
917.044	14465
917.156	14336
917.268	14332
917.38	14427
917.491	14301
917.603	14351
917.715	14370
917.826	14412
917.938	14206
918.049	14081
918.161	14225
918.272	14309
918.384	14393
918.495	14157
918.606	14119
918.717	14024
918.828	14115
918.939	13970
919.05	13936
919.161	14043
919.272	13742
919.383	13913
919.494	14054
919.604	14164
919.715	14081
919.826	14046
919.936	13906
920.047	14039
920.157	14008
920.267	14195
920.378	14008
920.488	14005
920.598	14103
920.708	14336
920.818	14206
920.928	14134
921.038	14358
921.148	14180
921.258	13955
921.368	13852
921.477	13811
921.587	13746
921.697	13731
921.806	13727
921.916	13670
922.025	13430
922.134	13415
922.244	13419
922.353	13453
922.462	13339
922.571	13206
922.68	13095
922.789	13160
922.898	13034
923.007	12939
923.116	13038
923.224	13042
923.333	12932
923.442	12989
923.55	12837
923.659	12897
923.767	12916
923.876	12810
923.984	12920
924.092	12875
924.201	12825
924.309	12875
924.417	12745
924.525	12703
924.633	12768
924.741	13719
924.849	12467
924.956	12719
925.064	12437
925.172	12532
925.279	12471
925.387	12471
925.494	12490
925.602	12574
925.709	12578
925.816	12414
925.924	12452
926.031	12532
926.138	12547
926.245	12513
926.352	12422
926.459	12460
926.566	12506
926.673	12361
926.779	12220
926.886	12243
926.993	12133
927.099	12060
927.206	12129
927.312	12049
927.419	12171
927.525	12053
927.631	12095
927.737	11950
927.843	11954
927.95	11764
928.056	11977
928.162	12003
928.267	12049
928.373	12494
928.479	12011
928.585	11699
928.69	11954
928.796	11973
928.901	11710
929.007	11680
929.112	11836
929.218	11714
929.323	11672
929.428	11699
929.533	11771
929.638	11608
929.743	11539
929.848	11646
929.953	11611
930.058	11547
930.163	11307
930.267	11311
930.372	11459
930.477	11379
930.581	11471
930.685	11398
930.79	11277
930.894	11235
930.998	11280
931.103	11284
931.207	11029
931.311	11117
931.415	10862
931.519	10664
931.623	10630
