Data from test_V78500241_1663.txt Node
Date: Fri Mar 25 15:21:26 CST 2022
User: usil
Spectrometer: V785-0024
Trigger mode: 0
Integration Time (sec): 4.000000E-1
Scans to average: 1
Nonlinearity correction enabled: false
Boxcar width: 0
Storing dark spectrum: false
XAxis mode: Wavelengths
Number of Pixels in Spectrum: 1024
>>>>>Begin Spectral Data<<<<<
801.071	27983
801.214	28120
801.356	27739
801.499	27667
801.641	27526
801.783	27526
801.926	27614
802.068	27481
802.211	27469
802.353	27492
802.496	27275
802.638	27192
802.78	27108
802.923	27161
803.065	26994
803.208	26998
803.35	27252
803.492	27176
803.635	27477
803.777	27203
803.919	27515
804.061	27755
804.204	27370
804.346	27348
804.488	27211
804.63	27504
804.773	27291
804.915	27355
805.057	27526
805.199	27310
805.341	27663
805.483	27496
805.626	27606
805.768	27351
805.91	27542
806.052	27431
806.194	27443
806.336	27538
806.478	27580
806.62	27504
806.762	27561
806.904	27785
807.046	27968
807.188	27911
807.33	27838
807.472	27823
807.614	27937
807.756	27979
807.898	27846
808.04	27816
808.182	27800
808.324	27812
808.465	27770
808.607	28093
808.749	28166
808.891	28367
809.033	28215
809.174	28128
809.316	28059
809.458	27983
809.6	28223
809.741	28325
809.883	28150
810.025	28394
810.166	28413
810.308	28451
810.45	28363
810.591	28337
810.733	28219
810.875	28082
811.016	27998
811.158	28006
811.299	28181
811.441	28154
811.582	28234
811.724	28154
811.865	28188
812.007	28135
812.148	28211
812.29	28101
812.431	28310
812.573	28382
812.714	28554
812.855	28596
812.997	28782
813.138	28957
813.279	28854
813.421	28668
813.562	28683
813.703	28538
813.845	28337
813.986	28116
814.127	27922
814.268	27766
814.41	27953
814.551	27922
814.692	27918
814.833	27850
814.974	27789
815.115	27876
815.256	27690
815.397	27759
815.539	27759
815.68	27572
815.821	27618
815.962	27603
816.103	27504
816.244	27439
816.385	27458
816.526	27260
816.666	27275
816.807	27135
816.948	27192
817.089	27237
817.23	27226
817.371	27123
817.512	27165
817.653	27218
817.793	27047
817.934	27188
818.075	27108
818.216	26960
818.356	27043
818.497	26994
818.638	26762
818.778	27017
818.919	26811
819.06	26914
819.2	26906
819.341	27119
819.481	27077
819.622	27302
819.762	27329
819.903	27317
820.043	27336
820.184	27382
820.324	27207
820.465	27412
820.605	27252
820.746	27237
820.886	27017
821.026	27230
821.167	27230
821.307	27287
821.447	26960
821.588	27051
821.728	26834
821.868	26644
822.008	26682
822.149	26632
822.289	26457
822.429	26301
822.569	26305
822.709	26332
822.849	26183
822.99	26240
823.13	25936
823.27	26153
823.41	25902
823.55	25791
823.69	25807
823.83	25833
823.97	25871
824.11	25765
824.25	25700
824.389	25689
824.529	25795
824.669	25803
824.809	25909
824.949	25856
825.089	25807
825.228	25700
825.368	25696
825.508	25662
825.648	25563
825.787	25689
825.927	25715
826.067	25635
826.206	25578
826.346	25689
826.485	25590
826.625	25556
826.765	25746
826.904	25715
827.044	25403
827.183	25346
827.323	25396
827.462	25327
827.601	25346
827.741	25289
827.88	25381
828.02	25240
828.159	25396
828.298	25308
828.437	25324
828.577	25297
828.716	25396
828.855	25225
828.994	25168
829.134	24973
829.273	24973
829.412	24996
829.551	24920
829.69	24973
829.829	25118
829.968	25065
830.107	25012
830.246	25080
830.385	25114
830.524	24954
830.663	24897
830.802	24829
830.941	24658
831.08	24608
831.219	24734
831.357	24681
831.496	24840
831.635	24604
831.774	24479
831.913	24372
832.051	24380
832.19	24456
832.329	24483
832.467	24350
832.606	24289
832.744	24205
832.883	24247
833.022	24350
833.16	24296
833.299	24410
833.437	24334
833.576	24570
833.714	24365
833.852	24319
833.991	24426
834.129	24426
834.267	24471
834.406	24414
834.544	24327
834.682	24410
834.821	24251
834.959	24509
835.097	24330
835.235	24342
835.373	24452
835.511	24361
835.65	24171
835.788	24186
835.926	24125
836.064	23965
836.202	24121
836.34	24258
836.478	24433
836.615	24194
836.753	24129
836.891	24270
837.029	24155
837.167	24114
837.305	24095
837.443	24186
837.58	24098
837.718	24129
837.856	24079
837.993	23969
838.131	24205
838.269	23847
838.406	23988
838.544	23920
838.681	23646
838.819	23726
838.956	23585
839.094	23474
839.231	23535
839.369	23649
839.506	23935
839.643	23748
839.781	23573
839.918	23570
840.055	23520
840.193	23440
840.33	23459
840.467	23509
840.604	23280
840.742	23726
840.879	23356
841.016	23379
841.153	23311
841.29	23562
841.427	23509
841.564	23520
841.701	23410
841.838	23391
841.975	23174
842.112	23459
842.249	23124
842.385	23200
842.522	23444
842.659	23208
842.796	23113
842.933	23200
843.069	23121
843.206	23102
843.343	23212
843.479	23318
843.616	23250
843.752	22980
843.889	22934
844.025	23067
844.162	22930
844.298	22999
844.435	23010
844.571	22961
844.708	22927
844.844	23109
844.98	23178
845.117	23162
845.253	23048
845.389	22957
845.525	22987
845.661	22809
845.798	22687
845.934	22755
846.07	22592
846.206	22744
846.342	22911
846.478	22565
846.614	22557
846.75	22348
846.886	22508
847.022	22489
847.158	22516
847.294	22459
847.429	22474
847.565	22257
847.701	22702
847.837	22128
847.972	22116
848.108	22325
848.244	22196
848.379	22112
848.515	22116
848.65	22017
848.786	21972
848.921	21937
849.057	22090
849.192	22078
849.328	21934
849.463	21915
849.598	22013
849.734	21964
849.869	22013
850.004	21542
850.14	21819
850.275	21846
850.41	21717
850.545	21720
850.68	21781
850.815	21888
850.95	21736
851.085	21895
851.22	21701
851.355	21759
851.49	21827
851.625	21774
851.76	21842
851.895	21720
852.03	21736
852.165	21766
852.299	21759
852.434	21831
852.569	21850
852.703	21819
852.838	21743
852.973	21934
853.107	21922
853.242	21618
853.376	21652
853.511	21641
853.645	21538
853.78	21778
853.914	21637
854.048	21557
854.183	21633
854.317	21610
854.451	21857
854.585	21660
854.72	21663
854.854	21701
854.988	21473
855.122	21610
855.256	21542
855.39	21625
855.524	21701
855.658	21591
855.792	21660
855.926	21728
856.06	21557
856.194	21610
856.327	21606
856.461	21454
856.595	21424
856.729	21530
856.862	21694
856.996	21686
857.13	21736
857.263	21789
857.397	21751
857.53	21576
857.664	21656
857.797	21595
857.931	21679
858.064	21671
858.197	21656
858.331	21625
858.464	21462
858.597	21538
858.731	21496
858.864	21515
858.997	21606
859.13	21530
859.263	21637
859.396	21652
859.529	21587
859.662	21534
859.795	21667
859.928	21572
860.061	21857
860.194	21732
860.327	21652
860.46	21610
860.592	21694
860.725	21690
860.858	21747
860.99	21485
861.123	21519
861.256	21511
861.388	21606
861.521	22303
861.653	21466
861.786	21397
861.918	21462
862.05	21458
862.183	21576
862.315	21625
862.447	21599
862.58	21519
862.712	21291
862.844	21249
862.976	21386
863.108	21306
863.24	21846
863.372	21226
863.504	21355
863.636	21310
863.768	21389
863.9	21264
864.032	21283
864.164	21207
864.296	21321
864.428	21382
864.559	21370
864.691	21378
864.823	21279
864.954	21268
865.086	21317
865.217	21260
865.349	21138
865.48	21291
865.612	21142
865.743	21275
865.875	21184
866.006	21245
866.137	21123
866.269	21241
866.4	21207
866.531	21214
866.662	21074
866.793	21211
866.924	21116
867.055	21161
867.186	21108
867.317	21017
867.448	20998
867.579	21180
867.71	21028
867.841	21047
867.972	21131
868.103	21154
868.233	21214
868.364	21184
868.495	21268
868.625	21348
868.756	21511
868.886	21275
869.017	21340
869.147	21450
869.278	21481
869.408	21481
869.539	21454
869.669	21397
869.799	21515
869.929	21447
870.06	21393
870.19	21770
870.32	21660
870.45	21698
870.58	21747
870.71	21937
870.84	22013
870.97	21755
871.1	21873
871.23	22013
871.36	22006
871.489	21876
871.619	21945
871.749	21819
871.879	21953
872.008	22097
872.138	21964
872.267	21972
872.397	21755
872.526	21739
872.656	21800
872.785	21873
872.915	22017
873.044	22086
873.173	22025
873.303	21972
873.432	22051
873.561	22032
873.69	22040
873.819	22013
873.948	22150
874.077	21979
874.206	21907
874.335	22055
874.464	22078
874.593	22249
874.722	22196
874.851	22101
874.979	22314
875.108	22280
875.237	22166
875.365	22120
875.494	22143
875.623	22169
875.751	22150
875.88	22185
876.008	22253
876.136	22466
876.265	22489
876.393	22763
876.521	22748
876.65	22675
876.778	22557
876.906	22538
877.034	22489
877.162	22664
877.29	22493
877.418	22653
877.546	22546
877.674	22542
877.802	22653
877.93	22417
878.058	22489
878.185	22523
878.313	22531
878.441	22550
878.568	22470
878.696	22626
878.824	22561
878.951	22535
879.079	22755
879.206	22850
879.333	22721
879.461	22615
879.588	22717
879.715	22588
879.842	22801
879.97	22557
880.097	22367
880.224	22344
880.351	22375
880.478	22356
880.605	22306
880.732	22303
880.859	22649
880.986	22375
881.112	22310
881.239	22299
881.366	22147
881.493	22070
881.619	21907
881.746	22017
881.872	22048
881.999	21903
882.125	21987
882.252	21869
882.378	22017
882.505	21979
882.631	21842
882.757	21686
882.883	21705
883.01	21606
883.136	21587
883.262	21462
883.388	21507
883.514	21629
883.64	21698
883.766	21507
883.892	21447
884.018	21458
884.143	21595
884.269	21633
884.395	21272
884.52	21268
884.646	21214
884.772	21321
884.897	21291
885.023	21180
885.148	21302
885.274	21325
885.399	21431
885.524	21351
885.65	21268
885.775	21310
885.9	21241
886.025	21378
886.15	21283
886.275	21275
886.4	21142
886.525	21173
886.65	21108
886.775	21169
886.9	21317
887.025	21416
887.149	21245
887.274	21135
887.399	20979
887.523	21131
887.648	20921
887.773	21024
887.897	21142
888.021	21142
888.146	21051
888.27	21119
888.395	21066
888.519	21108
888.643	20960
888.767	21108
888.891	20956
889.015	20857
889.139	20979
889.263	20777
889.387	21093
889.511	21070
889.635	21066
889.759	20800
889.883	20861
890.006	20925
890.13	21020
890.254	20804
890.377	20708
890.501	20545
890.624	20606
890.748	20526
890.871	20526
890.995	20434
891.118	20381
891.241	20419
891.364	20442
891.488	20625
891.611	20423
891.734	20438
891.857	20427
891.98	20431
892.103	20450
892.226	20457
892.349	20282
892.471	20153
892.594	20305
892.717	20454
892.839	20180
892.962	20301
893.085	20465
893.207	20301
893.33	20225
893.452	20328
893.575	20412
893.697	20168
893.819	20370
893.941	20568
894.064	20366
894.186	20176
894.308	20237
894.43	20320
894.552	20495
894.674	20427
894.796	20130
894.918	20332
895.04	20317
895.161	20412
895.283	20282
895.405	20313
895.526	20301
895.648	20206
895.769	20275
895.891	20366
896.012	20492
896.134	20358
896.255	20301
896.376	20286
896.498	20415
896.619	20358
896.74	20256
896.861	20301
896.982	20682
897.103	20830
897.224	20560
897.345	20617
897.466	20400
897.587	20469
897.708	20632
897.828	20537
897.949	20511
898.07	20362
898.19	20571
898.311	20606
898.431	20454
898.552	20480
898.672	20564
898.792	20549
898.913	20461
899.033	20465
899.153	20396
899.273	20271
899.393	20237
899.513	20267
899.633	20233
899.753	20286
899.873	20237
899.993	20366
900.113	20134
900.232	20233
900.352	20180
900.472	20138
900.591	19997
900.711	20073
900.83	20035
900.95	20100
901.069	20111
901.189	19875
901.308	19666
901.427	19578
901.546	19655
901.665	19727
901.784	19666
901.904	19445
902.023	19365
902.141	19312
902.26	19228
902.379	19274
902.498	19118
902.617	19038
902.735	19194
902.854	19137
902.973	19065
903.091	18848
903.21	18856
903.328	18738
903.446	18658
903.565	18738
903.683	18547
903.801	18494
903.919	18506
904.038	18547
904.156	18346
904.274	18475
904.392	18315
904.51	18334
904.627	18388
904.745	18414
904.863	18365
904.981	18114
905.098	18045
905.216	18117
905.334	18053
905.451	18068
905.569	18091
905.686	18129
905.803	18003
905.921	17794
906.038	17942
906.155	17973
906.272	17668
906.389	17878
906.506	17573
906.623	17570
906.74	17646
906.857	17433
906.974	17581
907.091	17665
907.208	17695
907.324	17554
907.441	17452
907.557	17376
907.674	17330
907.79	17311
907.907	17254
908.023	17349
908.139	17299
908.256	17220
908.372	17162
908.488	17239
908.604	16999
908.72	16957
908.836	17071
908.952	17033
909.068	17064
909.184	17075
909.3	17056
909.415	16942
909.531	17079
909.647	16790
909.762	16824
909.878	16694
909.993	16733
910.108	16778
910.224	16660
910.339	16729
910.454	16558
910.57	16436
910.685	16519
910.8	16702
910.915	16649
911.03	16497
911.145	16478
911.259	16363
911.374	16169
911.489	16249
911.604	16207
911.718	16032
911.833	16135
911.947	15899
912.062	15953
912.176	16032
912.291	16093
912.405	15949
912.519	16234
912.633	16181
912.748	16086
912.862	15994
912.976	15797
913.09	15778
913.204	15850
913.318	15812
913.431	15926
913.545	15930
913.659	15915
913.772	15846
913.886	15778
914	15652
914.113	15747
914.226	15781
914.34	15827
914.453	15549
914.566	15720
914.68	15595
914.793	15572
914.906	15428
915.019	15294
915.132	15245
915.245	15207
915.358	15386
915.47	15306
915.583	15310
915.696	15351
915.809	15310
915.921	15428
916.034	15214
916.146	15207
916.259	15077
916.371	15245
916.483	15207
916.595	15047
916.708	15157
916.82	15093
916.932	15020
917.044	15047
917.156	15135
917.268	14902
917.38	14914
917.491	14895
917.603	14887
917.715	15024
917.826	14967
917.938	14880
918.049	14762
918.161	14918
918.272	15013
918.384	15013
918.495	14838
918.606	14746
918.717	14552
918.828	14693
918.939	14769
919.05	14617
919.161	14716
919.272	14556
919.383	14552
919.494	14750
919.604	14921
919.715	14625
919.826	14613
919.936	14617
920.047	14686
920.157	14629
920.267	14834
920.378	14716
920.488	14731
920.598	14746
920.708	14975
920.818	14735
920.928	14670
921.038	15028
921.148	14781
921.258	14621
921.368	14465
921.477	14450
921.587	14457
921.697	14298
921.806	14469
921.916	14320
922.025	14130
922.134	14069
922.244	13989
922.353	13978
922.462	13826
922.571	13837
922.68	13670
922.789	13620
922.898	13666
923.007	13655
923.116	13704
923.224	13708
923.333	13651
923.442	13499
923.55	13544
923.659	13445
923.767	13632
923.876	13350
923.984	13578
924.092	13362
924.201	13396
924.309	13365
924.417	13381
924.525	13377
924.633	13304
924.741	14088
924.849	13103
924.956	13202
925.064	13000
925.172	13046
925.279	13012
925.387	13050
925.494	12996
925.602	13228
925.709	13046
925.816	12913
925.924	12966
926.031	13103
926.138	13046
926.245	13114
926.352	12897
926.459	13110
926.566	13034
926.673	12954
926.779	12814
926.886	12806
926.993	12620
927.099	12642
927.206	12639
927.312	12566
927.419	12623
927.525	12620
927.631	12639
927.737	12521
927.843	12536
927.95	12319
928.056	12452
928.162	12399
928.267	12502
928.373	13076
928.479	12540
928.585	12243
928.69	12315
928.796	12399
928.901	12235
929.007	12190
929.112	12296
929.218	12315
929.323	12175
929.428	12159
929.533	12243
929.638	12133
929.743	12060
929.848	12133
929.953	12091
930.058	11992
930.163	11824
930.267	11901
930.372	12007
930.477	11794
930.581	12038
930.685	11870
930.79	11745
930.894	11775
930.998	11710
931.103	11840
931.207	11433
931.311	11330
931.415	11307
931.519	11162
931.623	11094
