Data from test_V78500241_1117.txt Node
Date: Fri Mar 25 15:17:38 CST 2022
User: usil
Spectrometer: V785-0024
Trigger mode: 0
Integration Time (sec): 4.000000E-1
Scans to average: 1
Nonlinearity correction enabled: false
Boxcar width: 0
Storing dark spectrum: false
XAxis mode: Wavelengths
Number of Pixels in Spectrum: 1024
>>>>>Begin Spectral Data<<<<<
801.071	28215
801.214	27991
801.356	27911
801.499	27816
801.641	27549
801.783	27762
801.926	27793
802.068	27694
802.211	27736
802.353	27663
802.496	27389
802.638	27310
802.78	27370
802.923	27154
803.065	27226
803.208	27077
803.35	27237
803.492	27606
803.635	27648
803.777	27538
803.919	27534
804.061	27793
804.204	27564
804.346	27443
804.488	27435
804.63	27515
804.773	27511
804.915	27473
805.057	27751
805.199	27603
805.341	27679
805.483	27690
805.626	27728
805.768	27447
805.91	27762
806.052	27778
806.194	27686
806.336	27827
806.478	27690
806.62	27648
806.762	27736
806.904	27956
807.046	28185
807.188	28135
807.33	28078
807.472	28139
807.614	27991
807.756	28143
807.898	27918
808.04	27911
808.182	27903
808.324	27911
808.465	27975
808.607	28040
808.749	28204
808.891	28443
809.033	28519
809.174	28287
809.316	28322
809.458	28535
809.6	28405
809.741	28459
809.883	28557
810.025	28664
810.166	28736
810.308	28622
810.45	28535
810.591	28470
810.733	28284
810.875	28367
811.016	28257
811.158	28261
811.299	28527
811.441	28436
811.582	28432
811.724	28356
811.865	28424
812.007	28360
812.148	28352
812.29	28398
812.431	28550
812.573	28683
812.714	28885
812.855	28835
812.997	28858
813.138	29071
813.279	29102
813.421	28801
813.562	28866
813.703	28687
813.845	28630
813.986	28356
814.127	28185
814.268	28120
814.41	28131
814.551	28154
814.692	28097
814.833	28078
814.974	27953
815.115	28120
815.256	27914
815.397	27987
815.539	27945
815.68	27747
815.821	27880
815.962	27812
816.103	27759
816.244	27739
816.385	27747
816.526	27732
816.666	27500
816.807	27416
816.948	27526
817.089	27488
817.23	27511
817.371	27416
817.512	27424
817.653	27302
817.793	27245
817.934	27496
818.075	27397
818.216	27332
818.356	27214
818.497	27218
818.638	27093
818.778	27135
818.919	27207
819.06	27203
819.2	27332
819.341	27332
819.481	27275
819.622	27557
819.762	27679
819.903	27686
820.043	27553
820.184	27443
820.324	27466
820.465	27557
820.605	27515
820.746	27469
820.886	27405
821.026	27466
821.167	27439
821.307	27473
821.447	27458
821.588	27427
821.728	27203
821.868	27047
822.008	26944
822.149	26883
822.289	26876
822.429	26545
822.569	26526
822.709	26571
822.849	26419
822.99	26393
823.13	26343
823.27	26495
823.41	26199
823.55	26096
823.69	26202
823.83	26206
823.97	26122
824.11	25989
824.25	25989
824.389	26138
824.529	26092
824.669	26138
824.809	26081
824.949	26187
825.089	26142
825.228	26119
825.368	25860
825.508	25986
825.648	26027
825.787	25959
825.927	25894
826.067	26054
826.206	25822
826.346	25978
826.485	25856
826.625	25928
826.765	25944
826.904	25940
827.044	25708
827.183	25727
827.323	25655
827.462	25761
827.601	25708
827.741	25613
827.88	25658
828.02	25662
828.159	25693
828.298	25620
828.437	25799
828.577	25518
828.716	25655
828.855	25586
828.994	25415
829.134	25362
829.273	25403
829.412	25346
829.551	25282
829.69	25392
829.829	25346
829.968	25525
830.107	25483
830.246	25270
830.385	25255
830.524	25187
830.663	25179
830.802	25156
830.941	25057
831.08	24939
831.219	25133
831.357	25000
831.496	25175
831.635	25042
831.774	24920
831.913	24909
832.051	24875
832.19	24726
832.329	24844
832.467	24654
832.606	24498
832.744	24563
832.883	24528
833.022	24608
833.16	24681
833.299	24673
833.437	24654
833.576	24783
833.714	24715
833.852	24810
833.991	24700
834.129	24848
834.267	24844
834.406	24658
834.544	24795
834.682	24760
834.821	24642
834.959	24916
835.097	24658
835.235	24810
835.373	24825
835.511	24821
835.65	24623
835.788	24658
835.926	24521
836.064	24342
836.202	24490
836.34	24654
836.478	24757
836.615	24540
836.753	24464
836.891	24574
837.029	24616
837.167	24513
837.305	24471
837.443	24483
837.58	24395
837.718	24486
837.856	24403
837.993	24452
838.131	24285
838.269	24213
838.406	24353
838.544	24171
838.681	24038
838.819	24011
838.956	23901
839.094	23870
839.231	23958
839.369	24049
839.506	24171
839.643	24083
839.781	23950
839.918	23946
840.055	23935
840.193	23828
840.33	23855
840.467	23920
840.604	23832
840.742	24057
840.879	23608
841.016	23737
841.153	23775
841.29	23859
841.427	23737
841.564	23733
841.701	23878
841.838	23714
841.975	23634
842.112	23718
842.249	23657
842.385	23490
842.522	23771
842.659	23551
842.796	23570
842.933	23535
843.069	23512
843.206	23535
843.343	23646
843.479	23672
843.616	23604
843.752	23440
843.889	23410
844.025	23566
844.162	23227
844.298	23379
844.435	23387
844.571	23250
844.708	23448
844.844	23509
844.98	23512
845.117	23368
845.253	23280
845.389	23204
845.525	23178
845.661	23303
845.798	23128
845.934	23109
846.07	23056
846.206	23166
846.342	23216
846.478	23086
846.614	22828
846.75	22729
846.886	22801
847.022	22889
847.158	22702
847.294	22759
847.429	22820
847.565	22801
847.701	23086
847.837	22626
847.972	22440
848.108	22694
848.244	22516
848.379	22596
848.515	22371
848.65	22329
848.786	22337
848.921	22356
849.057	22580
849.192	22569
849.328	22382
849.463	22557
849.598	22287
849.734	22211
849.869	22299
850.004	22112
850.14	22299
850.275	22093
850.41	22200
850.545	22090
850.68	22131
850.815	22196
850.95	22173
851.085	22413
851.22	22188
851.355	22090
851.49	22093
851.625	22181
851.76	22101
851.895	22002
852.03	22051
852.165	22181
852.299	22192
852.434	22166
852.569	22268
852.703	22185
852.838	22272
852.973	22226
853.107	22261
853.242	22147
853.376	22017
853.511	21964
853.645	21979
853.78	22036
853.914	21941
854.048	21994
854.183	21831
854.317	22059
854.451	22162
854.585	22055
854.72	21869
854.854	22105
854.988	22029
855.122	21956
855.256	21884
855.39	21903
855.524	22128
855.658	22002
855.792	21991
855.926	21945
856.06	21994
856.194	22067
856.327	22143
856.461	21949
856.595	21850
856.729	21907
856.862	22059
856.996	21953
857.13	22044
857.263	21972
857.397	22055
857.53	21918
857.664	22006
857.797	22040
857.931	22078
858.064	22013
858.197	21987
858.331	21930
858.464	21880
858.597	21915
858.731	21975
858.864	21865
858.997	21926
859.13	21915
859.263	21975
859.396	22086
859.529	21880
859.662	21956
859.795	21838
859.928	22025
860.061	22196
860.194	22265
860.327	21972
860.46	22040
860.592	22116
860.725	22207
860.858	22082
860.99	21949
861.123	21831
861.256	21884
861.388	21930
861.521	22660
861.653	21911
861.786	21876
861.918	21838
862.05	21762
862.183	21941
862.315	21941
862.447	21915
862.58	21804
862.712	21732
862.844	21549
862.976	21641
863.108	21705
863.24	21994
863.372	21568
863.504	21728
863.636	21770
863.768	21652
863.9	21698
864.032	21466
864.164	21610
864.296	21705
864.428	21781
864.559	21686
864.691	21717
864.823	21701
864.954	21732
865.086	21614
865.217	21568
865.349	21507
865.48	21557
865.612	21690
865.743	21694
865.875	21587
866.006	21606
866.137	21523
866.269	21485
866.4	21420
866.531	21504
866.662	21397
866.793	21511
866.924	21428
867.055	21583
867.186	21572
867.317	21397
867.448	21302
867.579	21538
867.71	21405
867.841	21545
867.972	21507
868.103	21583
868.233	21466
868.364	21515
868.495	21682
868.625	21675
868.756	21789
868.886	21587
869.017	21739
869.147	21838
869.278	21751
869.408	21682
869.539	21781
869.669	21865
869.799	21728
869.929	21842
870.06	21850
870.19	22044
870.32	21846
870.45	21975
870.58	22154
870.71	22200
870.84	22204
870.97	22097
871.1	22185
871.23	22325
871.36	22337
871.489	22223
871.619	22226
871.749	22249
871.879	22287
872.008	22550
872.138	22291
872.267	22474
872.397	22192
872.526	22314
872.656	22177
872.785	22215
872.915	22379
873.044	22386
873.173	22405
873.303	22344
873.432	22356
873.561	22413
873.69	22390
873.819	22303
873.948	22409
874.077	22280
874.206	22398
874.335	22363
874.464	22417
874.593	22603
874.722	22523
874.851	22497
874.979	22622
875.108	22538
875.237	22493
875.365	22459
875.494	22478
875.623	22508
875.751	22466
875.88	22611
876.008	22634
876.136	22694
876.265	22885
876.393	23052
876.521	23083
876.65	22965
876.778	23022
876.906	22938
877.034	22873
877.162	22778
877.29	22801
877.418	22987
877.546	22923
877.674	22934
877.802	22946
877.93	22862
878.058	22679
878.185	22755
878.313	22843
878.441	22919
878.568	22740
878.696	22839
878.824	22854
878.951	22812
879.079	23022
879.206	23094
879.333	22987
879.461	22835
879.588	23014
879.715	23178
879.842	23170
879.97	22942
880.097	22672
880.224	22702
880.351	22767
880.478	22683
880.605	22748
880.732	22706
880.859	22908
880.986	22660
881.112	22664
881.239	22497
881.366	22424
881.493	22478
881.619	22211
881.746	22322
881.872	22333
881.999	22276
882.125	22238
882.252	22310
882.378	22246
882.505	22303
882.631	22124
882.757	21941
882.883	22112
883.01	21968
883.136	21899
883.262	21892
883.388	21766
883.514	22002
883.64	21880
883.766	21956
883.892	21800
884.018	21736
884.143	21743
884.269	22032
884.395	21648
884.52	21686
884.646	21568
884.772	21580
884.897	21553
885.023	21625
885.148	21622
885.274	21770
885.399	21641
885.524	21603
885.65	21599
885.775	21583
885.9	21568
886.025	21766
886.15	21686
886.275	21614
886.4	21534
886.525	21595
886.65	21389
886.775	21458
886.9	21713
887.025	21812
887.149	21553
887.274	21405
887.399	21336
887.523	21439
887.648	21275
887.773	21245
887.897	21553
888.021	21382
888.146	21340
888.27	21405
888.395	21424
888.519	21447
888.643	21443
888.767	21397
888.891	21348
889.015	21192
889.139	21100
889.263	21066
889.387	21313
889.511	21367
889.635	21336
889.759	21100
889.883	21180
890.006	21241
890.13	21188
890.254	20975
890.377	21138
890.501	20975
890.624	20842
890.748	20933
890.871	20880
890.995	20686
891.118	20583
891.241	20693
891.364	20743
891.488	20838
891.611	20872
891.734	20735
891.857	20712
891.98	20735
892.103	20769
892.226	20743
892.349	20587
892.471	20594
892.594	20632
892.717	20659
892.839	20632
892.962	20682
893.085	20674
893.207	20746
893.33	20598
893.452	20495
893.575	20625
893.697	20537
893.819	20785
893.941	20899
894.064	20788
894.186	20530
894.308	20514
894.43	20697
894.552	20842
894.674	20720
894.796	20663
894.918	20442
895.04	20560
895.161	20602
895.283	20590
895.405	20564
895.526	20731
895.648	20697
895.769	20545
895.891	20549
896.012	20689
896.134	20594
896.255	20541
896.376	20522
896.498	20644
896.619	20530
896.74	20545
896.861	20663
896.982	20891
897.103	20990
897.224	20914
897.345	20773
897.466	20609
897.587	20906
897.708	20895
897.828	20902
897.949	20716
898.07	20644
898.19	20598
898.311	20845
898.431	20651
898.552	20731
898.672	20823
898.792	20826
898.913	20830
899.033	20754
899.153	20640
899.273	20480
899.393	20549
899.513	20712
899.633	20415
899.753	20541
899.873	20412
899.993	20457
900.113	20450
900.232	20587
900.352	20438
900.472	20332
900.591	20298
900.711	20328
900.83	20229
900.95	20374
901.069	20454
901.189	20180
901.308	19982
901.427	19799
901.546	19887
901.665	19917
901.784	19894
901.904	19651
902.023	19658
902.141	19464
902.26	19438
902.379	19590
902.498	19373
902.617	19369
902.735	19499
902.854	19369
902.973	19244
903.091	19072
903.21	19084
903.328	18981
903.446	18970
903.565	18886
903.683	18932
903.801	18753
903.919	18798
904.038	18840
904.156	18642
904.274	18696
904.392	18536
904.51	18483
904.627	18536
904.745	18688
904.863	18654
904.981	18369
905.098	18292
905.216	18357
905.334	18342
905.451	18277
905.569	18224
905.686	18330
905.803	18285
905.921	18129
906.038	18163
906.155	18140
906.272	17942
906.389	18053
906.506	17813
906.623	17817
906.74	17828
906.857	17775
906.974	17691
907.091	17893
907.208	17901
907.324	17783
907.441	17726
907.557	17604
907.674	17604
907.79	17471
907.907	17577
908.023	17490
908.139	17524
908.256	17433
908.372	17471
908.488	17299
908.604	17337
908.72	17284
908.836	17231
908.952	17273
909.068	17292
909.184	17356
909.3	17277
909.415	17315
909.531	17204
909.647	16984
909.762	17079
909.878	16801
909.993	16968
910.108	16957
910.224	16991
910.339	16904
910.454	16755
910.57	16733
910.685	16713
910.8	16934
910.915	16869
911.03	16881
911.145	16660
911.259	16558
911.374	16519
911.489	16546
911.604	16424
911.718	16394
911.833	16276
911.947	16162
912.062	16150
912.176	16310
912.291	16299
912.405	16284
912.519	16440
912.633	16474
912.748	16299
912.862	16242
912.976	16112
913.09	15998
913.204	16063
913.318	16071
913.431	16196
913.545	16173
913.659	16204
913.772	16120
913.886	15983
914	15838
914.113	15983
914.226	16131
914.34	15907
914.453	15854
914.566	15915
914.68	15713
914.793	15835
914.906	15576
915.019	15561
915.132	15416
915.245	15549
915.358	15538
915.47	15519
915.583	15462
915.696	15526
915.809	15618
915.921	15599
916.034	15507
916.146	15317
916.259	15481
916.371	15393
916.483	15351
916.595	15336
916.708	15370
916.82	15329
916.932	15233
917.044	15207
917.156	15249
917.268	15116
917.38	15104
917.491	15142
917.603	15142
917.715	15252
917.826	15241
917.938	15108
918.049	15005
918.161	14982
918.272	15199
918.384	15173
918.495	15005
918.606	14899
918.717	14883
918.828	14944
918.939	15032
919.05	14720
919.161	14781
919.272	14716
919.383	14697
919.494	14906
919.604	15062
919.715	14872
919.826	14792
919.936	14731
920.047	14918
920.157	14811
920.267	14967
920.378	14750
920.488	14720
920.598	15013
920.708	15036
920.818	14941
920.928	15013
921.038	15047
921.148	15009
921.258	14823
921.368	14697
921.477	14644
921.587	14590
921.697	14434
921.806	14522
921.916	14393
922.025	14278
922.134	14123
922.244	14115
922.353	14256
922.462	14157
922.571	13993
922.68	13830
922.789	13799
922.898	13837
923.007	13738
923.116	13879
923.224	13742
923.333	13868
923.442	13674
923.55	13666
923.659	13636
923.767	13723
923.876	13597
923.984	13704
924.092	13700
924.201	13651
924.309	13590
924.417	13567
924.525	13457
924.633	13518
924.741	14396
924.849	13255
924.956	13396
925.064	13297
925.172	13228
925.279	13183
925.387	13274
925.494	13228
925.602	13396
925.709	13209
925.816	13110
925.924	13171
926.031	13297
926.138	13149
926.245	13141
926.352	13008
926.459	13145
926.566	13266
926.673	13057
926.779	13004
926.886	12875
926.993	12776
927.099	12703
927.206	12738
927.312	12741
927.419	12829
927.525	12745
927.631	12707
927.737	12639
927.843	12608
927.95	12509
928.056	12585
928.162	12620
928.267	12635
928.373	13042
928.479	12673
928.585	12414
928.69	12585
928.796	12559
928.901	12479
929.007	12300
929.112	12376
929.218	12361
929.323	12437
929.428	12296
929.533	12426
929.638	12224
929.743	12315
929.848	12300
929.953	12239
930.058	12148
930.163	12003
930.267	12091
930.372	12197
930.477	11969
930.581	12194
930.685	11939
930.79	11745
930.894	11897
930.998	11923
931.103	11965
931.207	11668
931.311	11532
931.415	11452
931.519	11277
931.623	11174
