Data from test_V78500241_1653.txt Node
Date: Fri Mar 25 15:21:22 CST 2022
User: usil
Spectrometer: V785-0024
Trigger mode: 0
Integration Time (sec): 4.000000E-1
Scans to average: 1
Nonlinearity correction enabled: false
Boxcar width: 0
Storing dark spectrum: false
XAxis mode: Wavelengths
Number of Pixels in Spectrum: 1024
>>>>>Begin Spectral Data<<<<<
801.071	27831
801.214	27873
801.356	27618
801.499	27625
801.641	27329
801.783	27576
801.926	27462
802.068	27412
802.211	27344
802.353	27184
802.496	27176
802.638	26956
802.78	27104
802.923	26982
803.065	27013
803.208	27055
803.35	27024
803.492	27104
803.635	27218
803.777	27207
803.919	27157
804.061	27515
804.204	27370
804.346	27233
804.488	27218
804.63	27264
804.773	27146
804.915	27123
805.057	27439
805.199	27325
805.341	27169
805.483	27412
805.626	27458
805.768	27329
805.91	27317
806.052	27420
806.194	27298
806.336	27488
806.478	27447
806.62	27443
806.762	27492
806.904	27549
807.046	27937
807.188	27720
807.33	27804
807.472	27759
807.614	27789
807.756	27892
807.898	27534
808.04	27629
808.182	27720
808.324	27781
808.465	27831
808.607	27987
808.749	28086
808.891	28040
809.033	28185
809.174	28025
809.316	28002
809.458	28013
809.6	27960
809.741	28032
809.883	28150
810.025	28242
810.166	28143
810.308	28223
810.45	28204
810.591	28067
810.733	27991
810.875	27937
811.016	27857
811.158	27774
811.299	28112
811.441	28124
811.582	28029
811.724	28040
811.865	28040
812.007	28029
812.148	28078
812.29	28055
812.431	28150
812.573	28341
812.714	28531
812.855	28519
812.997	28702
813.138	28672
813.279	28698
813.421	28489
813.562	28367
813.703	28356
813.845	28337
813.986	27903
814.127	27884
814.268	27797
814.41	27694
814.551	27679
814.692	27641
814.833	27667
814.974	27561
815.115	27614
815.256	27530
815.397	27606
815.539	27576
815.68	27477
815.821	27500
815.962	27553
816.103	27454
816.244	27447
816.385	27195
816.526	27188
816.666	27089
816.807	26914
816.948	26925
817.089	27047
817.23	27127
817.371	26906
817.512	26925
817.653	26914
817.793	27020
817.934	26899
818.075	26929
818.216	26990
818.356	27036
818.497	26925
818.638	26621
818.778	26792
818.919	26651
819.06	26655
819.2	26895
819.341	26876
819.481	26921
819.622	27116
819.762	27252
819.903	27211
820.043	27119
820.184	27093
820.324	27096
820.465	27252
820.605	27070
820.746	27074
820.886	27009
821.026	27017
821.167	27146
821.307	27211
821.447	26899
821.588	27005
821.728	26739
821.868	26545
822.008	26507
822.149	26503
822.289	26404
822.429	26187
822.569	26027
822.709	26161
822.849	26020
822.99	25944
823.13	25852
823.27	25849
823.41	25841
823.55	25689
823.69	25887
823.83	25772
823.97	25723
824.11	25533
824.25	25502
824.389	25499
824.529	25518
824.669	25635
824.809	25689
824.949	25609
825.089	25662
825.228	25677
825.368	25510
825.508	25457
825.648	25533
825.787	25525
825.927	25472
826.067	25388
826.206	25552
826.346	25533
826.485	25510
826.625	25392
826.765	25578
826.904	25362
827.044	25187
827.183	25236
827.323	25141
827.462	25259
827.601	25198
827.741	25008
827.88	25156
828.02	25084
828.159	25099
828.298	25228
828.437	25213
828.577	25095
828.716	25270
828.855	25114
828.994	24920
829.134	24833
829.273	24886
829.412	24894
829.551	24909
829.69	24814
829.829	24867
829.968	24947
830.107	24894
830.246	24878
830.385	24897
830.524	24760
830.663	24661
830.802	24574
830.941	24475
831.08	24346
831.219	24604
831.357	24490
831.496	24673
831.635	24547
831.774	24376
831.913	24422
832.051	24399
832.19	24296
832.329	24327
832.467	24167
832.606	24091
832.744	24144
832.883	24224
833.022	24163
833.16	24038
833.299	24216
833.437	24323
833.576	24292
833.714	24277
833.852	24273
833.991	24289
834.129	24323
834.267	24285
834.406	24129
834.544	24224
834.682	24300
834.821	24239
834.959	24239
835.097	24114
835.235	24220
835.373	24243
835.511	24357
835.65	24220
835.788	24087
835.926	24007
836.064	23813
836.202	23920
836.34	23973
836.478	24057
836.615	23942
836.753	24026
836.891	24072
837.029	24034
837.167	24041
837.305	24003
837.443	23916
837.58	23923
837.718	24007
837.856	23851
837.993	23904
838.131	23809
838.269	23840
838.406	23786
838.544	23885
838.681	23444
838.819	23535
838.956	23414
839.094	23330
839.231	23402
839.369	23665
839.506	23661
839.643	23592
839.781	23417
839.918	23307
840.055	23372
840.193	23345
840.33	23330
840.467	23292
840.604	23273
840.742	23554
840.879	23052
841.016	23292
841.153	23204
841.29	23364
841.427	23315
841.564	23383
841.701	23189
841.838	23136
841.975	23292
842.112	23037
842.249	22961
842.385	22953
842.522	23227
842.659	23025
842.796	22999
842.933	23003
843.069	23033
843.206	23025
843.343	23048
843.479	23052
843.616	23075
843.752	22797
843.889	22869
844.025	22839
844.162	22763
844.298	22812
844.435	22713
844.571	22748
844.708	22748
844.844	23010
844.98	22831
845.117	22892
845.253	22645
845.389	22626
845.525	22717
845.661	22641
845.798	22565
845.934	22527
846.07	22413
846.206	22599
846.342	22653
846.478	22428
846.614	22402
846.75	22287
846.886	22166
847.022	22291
847.158	22390
847.294	22394
847.429	22230
847.565	22230
847.701	22535
847.837	22086
847.972	21945
848.108	22021
848.244	22082
848.379	21945
848.515	21823
848.65	21903
848.786	21797
848.921	21941
849.057	21941
849.192	21949
849.328	21838
849.463	21873
849.598	21895
849.734	21781
849.869	21698
850.004	21682
850.14	21713
850.275	21717
850.41	21568
850.545	21557
850.68	21496
850.815	21667
850.95	21599
851.085	21865
851.22	21770
851.355	21720
851.49	21511
851.625	21488
851.76	21679
851.895	21515
852.03	21485
852.165	21660
852.299	21652
852.434	21622
852.569	21618
852.703	21652
852.838	21663
852.973	21774
853.107	21854
853.242	21652
853.376	21481
853.511	21336
853.645	21424
853.78	21614
853.914	21424
854.048	21428
854.183	21450
854.317	21450
854.451	21698
854.585	21526
854.72	21340
854.854	21488
854.988	21393
855.122	21450
855.256	21420
855.39	21431
855.524	21545
855.658	21538
855.792	21439
855.926	21485
856.06	21370
856.194	21473
856.327	21420
856.461	21412
856.595	21321
856.729	21382
856.862	21466
856.996	21412
857.13	21526
857.263	21580
857.397	21606
857.53	21397
857.664	21526
857.797	21519
857.931	21648
858.064	21576
858.197	21633
858.331	21325
858.464	21401
858.597	21332
858.731	21405
858.864	21481
858.997	21397
859.13	21431
859.263	21477
859.396	21614
859.529	21447
859.662	21466
859.795	21408
859.928	21454
860.061	21542
860.194	21591
860.327	21603
860.46	21386
860.592	21428
860.725	21545
860.858	21405
860.99	21477
861.123	21367
861.256	21325
861.388	21481
861.521	22097
861.653	21378
861.786	21279
861.918	21310
862.05	21378
862.183	21332
862.315	21310
862.447	21431
862.58	21203
862.712	21302
862.844	21214
862.976	21272
863.108	21161
863.24	21595
863.372	21108
863.504	21150
863.636	21157
863.768	21176
863.9	21085
864.032	21009
864.164	21138
864.296	21165
864.428	21222
864.559	21207
864.691	21150
864.823	21169
864.954	21024
865.086	21138
865.217	21131
865.349	21017
865.48	20979
865.612	21058
865.743	21138
865.875	21020
866.006	21032
866.137	21051
866.269	21017
866.4	20971
866.531	21074
866.662	20952
866.793	21036
866.924	21009
867.055	20971
867.186	20990
867.317	20887
867.448	20952
867.579	20826
867.71	20971
867.841	20872
867.972	20925
868.103	21036
868.233	21036
868.364	21211
868.495	20895
868.625	21222
868.756	21317
868.886	21108
869.017	21256
869.147	21431
869.278	21332
869.408	21233
869.539	21211
869.669	21252
869.799	21306
869.929	21321
870.06	21363
870.19	21530
870.32	21447
870.45	21576
870.58	21679
870.71	21618
870.84	21774
870.97	21690
871.1	21583
871.23	21835
871.36	21800
871.489	21739
871.619	21861
871.749	21766
871.879	21759
872.008	21911
872.138	21850
872.267	21770
872.397	21743
872.526	21690
872.656	21523
872.785	21690
872.915	21823
873.044	21861
873.173	21918
873.303	21861
873.432	21869
873.561	21926
873.69	21717
873.819	21907
873.948	21865
874.077	21831
874.206	21819
874.335	21857
874.464	21922
874.593	22013
874.722	21915
874.851	22070
874.979	22055
875.108	22158
875.237	22090
875.365	21861
875.494	22063
875.623	22162
875.751	21975
875.88	22154
876.008	22234
876.136	22173
876.265	22523
876.393	22649
876.521	22592
876.65	22523
876.778	22516
876.906	22440
877.034	22379
877.162	22318
877.29	22333
877.418	22356
877.546	22382
877.674	22367
877.802	22409
877.93	22451
878.058	22253
878.185	22261
878.313	22394
878.441	22371
878.568	22215
878.696	22314
878.824	22409
878.951	22443
879.079	22599
879.206	22683
879.333	22478
879.461	22535
879.588	22394
879.715	22497
879.842	22702
879.97	22485
880.097	22276
880.224	22074
880.351	22314
880.478	22284
880.605	22223
880.732	22196
880.859	22440
880.986	22181
881.112	22333
881.239	22139
881.366	21960
881.493	21903
881.619	21876
881.746	21846
881.872	21785
881.999	21759
882.125	21766
882.252	21903
882.378	21827
882.505	21934
882.631	21629
882.757	21599
882.883	21667
883.01	21382
883.136	21477
883.262	21466
883.388	21348
883.514	21477
883.64	21416
883.766	21389
883.892	21340
884.018	21408
884.143	21412
884.269	21492
884.395	21272
884.52	21146
884.646	21154
884.772	21127
884.897	20975
885.023	21047
885.148	21119
885.274	21264
885.399	21252
885.524	21036
885.65	21157
885.775	21066
885.9	21184
886.025	21161
886.15	21146
886.275	21154
886.4	21013
886.525	21017
886.65	21017
886.775	20887
886.9	21203
887.025	21294
887.149	21100
887.274	21017
887.399	20887
887.523	20971
887.648	20800
887.773	20937
887.897	20948
888.021	20941
888.146	20746
888.27	21028
888.395	21058
888.519	21013
888.643	20921
888.767	20876
888.891	20849
889.015	20682
889.139	20842
889.263	20613
889.387	20746
889.511	20868
889.635	20693
889.759	20606
889.883	20689
890.006	20735
890.13	20724
890.254	20503
890.377	20560
890.501	20511
890.624	20358
890.748	20438
890.871	20362
890.995	20233
891.118	20229
891.241	20442
891.364	20309
891.488	20358
891.611	20248
891.734	20355
891.857	20389
891.98	20362
892.103	20343
892.226	20252
892.349	20199
892.471	20119
892.594	20100
892.717	20145
892.839	20199
892.962	20138
893.085	20400
893.207	20202
893.33	20024
893.452	20103
893.575	20191
893.697	20103
893.819	20385
893.941	20286
894.064	20286
894.186	20107
894.308	19974
894.43	20168
894.552	20336
894.674	20259
894.796	20081
894.918	20161
895.04	20062
895.161	20218
895.283	20221
895.405	20077
895.526	20256
895.648	20107
895.769	20153
895.891	20107
896.012	20252
896.134	20134
896.255	20210
896.376	20172
896.498	20069
896.619	20126
896.74	20126
896.861	20081
896.982	20537
897.103	20670
897.224	20446
897.345	20408
897.466	20294
897.587	20423
897.708	20473
897.828	20454
897.949	20355
898.07	20195
898.19	20370
898.311	20423
898.431	20385
898.552	20317
898.672	20438
898.792	20541
898.913	20419
899.033	20339
899.153	20202
899.273	20138
899.393	20164
899.513	20134
899.633	20237
899.753	20081
899.873	20001
899.993	20153
900.113	20088
900.232	19947
900.352	20058
900.472	20054
900.591	19902
900.711	19909
900.83	19799
900.95	20008
901.069	20046
901.189	19814
901.308	19552
901.427	19449
901.546	19597
901.665	19407
901.784	19529
901.904	19339
902.023	19301
902.141	19091
902.26	19019
902.379	19187
902.498	18977
902.617	18932
902.735	19027
902.854	18973
902.973	18852
903.091	18711
903.21	18593
903.328	18673
903.446	18593
903.565	18559
903.683	18372
903.801	18334
903.919	18471
904.038	18384
904.156	18201
904.274	18388
904.392	18224
904.51	18125
904.627	18289
904.745	18300
904.863	18228
904.981	18087
905.098	17874
905.216	17935
905.334	17870
905.451	17980
905.569	17866
905.686	18019
905.803	17851
905.921	17680
906.038	17863
906.155	17729
906.272	17520
906.389	17691
906.506	17467
906.623	17463
906.74	17535
906.857	17334
906.974	17318
907.091	17509
907.208	17592
907.324	17448
907.441	17436
907.557	17151
907.674	17246
907.79	17060
907.907	17094
908.023	17322
908.139	17064
908.256	17090
908.372	17045
908.488	16991
908.604	16953
908.72	16949
908.836	16835
908.952	16816
909.068	16839
909.184	17033
909.3	16881
909.415	16908
909.531	16786
909.647	16535
909.762	16603
909.878	16603
909.993	16691
910.108	16607
910.224	16592
910.339	16656
910.454	16478
910.57	16371
910.685	16249
910.8	16615
910.915	16569
911.03	16337
911.145	16188
911.259	16078
911.374	16105
911.489	16158
911.604	16055
911.718	15998
911.833	15915
911.947	15861
912.062	15778
912.176	15895
912.291	15941
912.405	15873
912.519	16158
912.633	16067
912.748	15968
912.862	15873
912.976	15701
913.09	15599
913.204	15720
913.318	15766
913.431	15846
913.545	15827
913.659	15857
913.772	15736
913.886	15564
914	15492
914.113	15591
914.226	15675
914.34	15542
914.453	15412
914.566	15572
914.68	15496
914.793	15302
914.906	15249
915.019	15131
915.132	15093
915.245	15146
915.358	15237
915.47	15135
915.583	15142
915.696	15154
915.809	15233
915.921	15245
916.034	15116
916.146	15036
916.259	14982
916.371	15161
916.483	15055
916.595	15017
916.708	15001
916.82	15009
916.932	15017
917.044	14834
917.156	14838
917.268	14842
917.38	14895
917.491	14754
917.603	14811
917.715	14857
917.826	14819
917.938	14826
918.049	14545
918.161	14769
918.272	14781
918.384	14906
918.495	14636
918.606	14625
918.717	14552
918.828	14655
918.939	14579
919.05	14465
919.161	14541
919.272	14412
919.383	14404
919.494	14571
919.604	14758
919.715	14499
919.826	14457
919.936	14495
920.047	14556
920.157	14526
920.267	14701
920.378	14552
920.488	14564
920.598	14644
920.708	14823
920.818	14655
920.928	14564
921.038	14845
921.148	14743
921.258	14579
921.368	14343
921.477	14240
921.587	14202
921.697	14111
921.806	14267
921.916	14123
922.025	13928
922.134	13944
922.244	13814
922.353	13955
922.462	13871
922.571	13666
922.68	13567
922.789	13468
922.898	13632
923.007	13457
923.116	13559
923.224	13506
923.333	13552
923.442	13373
923.55	13438
923.659	13316
923.767	13407
923.876	13225
923.984	13445
924.092	13232
924.201	13346
924.309	13274
924.417	13304
924.525	13145
924.633	13274
924.741	14149
924.849	12993
924.956	13145
925.064	12993
925.172	12863
925.279	12989
925.387	13000
925.494	12924
925.602	13053
925.709	13069
925.816	12817
925.924	12916
926.031	13004
926.138	12894
926.245	12901
926.352	12791
926.459	12943
926.566	12951
926.673	12783
926.779	12688
926.886	12631
926.993	12540
927.099	12441
927.206	12426
927.312	12448
927.419	12517
927.525	12486
927.631	12593
927.737	12410
927.843	12498
927.95	12232
928.056	12296
928.162	12418
928.267	12388
928.373	13012
928.479	12422
928.585	12178
928.69	12300
928.796	12315
928.901	12266
929.007	12064
929.112	12167
929.218	12186
929.323	12117
929.428	12060
929.533	12243
929.638	12121
929.743	12003
929.848	12076
929.953	11973
930.058	11874
930.163	11748
930.267	11745
930.372	11790
930.477	11684
930.581	11912
930.685	11813
930.79	11535
930.894	11718
930.998	11630
931.103	11710
931.207	11311
931.311	11322
931.415	11193
931.519	10991
931.623	11075
