Data from test_V78500241_1517.txt Node
Date: Fri Mar 25 15:20:25 CST 2022
User: usil
Spectrometer: V785-0024
Trigger mode: 0
Integration Time (sec): 4.000000E-1
Scans to average: 1
Nonlinearity correction enabled: false
Boxcar width: 0
Storing dark spectrum: false
XAxis mode: Wavelengths
Number of Pixels in Spectrum: 1024
>>>>>Begin Spectral Data<<<<<
801.071	28097
801.214	27991
801.356	27827
801.499	27770
801.641	27538
801.783	27469
801.926	27705
802.068	27686
802.211	27420
802.353	27511
802.496	27302
802.638	27473
802.78	27260
802.923	27230
803.065	27230
803.208	27230
803.35	27344
803.492	27450
803.635	27523
803.777	27408
803.919	27485
804.061	27827
804.204	27439
804.346	27416
804.488	27389
804.63	27507
804.773	27370
804.915	27420
805.057	27622
805.199	27504
805.341	27641
805.483	27667
805.626	27732
805.768	27481
805.91	27625
806.052	27587
806.194	27504
806.336	27816
806.478	27682
806.62	27686
806.762	27770
806.904	27991
807.046	28017
807.188	27945
807.33	28006
807.472	27998
807.614	28036
807.756	28093
807.898	28025
808.04	27842
808.182	27747
808.324	27964
808.465	28010
808.607	28029
808.749	28188
808.891	28226
809.033	28356
809.174	28299
809.316	28204
809.458	28303
809.6	28226
809.741	28314
809.883	28329
810.025	28679
810.166	28626
810.308	28649
810.45	28500
810.591	28436
810.733	28204
810.875	28272
811.016	28211
811.158	28124
811.299	28329
811.441	28325
811.582	28253
811.724	28253
811.865	28287
812.007	28306
812.148	28257
812.29	28417
812.431	28401
812.573	28653
812.714	28713
812.855	28839
812.997	28820
813.138	28873
813.279	28965
813.421	28816
813.562	28759
813.703	28618
813.845	28497
813.986	28188
814.127	28207
814.268	28036
814.41	27956
814.551	27960
814.692	28006
814.833	27914
814.974	27857
815.115	27972
815.256	27861
815.397	27854
815.539	27804
815.68	27720
815.821	27648
815.962	27888
816.103	27751
816.244	27568
816.385	27439
816.526	27507
816.666	27435
816.807	27161
816.948	27416
817.089	27279
817.23	27222
817.371	27214
817.512	27211
817.653	27275
817.793	27192
817.934	27287
818.075	27332
818.216	27131
818.356	27142
818.497	27017
818.638	26956
818.778	27043
818.919	27138
819.06	27028
819.2	27154
819.341	27241
819.481	27195
819.622	27348
819.762	27629
819.903	27458
820.043	27214
820.184	27321
820.324	27325
820.465	27412
820.605	27462
820.746	27264
820.886	27218
821.026	27310
821.167	27256
821.307	27344
821.447	27241
821.588	27154
821.728	27009
821.868	26769
822.008	26815
822.149	26689
822.289	26602
822.429	26415
822.569	26305
822.709	26309
822.849	26115
822.99	26313
823.13	26111
823.27	26267
823.41	25989
823.55	26016
823.69	26008
823.83	25944
823.97	25925
824.11	25772
824.25	25833
824.389	25651
824.529	25928
824.669	25898
824.809	26001
824.949	25955
825.089	25947
825.228	25986
825.368	25704
825.508	25715
825.648	25795
825.787	25624
825.927	25849
826.067	25666
826.206	25655
826.346	25727
826.485	25890
826.625	25689
826.765	25860
826.904	25837
827.044	25453
827.183	25643
827.323	25495
827.462	25472
827.601	25487
827.741	25479
827.88	25537
828.02	25289
828.159	25247
828.298	25327
828.437	25510
828.577	25373
828.716	25350
828.855	25434
828.994	25129
829.134	25034
829.273	25213
829.412	25072
829.551	25091
829.69	25076
829.829	25107
829.968	25251
830.107	25114
830.246	25038
830.385	24966
830.524	25080
830.663	24875
830.802	24741
830.941	24753
831.08	24696
831.219	24848
831.357	24783
831.496	24939
831.635	24848
831.774	24764
831.913	24642
832.051	24555
832.19	24490
832.329	24547
832.467	24315
832.606	24292
832.744	24357
832.883	24273
833.022	24445
833.16	24399
833.299	24475
833.437	24372
833.576	24399
833.714	24460
833.852	24509
833.991	24509
834.129	24525
834.267	24528
834.406	24407
834.544	24486
834.682	24490
834.821	24422
834.959	24749
835.097	24513
835.235	24486
835.373	24578
835.511	24471
835.65	24292
835.788	24437
835.926	24106
836.064	24228
836.202	24163
836.34	24429
836.478	24380
836.615	24277
836.753	24213
836.891	24391
837.029	24395
837.167	24201
837.305	24186
837.443	24125
837.58	24049
837.718	24174
837.856	24114
837.993	23878
838.131	24121
838.269	24079
838.406	24079
838.544	23946
838.681	23707
838.819	23710
838.956	23535
839.094	23646
839.231	23581
839.369	23805
839.506	23859
839.643	23866
839.781	23627
839.918	23543
840.055	23478
840.193	23562
840.33	23661
840.467	23566
840.604	23577
840.742	23775
840.879	23406
841.016	23558
841.153	23372
841.29	23573
841.427	23551
841.564	23501
841.701	23444
841.838	23547
841.975	23330
842.112	23372
842.249	23242
842.385	23212
842.522	23379
842.659	23311
842.796	23273
842.933	23227
843.069	23151
843.206	23166
843.343	23303
843.479	23254
843.616	23178
843.752	23006
843.889	22900
844.025	23315
844.162	22995
844.298	23079
844.435	23086
844.571	22930
844.708	23022
844.844	23121
844.98	23048
845.117	23124
845.253	23041
845.389	22847
845.525	22869
845.661	22763
845.798	22660
845.934	22820
846.07	22702
846.206	22740
846.342	22976
846.478	22774
846.614	22592
846.75	22466
846.886	22508
847.022	22531
847.158	22405
847.294	22516
847.429	22489
847.565	22390
847.701	22721
847.837	22268
847.972	22059
848.108	22272
848.244	22253
848.379	21991
848.515	22124
848.65	22124
848.786	22059
848.921	22143
849.057	22242
849.192	22196
849.328	22169
849.463	22124
849.598	22048
849.734	22105
849.869	22010
850.004	21789
850.14	21895
850.275	21949
850.41	21739
850.545	21865
850.68	21797
850.815	21857
850.95	21778
851.085	22025
851.22	21960
851.355	21861
851.49	21797
851.625	21831
851.76	21819
851.895	21770
852.03	21816
852.165	21739
852.299	21861
852.434	21922
852.569	21781
852.703	21899
852.838	21941
852.973	21964
853.107	21998
853.242	21762
853.376	21694
853.511	21583
853.645	21671
853.78	21793
853.914	21564
854.048	21576
854.183	21618
854.317	21682
854.451	21808
854.585	21679
854.72	21633
854.854	21743
854.988	21652
855.122	21580
855.256	21583
855.39	21622
855.524	21709
855.658	21694
855.792	21720
855.926	21759
856.06	21747
856.194	21739
856.327	21458
856.461	21515
856.595	21568
856.729	21698
856.862	21812
856.996	21652
857.13	21842
857.263	21728
857.397	21846
857.53	21648
857.664	21618
857.797	21762
857.931	21816
858.064	21542
858.197	21755
858.331	21774
858.464	21603
858.597	21595
858.731	21606
858.864	21629
858.997	21568
859.13	21759
859.263	21679
859.396	21644
859.529	21523
859.662	21629
859.795	21682
859.928	21580
860.061	21713
860.194	21861
860.327	21682
860.46	21831
860.592	21937
860.725	21789
860.858	21888
860.99	21629
861.123	21477
861.256	21557
861.388	21660
861.521	22474
861.653	21568
861.786	21538
861.918	21428
862.05	21576
862.183	21610
862.315	21549
862.447	21614
862.58	21599
862.712	21340
862.844	21336
862.976	21374
863.108	21450
863.24	21698
863.372	21332
863.504	21370
863.636	21332
863.768	21294
863.9	21363
864.032	21264
864.164	21184
864.296	21431
864.428	21416
864.559	21435
864.691	21469
864.823	21408
864.954	21313
865.086	21321
865.217	21279
865.349	21165
865.48	21249
865.612	21218
865.743	21268
865.875	21317
866.006	21272
866.137	21317
866.269	21226
866.4	21104
866.531	21298
866.662	21138
866.793	21199
866.924	21150
867.055	21241
867.186	21241
867.317	21112
867.448	21100
867.579	21203
867.71	21089
867.841	20998
867.972	21043
868.103	21043
868.233	21169
868.364	21081
868.495	21287
868.625	21401
868.756	21557
868.886	21279
869.017	21405
869.147	21545
869.278	21580
869.408	21466
869.539	21420
869.669	21473
869.799	21359
869.929	21675
870.06	21473
870.19	21610
870.32	21599
870.45	21751
870.58	21732
870.71	21789
870.84	21892
870.97	21842
871.1	21778
871.23	21899
871.36	21934
871.489	21949
871.619	21998
871.749	22010
871.879	21987
872.008	22097
872.138	21956
872.267	21926
872.397	21930
872.526	21861
872.656	21751
872.785	21785
872.915	21903
873.044	22090
873.173	21960
873.303	22044
873.432	22059
873.561	22135
873.69	21941
873.819	22010
873.948	22044
874.077	21968
874.206	21994
874.335	22006
874.464	22116
874.593	22329
874.722	22284
874.851	22272
874.979	22238
875.108	22310
875.237	22303
875.365	22154
875.494	22246
875.623	22280
875.751	22143
875.88	22314
876.008	22333
876.136	22481
876.265	22645
876.393	22797
876.521	22721
876.65	22637
876.778	22596
876.906	22603
877.034	22603
877.162	22527
877.29	22474
877.418	22656
877.546	22694
877.674	22538
877.802	22649
877.93	22588
878.058	22485
878.185	22451
878.313	22569
878.441	22577
878.568	22375
878.696	22527
878.824	22588
878.951	22645
879.079	22843
879.206	22755
879.333	22729
879.461	22702
879.588	22717
879.715	22653
879.842	22911
879.97	22565
880.097	22424
880.224	22436
880.351	22459
880.478	22421
880.605	22295
880.732	22440
880.859	22713
880.986	22291
881.112	22322
881.239	22299
881.366	22249
881.493	22074
881.619	21979
881.746	21998
881.872	21903
881.999	21854
882.125	21770
882.252	21983
882.378	21991
882.505	22139
882.631	21781
882.757	21644
882.883	21812
883.01	21614
883.136	21557
883.262	21454
883.388	21545
883.514	21599
883.64	21637
883.766	21595
883.892	21450
884.018	21325
884.143	21671
884.269	21724
884.395	21447
884.52	21351
884.646	21268
884.772	21211
884.897	21169
885.023	21416
885.148	21332
885.274	21359
885.399	21348
885.524	21336
885.65	21344
885.775	21313
885.9	21313
886.025	21313
886.15	21344
886.275	21325
886.4	21218
886.525	21298
886.65	21150
886.775	21188
886.9	21405
887.025	21534
887.149	21279
887.274	21123
887.399	20933
887.523	21165
887.648	20979
887.773	20956
887.897	21047
888.021	21070
888.146	20982
888.27	21230
888.395	21226
888.519	21085
888.643	20933
888.767	21001
888.891	21047
889.015	20819
889.139	20815
889.263	20845
889.387	21036
889.511	21036
889.635	21032
889.759	20857
889.883	20918
890.006	20754
890.13	20975
890.254	20765
890.377	20773
890.501	20686
890.624	20587
890.748	20583
890.871	20598
890.995	20419
891.118	20374
891.241	20465
891.364	20278
891.488	20545
891.611	20419
891.734	20446
891.857	20320
891.98	20488
892.103	20431
892.226	20347
892.349	20320
892.471	20195
892.594	20313
892.717	20317
892.839	20396
892.962	20355
893.085	20438
893.207	20393
893.33	20377
893.452	20362
893.575	20434
893.697	20294
893.819	20533
893.941	20484
894.064	20450
894.186	20210
894.308	20199
894.43	20336
894.552	20423
894.674	20442
894.796	20267
894.918	20180
895.04	20233
895.161	20461
895.283	20233
895.405	20286
895.526	20400
895.648	20305
895.769	20400
895.891	20412
896.012	20427
896.134	20332
896.255	20259
896.376	20317
896.498	20400
896.619	20248
896.74	20263
896.861	20366
896.982	20526
897.103	20785
897.224	20613
897.345	20583
897.466	20545
897.587	20545
897.708	20667
897.828	20670
897.949	20450
898.07	20305
898.19	20434
898.311	20640
898.431	20545
898.552	20507
898.672	20575
898.792	20632
898.913	20499
899.033	20518
899.153	20336
899.273	20149
899.393	20400
899.513	20301
899.633	20324
899.753	20233
899.873	20267
899.993	20256
900.113	20252
900.232	20259
900.352	20229
900.472	20138
900.591	19883
900.711	20115
900.83	20016
900.95	20176
901.069	20145
901.189	19989
901.308	19738
901.427	19624
901.546	19590
901.665	19677
901.784	19616
901.904	19578
902.023	19415
902.141	19202
902.26	19164
902.379	19209
902.498	19240
902.617	19175
902.735	19141
902.854	19114
902.973	19088
903.091	18817
903.21	18871
903.328	18905
903.446	18741
903.565	18650
903.683	18528
903.801	18467
903.919	18608
904.038	18593
904.156	18460
904.274	18410
904.392	18350
904.51	18365
904.627	18506
904.745	18494
904.863	18475
904.981	18239
905.098	18091
905.216	18178
905.334	18117
905.451	18117
905.569	17942
905.686	18068
905.803	18079
905.921	17809
906.038	17901
906.155	17927
906.272	17897
906.389	17737
906.506	17642
906.623	17509
906.74	17539
906.857	17497
906.974	17562
907.091	17684
907.208	17760
907.324	17573
907.441	17505
907.557	17349
907.674	17341
907.79	17296
907.907	17349
908.023	17322
908.139	17318
908.256	17322
908.372	17220
908.488	17231
908.604	17029
908.72	16991
908.836	17014
908.952	16984
909.068	17075
909.184	17254
909.3	17022
909.415	16995
909.531	17037
909.647	16774
909.762	16660
909.878	16729
909.993	16725
910.108	16615
910.224	16748
910.339	16733
910.454	16554
910.57	16485
910.685	16500
910.8	16771
910.915	16664
911.03	16417
911.145	16413
911.259	16352
911.374	16265
911.489	16249
911.604	16223
911.718	16185
911.833	16029
911.947	15979
912.062	15899
912.176	15991
912.291	15998
912.405	16044
912.519	16249
912.633	16276
912.748	16071
912.862	15979
912.976	15895
913.09	15755
913.204	15800
913.318	15888
913.431	15934
913.545	15956
913.659	16032
913.772	15797
913.886	15652
914	15713
914.113	15690
914.226	15838
914.34	15770
914.453	15564
914.566	15682
914.68	15553
914.793	15496
914.906	15393
915.019	15359
915.132	15214
915.245	15211
915.358	15363
915.47	15336
915.583	15268
915.696	15332
915.809	15431
915.921	15218
916.034	15165
916.146	15047
916.259	15112
916.371	15184
916.483	15241
916.595	15089
916.708	15066
916.82	15123
916.932	15093
917.044	15005
917.156	15005
917.268	14902
917.38	14933
917.491	14963
917.603	14849
917.715	15013
917.826	14944
917.938	14933
918.049	14842
918.161	14895
918.272	15001
918.384	15085
918.495	14857
918.606	14727
918.717	14651
918.828	14640
918.939	14693
919.05	14598
919.161	14632
919.272	14465
919.383	14571
919.494	14648
919.604	14739
919.715	14663
919.826	14579
919.936	14682
920.047	14716
920.157	14598
920.267	14746
920.378	14598
920.488	14583
920.598	14746
920.708	14857
920.818	14788
920.928	14705
921.038	14849
921.148	14899
921.258	14602
921.368	14522
921.477	14377
921.587	14377
921.697	14210
921.806	14355
921.916	14096
922.025	14058
922.134	14043
922.244	13887
922.353	14020
922.462	13830
922.571	13852
922.68	13696
922.789	13670
922.898	13719
923.007	13586
923.116	13616
923.224	13609
923.333	13563
923.442	13544
923.55	13495
923.659	13476
923.767	13499
923.876	13403
923.984	13537
924.092	13297
924.201	13464
924.309	13339
924.417	13377
924.525	13293
924.633	13301
924.741	14100
924.849	13141
924.956	13255
925.064	13031
925.172	13046
925.279	13095
925.387	13084
925.494	13129
925.602	13129
925.709	13034
925.816	12954
925.924	13027
926.031	13160
926.138	13095
926.245	13072
926.352	12875
926.459	13027
926.566	12996
926.673	12890
926.779	12738
926.886	12745
926.993	12525
927.099	12585
927.206	12642
927.312	12601
927.419	12677
927.525	12627
927.631	12631
927.737	12547
927.843	12475
927.95	12410
928.056	12448
928.162	12498
928.267	12437
928.373	13072
928.479	12483
928.585	12281
928.69	12410
928.796	12357
928.901	12353
929.007	12243
929.112	12194
929.218	12262
929.323	12220
929.428	12194
929.533	12281
929.638	12076
929.743	12167
929.848	12106
929.953	12152
930.058	12030
930.163	11863
930.267	11805
930.372	11980
930.477	11866
930.581	12041
930.685	11874
930.79	11691
930.894	11764
930.998	11752
931.103	11771
931.207	11486
931.311	11467
931.415	11322
931.519	11090
931.623	11022
