Data from test_V78500241_2534.txt Node
Date: Fri Mar 25 15:27:30 CST 2022
User: usil
Spectrometer: V785-0024
Trigger mode: 0
Integration Time (sec): 4.000000E-1
Scans to average: 1
Nonlinearity correction enabled: false
Boxcar width: 0
Storing dark spectrum: false
XAxis mode: Wavelengths
Number of Pixels in Spectrum: 1024
>>>>>Begin Spectral Data<<<<<
801.071	27146
801.214	27283
801.356	26910
801.499	26967
801.641	26670
801.783	26674
801.926	26716
802.068	26735
802.211	26636
802.353	26629
802.496	26396
802.638	26286
802.78	26351
802.923	26294
803.065	26286
803.208	26290
803.35	26336
803.492	26648
803.635	26499
803.777	26324
803.919	26541
804.061	26758
804.204	26587
804.346	26461
804.488	26412
804.63	26473
804.773	26530
804.915	26465
805.057	26590
805.199	26457
805.341	26651
805.483	26476
805.626	26667
805.768	26526
805.91	26556
806.052	26640
806.194	26431
806.336	26606
806.478	26686
806.62	26602
806.762	26708
806.904	26857
807.046	27135
807.188	26998
807.33	27039
807.472	27039
807.614	26804
807.756	26986
807.898	26758
808.04	26853
808.182	26705
808.324	26708
808.465	26902
808.607	27138
808.749	27184
808.891	27401
809.033	27252
809.174	27256
809.316	27116
809.458	27138
809.6	27226
809.741	27294
809.883	27332
810.025	27507
810.166	27439
810.308	27477
810.45	27386
810.591	27370
810.733	27207
810.875	27176
811.016	27142
811.158	27028
811.299	27233
811.441	27332
811.582	27348
811.724	27169
811.865	27264
812.007	27047
812.148	27066
812.29	27176
812.431	27348
812.573	27401
812.714	27447
812.855	27648
812.997	27747
813.138	27945
813.279	27774
813.421	27633
813.562	27705
813.703	27492
813.845	27405
813.986	26979
814.127	26952
814.268	26815
814.41	26842
814.551	26792
814.692	26887
814.833	26849
814.974	26777
815.115	26819
815.256	26731
815.397	26651
815.539	26670
815.68	26575
815.821	26537
815.962	26693
816.103	26587
816.244	26313
816.385	26431
816.526	26473
816.666	26153
816.807	26069
816.948	26202
817.089	26221
817.23	26233
817.371	26062
817.512	26084
817.653	26088
817.793	25928
817.934	26172
818.075	26096
818.216	26088
818.356	25959
818.497	25955
818.638	25814
818.778	25860
818.919	25852
819.06	25925
819.2	25970
819.341	26092
819.481	26062
819.622	26172
819.762	26503
819.903	26332
820.043	26263
820.184	26214
820.324	26149
820.465	26256
820.605	26259
820.746	26058
820.886	26122
821.026	26111
821.167	26130
821.307	26096
821.447	26126
821.588	26058
821.728	25776
821.868	25655
822.008	25529
822.149	25708
822.289	25518
822.429	25388
822.569	25285
822.709	25221
822.849	25122
822.99	25000
823.13	25050
823.27	24947
823.41	24859
823.55	24795
823.69	24935
823.83	24863
823.97	24943
824.11	24776
824.25	24665
824.389	24650
824.529	24722
824.669	24604
824.809	24681
824.949	24692
825.089	24764
825.228	24787
825.368	24452
825.508	24547
825.648	24521
825.787	24574
825.927	24650
826.067	24509
826.206	24532
826.346	24654
826.485	24593
826.625	24585
826.765	24760
826.904	24635
827.044	24338
827.183	24388
827.323	24346
827.462	24410
827.601	24353
827.741	24277
827.88	24270
828.02	24243
828.159	24194
828.298	24224
828.437	24372
828.577	24213
828.716	24399
828.855	24216
828.994	23965
829.134	24041
829.273	24007
829.412	23996
829.551	23851
829.69	23992
829.829	24079
829.968	24091
830.107	24072
830.246	24038
830.385	23794
830.524	23836
830.663	23866
830.802	23756
830.941	23729
831.08	23600
831.219	23676
831.357	23646
831.496	23870
831.635	23608
831.774	23687
831.913	23543
832.051	23387
832.19	23364
832.329	23402
832.467	23387
832.606	23227
832.744	23254
832.883	23197
833.022	23204
833.16	23277
833.299	23166
833.437	23208
833.576	23505
833.714	23337
833.852	23360
833.991	23433
834.129	23573
834.267	23398
834.406	23364
834.544	23452
834.682	23337
834.821	23246
834.959	23516
835.097	23334
835.235	23452
835.373	23330
835.511	23364
835.65	23311
835.788	23162
835.926	23025
836.064	23029
836.202	23136
836.34	23079
836.478	23212
836.615	23181
836.753	23246
836.891	23368
837.029	23242
837.167	23200
837.305	23132
837.443	23193
837.58	23136
837.718	23048
837.856	23060
837.993	23033
838.131	23067
838.269	23003
838.406	23056
838.544	22790
838.681	22843
838.819	22721
838.956	22519
839.094	22557
839.231	22523
839.369	22634
839.506	22961
839.643	22824
839.781	22443
839.918	22535
840.055	22451
840.193	22474
840.33	22519
840.467	22603
840.604	22474
840.742	22835
840.879	22421
841.016	22546
841.153	22462
841.29	22542
841.427	22348
841.564	22493
841.701	22508
841.838	22504
841.975	22352
842.112	22432
842.249	22417
842.385	22371
842.522	22409
842.659	22386
842.796	22314
842.933	22265
843.069	22185
843.206	22166
843.343	22291
843.479	22280
843.616	22325
843.752	21991
843.889	22090
844.025	22116
844.162	22021
844.298	22131
844.435	22021
844.571	21922
844.708	22090
844.844	22211
844.98	22162
845.117	22048
845.253	21979
845.389	21983
845.525	22006
845.661	21861
845.798	21728
845.934	21789
846.07	21793
846.206	21793
846.342	21827
846.478	21713
846.614	21603
846.75	21412
846.886	21378
847.022	21564
847.158	21542
847.294	21485
847.429	21591
847.565	21511
847.701	21800
847.837	21112
847.972	21325
848.108	21355
848.244	21291
848.379	21085
848.515	21173
848.65	20998
848.786	21096
848.921	21070
849.057	21268
849.192	20994
849.328	21024
849.463	21116
849.598	21112
849.734	20982
849.869	21009
850.004	20902
850.14	20929
850.275	20853
850.41	20735
850.545	20929
850.68	20754
850.815	20826
850.95	20906
851.085	21020
851.22	20853
851.355	20899
851.49	20872
851.625	20724
851.76	20857
851.895	20777
852.03	20853
852.165	20937
852.299	20979
852.434	20902
852.569	20842
852.703	20811
852.838	20857
852.973	20952
853.107	20986
853.242	20872
853.376	20746
853.511	20526
853.645	20701
853.78	20773
853.914	20636
854.048	20651
854.183	20533
854.317	20727
854.451	20975
854.585	20769
854.72	20640
854.854	20823
854.988	20579
855.122	20720
855.256	20579
855.39	20667
855.524	20735
855.658	20640
855.792	20727
855.926	20804
856.06	20697
856.194	20758
856.327	20674
856.461	20499
856.595	20621
856.729	20640
856.862	20781
856.996	20659
857.13	20762
857.263	20807
857.397	20629
857.53	20667
857.664	20602
857.797	20708
857.931	20788
858.064	20830
858.197	20796
858.331	20613
858.464	20549
858.597	20461
858.731	20609
858.864	20648
858.997	20693
859.13	20724
859.263	20750
859.396	20674
859.529	20632
859.662	20655
859.795	20667
859.928	20762
860.061	20826
860.194	20864
860.327	20769
860.46	20651
860.592	20769
860.725	20845
860.858	20826
860.99	20708
861.123	20560
861.256	20693
861.388	20697
861.521	21378
861.653	20537
861.786	20518
861.918	20530
862.05	20541
862.183	20701
862.315	20583
862.447	20743
862.58	20571
862.712	20400
862.844	20423
862.976	20507
863.108	20408
863.24	20891
863.372	20320
863.504	20446
863.636	20492
863.768	20461
863.9	20339
864.032	20244
864.164	20377
864.296	20343
864.428	20503
864.559	20533
864.691	20473
864.823	20454
864.954	20419
865.086	20278
865.217	20286
865.349	20275
865.48	20385
865.612	20263
865.743	20473
865.875	20240
866.006	20278
866.137	20294
866.269	20252
866.4	20336
866.531	20256
866.662	20271
866.793	20328
866.924	20191
867.055	20324
867.186	20366
867.317	20240
867.448	20221
867.579	20294
867.71	19986
867.841	20237
867.972	20252
868.103	20305
868.233	20339
868.364	20248
868.495	20457
868.625	20484
868.756	20556
868.886	20419
869.017	20495
869.147	20530
869.278	20621
869.408	20526
869.539	20427
869.669	20549
869.799	20617
869.929	20644
870.06	20667
870.19	20769
870.32	20697
870.45	20986
870.58	20944
870.71	21020
870.84	20941
870.97	20941
871.1	20895
871.23	21089
871.36	21116
871.489	20956
871.619	20960
871.749	21062
871.879	21123
872.008	21176
872.138	21112
872.267	21131
872.397	21055
872.526	20952
872.656	20925
872.785	20967
872.915	21241
873.044	21203
873.173	21237
873.303	21020
873.432	21264
873.561	21310
873.69	21100
873.819	21074
873.948	21222
874.077	21161
874.206	21180
874.335	21135
874.464	21192
874.593	21348
874.722	21416
874.851	21511
874.979	21386
875.108	21401
875.237	21249
875.365	21249
875.494	21374
875.623	21420
875.751	21317
875.88	21370
876.008	21389
876.136	21538
876.265	21808
876.393	21892
876.521	21937
876.65	22040
876.778	21808
876.906	21743
877.034	21736
877.162	21743
877.29	21576
877.418	21755
877.546	21743
877.674	21671
877.802	21823
877.93	21842
878.058	21724
878.185	21580
878.313	21720
878.441	21762
878.568	21656
878.696	21766
878.824	21835
878.951	21926
879.079	21915
879.206	22082
879.333	21819
879.461	21789
879.588	21930
879.715	21854
879.842	22154
879.97	21728
880.097	21572
880.224	21652
880.351	21580
880.478	21580
880.605	21511
880.732	21679
880.859	21797
880.986	21549
881.112	21599
881.239	21534
881.366	21355
881.493	21214
881.619	21108
881.746	21302
881.872	21093
881.999	21157
882.125	21116
882.252	21135
882.378	21207
882.505	21256
882.631	20979
882.757	20887
882.883	20986
883.01	20914
883.136	20845
883.262	20735
883.388	20689
883.514	20807
883.64	20826
883.766	20769
883.892	20689
884.018	20644
884.143	20705
884.269	20883
884.395	20598
884.52	20511
884.646	20537
884.772	20552
884.897	20381
885.023	20465
885.148	20629
885.274	20606
885.399	20636
885.524	20617
885.65	20450
885.775	20503
885.9	20423
886.025	20617
886.15	20522
886.275	20419
886.4	20419
886.525	20499
886.65	20571
886.775	20457
886.9	20575
887.025	20826
887.149	20556
887.274	20263
887.399	20305
887.523	20263
887.648	20195
887.773	20229
887.897	20313
888.021	20343
888.146	20259
888.27	20351
888.395	20454
888.519	20286
888.643	20286
888.767	20278
888.891	20195
889.015	20016
889.139	20073
889.263	20020
889.387	20233
889.511	20358
889.635	20252
889.759	20206
889.883	20092
890.006	20153
890.13	20187
890.254	19982
890.377	19959
890.501	19875
890.624	19875
890.748	19887
890.871	19715
890.995	19738
891.118	19548
891.241	19712
891.364	19715
891.488	19719
891.611	19578
891.734	19643
891.857	19658
891.98	19708
892.103	19624
892.226	19696
892.349	19639
892.471	19525
892.594	19559
892.717	19594
892.839	19499
892.962	19620
893.085	19632
893.207	19552
893.33	19487
893.452	19472
893.575	19761
893.697	19548
893.819	19826
893.941	19696
894.064	19772
894.186	19586
894.308	19620
894.43	19616
894.552	19677
894.674	19639
894.796	19460
894.918	19472
895.04	19601
895.161	19704
895.283	19521
895.405	19624
895.526	19495
895.648	19689
895.769	19635
895.891	19639
896.012	19666
896.134	19605
896.255	19696
896.376	19510
896.498	19712
896.619	19666
896.74	19453
896.861	19738
896.982	19868
897.103	20001
897.224	19833
897.345	19784
897.466	19750
897.587	19738
897.708	19944
897.828	19788
897.949	19723
898.07	19670
898.19	19719
898.311	19833
898.431	19852
898.552	19791
898.672	19852
898.792	19906
898.913	19742
899.033	19719
899.153	19594
899.273	19460
899.393	19613
899.513	19586
899.633	19510
899.753	19601
899.873	19491
899.993	19578
900.113	19540
900.232	19605
900.352	19457
900.472	19422
900.591	19255
900.711	19392
900.83	19285
900.95	19415
901.069	19453
901.189	19240
901.308	19034
901.427	18909
901.546	18901
901.665	18901
901.784	18951
901.904	18768
902.023	18734
902.141	18418
902.26	18521
902.379	18578
902.498	18426
902.617	18494
902.735	18498
902.854	18342
902.973	18376
903.091	18247
903.21	18053
903.328	18121
903.446	18045
903.565	18026
903.683	17885
903.801	17889
903.919	17836
904.038	17992
904.156	17824
904.274	17745
904.392	17722
904.51	17608
904.627	17710
904.745	17745
904.863	17710
904.981	17444
905.098	17311
905.216	17368
905.334	17497
905.451	17379
905.569	17337
905.686	17440
905.803	17440
905.921	17170
906.038	17288
906.155	17124
906.272	17086
906.389	17010
906.506	17022
906.623	16968
906.74	16847
906.857	16835
906.974	16889
907.091	17022
907.208	17006
907.324	16995
907.441	16896
907.557	16694
907.674	16649
907.79	16550
907.907	16596
908.023	16637
908.139	16672
908.256	16649
908.372	16641
908.488	16588
908.604	16424
908.72	16329
908.836	16500
908.952	16462
909.068	16382
909.184	16493
909.3	16310
909.415	16424
909.531	16402
909.647	16120
909.762	16093
909.878	16036
909.993	16135
910.108	16067
910.224	15956
910.339	16093
910.454	16021
910.57	15819
910.685	15823
910.8	16139
910.915	16010
911.03	15857
911.145	15656
911.259	15732
911.374	15648
911.489	15675
911.604	15557
911.718	15389
911.833	15458
911.947	15485
912.062	15378
912.176	15488
912.291	15545
912.405	15580
912.519	15606
912.633	15679
912.748	15557
912.862	15462
912.976	15306
913.09	15116
913.204	15256
913.318	15222
913.431	15298
913.545	15389
913.659	15435
913.772	15275
913.886	15135
914	15131
914.113	15135
914.226	15203
914.34	15203
914.453	14944
914.566	15138
914.68	15032
914.793	14899
914.906	14785
915.019	14792
915.132	14727
915.245	14689
915.358	14785
915.47	14769
915.583	14693
915.696	14754
915.809	14880
915.921	14739
916.034	14533
916.146	14602
916.259	14579
916.371	14648
916.483	14590
916.595	14579
916.708	14507
916.82	14606
916.932	14484
917.044	14419
917.156	14488
917.268	14469
917.38	14358
917.491	14434
917.603	14377
917.715	14480
917.826	14427
917.938	14256
918.049	14328
918.161	14309
918.272	14305
918.384	14351
918.495	14313
918.606	14206
918.717	14054
918.828	14172
918.939	14191
919.05	14138
919.161	14123
919.272	13955
919.383	14077
919.494	14206
919.604	14317
919.715	14149
919.826	14123
919.936	14043
920.047	14138
920.157	14065
920.267	14275
920.378	14100
920.488	14115
920.598	14187
920.708	14271
920.818	14267
920.928	14191
921.038	14366
921.148	14374
921.258	14073
921.368	13967
921.477	13871
921.587	13864
921.697	13746
921.806	13875
921.916	13727
922.025	13510
922.134	13514
922.244	13438
922.353	13506
922.462	13411
922.571	13304
922.68	13266
922.789	13072
922.898	13149
923.007	13057
923.116	13221
923.224	13088
923.333	13031
923.442	13152
923.55	12897
923.659	13046
923.767	13095
923.876	12951
923.984	12973
924.092	12875
924.201	12916
924.309	12867
924.417	12989
924.525	12856
924.633	12909
924.741	13799
924.849	12646
924.956	12844
925.064	12551
925.172	12528
925.279	12582
925.387	12635
925.494	12460
925.602	12669
925.709	12563
925.816	12540
925.924	12563
926.031	12544
926.138	12528
926.245	12525
926.352	12490
926.459	12551
926.566	12597
926.673	12407
926.779	12285
926.886	12372
926.993	12197
927.099	12152
927.206	12163
927.312	12106
927.419	12144
927.525	12308
927.631	12133
927.737	12064
927.843	12003
927.95	11916
928.056	12022
928.162	11950
928.267	12022
928.373	12593
928.479	12026
928.585	11939
928.69	12003
928.796	12003
928.901	11897
929.007	11760
929.112	11904
929.218	11805
929.323	11718
929.428	11649
929.533	11840
929.638	11589
929.743	11680
929.848	11779
929.953	11707
930.058	11566
930.163	11406
930.267	11463
930.372	11592
930.477	11425
930.581	11520
930.685	11509
930.79	11296
930.894	11364
930.998	11307
931.103	11478
931.207	11067
931.311	10957
931.415	10915
931.519	10717
931.623	10744
