Data from test_V78500241_2726.txt Node
Date: Fri Mar 25 15:28:50 CST 2022
User: usil
Spectrometer: V785-0024
Trigger mode: 0
Integration Time (sec): 4.000000E-1
Scans to average: 1
Nonlinearity correction enabled: false
Boxcar width: 0
Storing dark spectrum: false
XAxis mode: Wavelengths
Number of Pixels in Spectrum: 1024
>>>>>Begin Spectral Data<<<<<
801.071	27317
801.214	27188
801.356	26956
801.499	26948
801.641	26693
801.783	26640
801.926	26762
802.068	26689
802.211	26682
802.353	26648
802.496	26396
802.638	26457
802.78	26309
802.923	26370
803.065	26267
803.208	26290
803.35	26313
803.492	26492
803.635	26469
803.777	26476
803.919	26518
804.061	26887
804.204	26629
804.346	26583
804.488	26438
804.63	26556
804.773	26438
804.915	26606
805.057	26541
805.199	26564
805.341	26488
805.483	26648
805.626	26598
805.768	26564
805.91	26571
806.052	26663
806.194	26590
806.336	26895
806.478	26575
806.62	26674
806.762	26773
806.904	26826
807.046	27024
807.188	26918
807.33	27028
807.472	27096
807.614	27028
807.756	26960
807.898	26925
808.04	26899
808.182	26762
808.324	27005
808.465	26895
808.607	27051
808.749	27279
808.891	27260
809.033	27412
809.174	27329
809.316	27165
809.458	27272
809.6	27211
809.741	27218
809.883	27294
810.025	27466
810.166	27443
810.308	27416
810.45	27389
810.591	27370
810.733	27279
810.875	27195
811.016	27108
811.158	27180
811.299	27427
811.441	27424
811.582	27367
811.724	27195
811.865	27203
812.007	27188
812.148	27199
812.29	27222
812.431	27389
812.573	27523
812.714	27603
812.855	27709
812.997	27720
813.138	27930
813.279	27629
813.421	27774
813.562	27641
813.703	27485
813.845	27287
813.986	27283
814.127	27043
814.268	26986
814.41	26925
814.551	26819
814.692	26921
814.833	26876
814.974	26849
815.115	26944
815.256	26807
815.397	26670
815.539	26739
815.68	26587
815.821	26590
815.962	26689
816.103	26632
816.244	26598
816.385	26453
816.526	26404
816.666	26210
816.807	26142
816.948	26233
817.089	26278
817.23	26149
817.371	26164
817.512	26187
817.653	26199
817.793	26005
817.934	26176
818.075	26119
818.216	26271
818.356	25966
818.497	26008
818.638	25894
818.778	25940
818.919	25925
819.06	25902
819.2	25997
819.341	26092
819.481	26012
819.622	26320
819.762	26393
819.903	26541
820.043	26267
820.184	26328
820.324	26092
820.465	26313
820.605	26259
820.746	26294
820.886	26122
821.026	26157
821.167	26229
821.307	26313
821.447	26126
821.588	26107
821.728	25925
821.868	25742
822.008	25575
822.149	25727
822.289	25567
822.429	25453
822.569	25400
822.709	25297
822.849	25084
822.99	25179
823.13	25050
823.27	25027
823.41	25012
823.55	24707
823.69	24802
823.83	24954
823.97	24863
824.11	24779
824.25	24715
824.389	24635
824.529	24810
824.669	24711
824.809	24745
824.949	24886
825.089	24837
825.228	24779
825.368	24532
825.508	24578
825.648	24696
825.787	24597
825.927	24616
826.067	24642
826.206	24623
826.346	24779
826.485	24642
826.625	24719
826.765	24791
826.904	24688
827.044	24414
827.183	24308
827.323	24292
827.462	24346
827.601	24330
827.741	24296
827.88	24262
828.02	24159
828.159	24163
828.298	24258
828.437	24399
828.577	24266
828.716	24372
828.855	24216
828.994	24018
829.134	24041
829.273	23992
829.412	23996
829.551	24030
829.69	24095
829.829	24060
829.968	24053
830.107	23969
830.246	24064
830.385	24003
830.524	23942
830.663	23737
830.802	23714
830.941	23691
831.08	23710
831.219	23695
831.357	23752
831.496	23851
831.635	23562
831.774	23657
831.913	23638
832.051	23452
832.19	23474
832.329	23440
832.467	23288
832.606	23242
832.744	23204
832.883	23318
833.022	23280
833.16	23242
833.299	23296
833.437	23280
833.576	23372
833.714	23277
833.852	23356
833.991	23471
834.129	23471
834.267	23531
834.406	23436
834.544	23459
834.682	23402
834.821	23414
834.959	23535
835.097	23440
835.235	23455
835.373	23410
835.511	23395
835.65	23322
835.788	23288
835.926	23166
836.064	23071
836.202	23174
836.34	23311
836.478	23349
836.615	23200
836.753	23258
836.891	23356
837.029	23349
837.167	23155
837.305	23162
837.443	23166
837.58	23044
837.718	23200
837.856	23083
837.993	23064
838.131	23041
838.269	22995
838.406	23044
838.544	22793
838.681	22850
838.819	22675
838.956	22611
839.094	22653
839.231	22538
839.369	22683
839.506	23018
839.643	22904
839.781	22497
839.918	22546
840.055	22531
840.193	22512
840.33	22618
840.467	22546
840.604	22561
840.742	22858
840.879	22367
841.016	22531
841.153	22432
841.29	22634
841.427	22569
841.564	22443
841.701	22531
841.838	22443
841.975	22443
842.112	22519
842.249	22348
842.385	22333
842.522	22580
842.659	22478
842.796	22314
842.933	22166
843.069	22173
843.206	22204
843.343	22291
843.479	22219
843.616	22211
843.752	22086
843.889	22112
844.025	22211
844.162	22006
844.298	22048
844.435	22013
844.571	21983
844.708	22013
844.844	22230
844.98	22147
845.117	22109
845.253	21968
845.389	21876
845.525	21964
845.661	21770
845.798	21774
845.934	21880
846.07	21816
846.206	21732
846.342	21747
846.478	21781
846.614	21530
846.75	21302
846.886	21458
847.022	21553
847.158	21648
847.294	21466
847.429	21561
847.565	21542
847.701	21720
847.837	21283
847.972	21230
848.108	21431
848.244	21195
848.379	21176
848.515	21100
848.65	21165
848.786	21020
848.921	21024
849.057	21241
849.192	21127
849.328	21119
849.463	21043
849.598	21089
849.734	20982
849.869	20921
850.004	20914
850.14	20910
850.275	20819
850.41	20800
850.545	20861
850.68	20746
850.815	20941
850.95	20811
851.085	20941
851.22	20880
851.355	20857
851.49	20785
851.625	20902
851.76	20861
851.895	20686
852.03	20754
852.165	20933
852.299	20933
852.434	20811
852.569	20842
852.703	20842
852.838	20826
852.973	21039
853.107	20948
853.242	20826
853.376	20625
853.511	20404
853.645	20689
853.78	20773
853.914	20629
854.048	20678
854.183	20625
854.317	20693
854.451	20906
854.585	20678
854.72	20697
854.854	20762
854.988	20613
855.122	20697
855.256	20533
855.39	20625
855.524	20689
855.658	20693
855.792	20762
855.926	20727
856.06	20686
856.194	20804
856.327	20655
856.461	20648
856.595	20587
856.729	20670
856.862	20746
856.996	20621
857.13	20720
857.263	20849
857.397	20743
857.53	20781
857.664	20743
857.797	20769
857.931	20792
858.064	20667
858.197	20853
858.331	20731
858.464	20629
858.597	20587
858.731	20667
858.864	20632
858.997	20667
859.13	20644
859.263	20659
859.396	20621
859.529	20606
859.662	20663
859.795	20674
859.928	20625
860.061	20880
860.194	20845
860.327	20739
860.46	20735
860.592	20674
860.725	20849
860.858	20834
860.99	20701
861.123	20621
861.256	20632
861.388	20720
861.521	21199
861.653	20518
861.786	20377
861.918	20571
862.05	20522
862.183	20587
862.315	20644
862.447	20617
862.58	20689
862.712	20355
862.844	20309
862.976	20503
863.108	20461
863.24	20895
863.372	20336
863.504	20339
863.636	20393
863.768	20431
863.9	20267
864.032	20294
864.164	20347
864.296	20396
864.428	20476
864.559	20393
864.691	20457
864.823	20347
864.954	20313
865.086	20351
865.217	20298
865.349	20210
865.48	20263
865.612	20377
865.743	20366
865.875	20347
866.006	20320
866.137	20332
866.269	20336
866.4	20286
866.531	20233
866.662	20282
866.793	20183
866.924	20278
867.055	20206
867.186	20263
867.317	20168
867.448	20206
867.579	20126
867.71	20077
867.841	20073
867.972	20153
868.103	20271
868.233	20389
868.364	20122
868.495	20377
868.625	20518
868.756	20590
868.886	20495
869.017	20454
869.147	20613
869.278	20564
869.408	20495
869.539	20412
869.669	20625
869.799	20526
869.929	20609
870.06	20689
870.19	20826
870.32	20845
870.45	20929
870.58	20967
870.71	20963
870.84	20948
870.97	20796
871.1	20746
871.23	21089
871.36	21192
871.489	20963
871.619	21142
871.749	20948
871.879	21081
872.008	21264
872.138	21009
872.267	21020
872.397	20956
872.526	20906
872.656	20929
872.785	20963
872.915	21192
873.044	21199
873.173	21070
873.303	21211
873.432	21226
873.561	21066
873.69	21036
873.819	21146
873.948	21173
874.077	21176
874.206	21036
874.335	21142
874.464	21283
874.593	21386
874.722	21291
874.851	21393
874.979	21401
875.108	21405
875.237	21374
875.365	21218
875.494	21310
875.623	21325
875.751	21378
875.88	21233
876.008	21439
876.136	21488
876.265	21694
876.393	21892
876.521	21804
876.65	21797
876.778	21652
876.906	21724
877.034	21736
877.162	21629
877.29	21755
877.418	21671
877.546	21656
877.674	21732
877.802	21713
877.93	21751
878.058	21526
878.185	21568
878.313	21641
878.441	21679
878.568	21523
878.696	21759
878.824	21667
878.951	21698
879.079	21804
879.206	21972
879.333	21838
879.461	21675
879.588	21846
879.715	21873
879.842	21949
879.97	21736
880.097	21610
880.224	21473
880.351	21519
880.478	21481
880.605	21504
880.732	21564
880.859	21831
880.986	21549
881.112	21428
881.239	21454
881.366	21211
881.493	21157
881.619	21135
881.746	21161
881.872	21081
881.999	21131
882.125	20941
882.252	21081
882.378	21024
882.505	21294
882.631	20982
882.757	20910
882.883	20899
883.01	20857
883.136	20758
883.262	20621
883.388	20720
883.514	20906
883.64	20830
883.766	20746
883.892	20552
884.018	20670
884.143	20807
884.269	20815
884.395	20667
884.52	20450
884.646	20480
884.772	20476
884.897	20415
885.023	20434
885.148	20514
885.274	20651
885.399	20541
885.524	20511
885.65	20419
885.775	20480
885.9	20351
886.025	20644
886.15	20442
886.275	20442
886.4	20355
886.525	20461
886.65	20419
886.775	20412
886.9	20629
887.025	20632
887.149	20408
887.274	20218
887.399	20233
887.523	20252
887.648	20214
887.773	20237
887.897	20256
888.021	20286
888.146	20149
888.27	20362
888.395	20252
888.519	20225
888.643	20294
888.767	20244
888.891	20153
889.015	20001
889.139	20081
889.263	20134
889.387	20256
889.511	20290
889.635	20229
889.759	19947
889.883	20001
890.006	20008
890.13	20214
890.254	20062
890.377	19883
890.501	19811
890.624	19845
890.748	19837
890.871	19662
890.995	19605
891.118	19537
891.241	19594
891.364	19537
891.488	19708
891.611	19662
891.734	19597
891.857	19590
891.98	19655
892.103	19788
892.226	19635
892.349	19571
892.471	19381
892.594	19510
892.717	19510
892.839	19578
892.962	19514
893.085	19708
893.207	19460
893.33	19419
893.452	19415
893.575	19518
893.697	19495
893.819	19696
893.941	19742
894.064	19616
894.186	19472
894.308	19518
894.43	19708
894.552	19696
894.674	19601
894.796	19320
894.918	19468
895.04	19518
895.161	19639
895.283	19537
895.405	19422
895.526	19525
895.648	19502
895.769	19594
895.891	19609
896.012	19563
896.134	19575
896.255	19601
896.376	19575
896.498	19639
896.619	19506
896.74	19514
896.861	19620
896.982	19826
897.103	19951
897.224	19849
897.345	19635
897.466	19833
897.587	19639
897.708	19822
897.828	19727
897.949	19685
898.07	19647
898.19	19658
898.311	19822
898.431	19700
898.552	19845
898.672	19944
898.792	19826
898.913	19788
899.033	19658
899.153	19571
899.273	19518
899.393	19514
899.513	19426
899.633	19422
899.753	19510
899.873	19350
899.993	19430
900.113	19666
900.232	19552
900.352	19346
900.472	19304
900.591	19251
900.711	19285
900.83	19312
900.95	19403
901.069	19331
901.189	19202
901.308	19065
901.427	18844
901.546	18901
901.665	18856
901.784	18970
901.904	18703
902.023	18741
902.141	18483
902.26	18403
902.379	18494
902.498	18384
902.617	18441
902.735	18513
902.854	18498
902.973	18292
903.091	18091
903.21	18114
903.328	17992
903.446	18110
903.565	17870
903.683	18011
903.801	17901
903.919	17904
904.038	17908
904.156	17680
904.274	17889
904.392	17737
904.51	17653
904.627	17684
904.745	17695
904.863	17680
904.981	17554
905.098	17360
905.216	17360
905.334	17360
905.451	17292
905.569	17273
905.686	17353
905.803	17463
905.921	17181
906.038	17277
906.155	17231
906.272	17071
906.389	17159
906.506	16869
906.623	16877
906.74	16911
906.857	16824
906.974	16782
907.091	16999
907.208	17067
907.324	16946
907.441	16896
907.557	16698
907.674	16546
907.79	16607
907.907	16580
908.023	16603
908.139	16694
908.256	16516
908.372	16561
908.488	16428
908.604	16386
908.72	16348
908.836	16306
908.952	16268
909.068	16413
909.184	16344
909.3	16390
909.415	16333
909.531	16314
909.647	16029
909.762	16044
909.878	16006
909.993	16017
910.108	15911
910.224	15899
910.339	15994
910.454	15983
910.57	15979
910.685	15800
910.8	15987
910.915	15987
911.03	15899
911.145	15709
911.259	15660
911.374	15644
911.489	15580
911.604	15622
911.718	15374
911.833	15435
911.947	15260
912.062	15344
912.176	15511
912.291	15466
912.405	15458
912.519	15572
912.633	15580
912.748	15344
912.862	15389
912.976	15256
913.09	15123
913.204	15131
913.318	15180
913.431	15329
913.545	15249
913.659	15283
913.772	15146
913.886	15100
914	14994
914.113	15085
914.226	15180
914.34	15184
914.453	14910
914.566	15131
914.68	14944
914.793	14796
914.906	14727
915.019	14686
915.132	14640
915.245	14644
915.358	14708
915.47	14613
915.583	14693
915.696	14651
915.809	14667
915.921	14788
916.034	14564
916.146	14556
916.259	14545
916.371	14697
916.483	14606
916.595	14568
916.708	14552
916.82	14518
916.932	14473
917.044	14541
917.156	14362
917.268	14180
917.38	14282
917.491	14286
917.603	14377
917.715	14434
917.826	14461
917.938	14313
918.049	14195
918.161	14252
918.272	14412
918.384	14355
918.495	14286
918.606	14267
918.717	14157
918.828	14103
918.939	14096
919.05	13925
919.161	14027
919.272	13864
919.383	13989
919.494	14123
919.604	14237
919.715	14210
919.826	13944
919.936	14020
920.047	14202
920.157	14092
920.267	14259
920.378	14062
920.488	13967
920.598	14271
920.708	14393
920.818	14206
920.928	14050
921.038	14290
921.148	14210
921.258	13989
921.368	13902
921.477	13913
921.587	13795
921.697	13772
921.806	13837
921.916	13624
922.025	13480
922.134	13449
922.244	13491
922.353	13518
922.462	13358
922.571	13228
922.68	13114
922.789	13118
922.898	13088
923.007	12985
923.116	13183
923.224	13160
923.333	13072
923.442	12932
923.55	12932
923.659	12924
923.767	13038
923.876	12840
923.984	12970
924.092	12821
924.201	12939
924.309	12905
924.417	12882
924.525	12837
924.633	12844
924.741	13727
924.849	12604
924.956	12700
925.064	12639
925.172	12448
925.279	12547
925.387	12559
925.494	12525
925.602	12669
925.709	12544
925.816	12452
925.924	12502
926.031	12566
926.138	12498
926.245	12498
926.352	12418
926.459	12517
926.566	12532
926.673	12422
926.779	12327
926.886	12353
926.993	12167
927.099	12182
927.206	12117
927.312	12102
927.419	12125
927.525	12125
927.631	12140
927.737	12057
927.843	11885
927.95	11885
928.056	11996
928.162	11958
928.267	12049
928.373	12528
928.479	12053
928.585	11851
928.69	11969
928.796	11939
928.901	11832
929.007	11680
929.112	11809
929.218	11783
929.323	11729
929.428	11695
929.533	11874
929.638	11547
929.743	11649
929.848	11790
929.953	11581
930.058	11490
930.163	11372
930.267	11398
930.372	11486
930.477	11315
930.581	11699
930.685	11459
930.79	11204
930.894	11258
930.998	11307
931.103	11376
931.207	11041
931.311	10953
931.415	10885
931.519	10668
931.623	10584
