Data from test_V78500241_2915.txt Node
Date: Fri Mar 25 15:30:09 CST 2022
User: usil
Spectrometer: V785-0024
Trigger mode: 0
Integration Time (sec): 4.000000E-1
Scans to average: 1
Nonlinearity correction enabled: false
Boxcar width: 0
Storing dark spectrum: false
XAxis mode: Wavelengths
Number of Pixels in Spectrum: 1024
>>>>>Begin Spectral Data<<<<<
801.071	27294
801.214	27207
801.356	26967
801.499	26986
801.641	26887
801.783	26815
801.926	26800
802.068	26708
802.211	26724
802.353	26701
802.496	26431
802.638	26473
802.78	26374
802.923	26457
803.065	26324
803.208	26385
803.35	26381
803.492	26613
803.635	26587
803.777	26507
803.919	26636
804.061	27024
804.204	26579
804.346	26514
804.488	26488
804.63	26629
804.773	26423
804.915	26602
805.057	26788
805.199	26621
805.341	26815
805.483	26765
805.626	26617
805.768	26667
805.91	26746
806.052	26765
806.194	26625
806.336	26944
806.478	26682
806.62	26716
806.762	26921
806.904	26944
807.046	27287
807.188	27127
807.33	27249
807.472	27146
807.614	27096
807.756	27043
807.898	26994
808.04	26967
808.182	26975
808.324	26971
808.465	27009
808.607	27146
808.749	27397
808.891	27370
809.033	27420
809.174	27397
809.316	27389
809.458	27302
809.6	27237
809.741	27367
809.883	27405
810.025	27583
810.166	27572
810.308	27713
810.45	27519
810.591	27507
810.733	27363
810.875	27374
811.016	27119
811.158	27214
811.299	27348
811.441	27466
811.582	27420
811.724	27313
811.865	27195
812.007	27340
812.148	27272
812.29	27386
812.431	27389
812.573	27614
812.714	27641
812.855	27888
812.997	27835
813.138	28036
813.279	27914
813.421	27755
813.562	27812
813.703	27644
813.845	27500
813.986	27306
814.127	27123
814.268	26986
814.41	26838
814.551	26876
814.692	27089
814.833	26952
814.974	26944
815.115	27051
815.256	26868
815.397	26800
815.539	26876
815.68	26792
815.821	26800
815.962	26678
816.103	26682
816.244	26556
816.385	26571
816.526	26423
816.666	26339
816.807	26244
816.948	26385
817.089	26377
817.23	26252
817.371	26199
817.512	26225
817.653	26256
817.793	26164
817.934	26214
818.075	26195
818.216	26381
818.356	26183
818.497	26153
818.638	26012
818.778	26027
818.919	25966
819.06	26069
819.2	26199
819.341	26153
819.481	26107
819.622	26305
819.762	26503
819.903	26674
820.043	26351
820.184	26408
820.324	26336
820.465	26526
820.605	26267
820.746	26343
820.886	26073
821.026	26400
821.167	26259
821.307	26237
821.447	26221
821.588	26115
821.728	26005
821.868	25917
822.008	25750
822.149	25632
822.289	25674
822.429	25407
822.569	25350
822.709	25324
822.849	25190
822.99	25152
823.13	25050
823.27	25228
823.41	24871
823.55	25004
823.69	25034
823.83	25050
823.97	24886
824.11	24928
824.25	24715
824.389	24833
824.529	24905
824.669	24825
824.809	24970
824.949	24867
825.089	24871
825.228	24821
825.368	24601
825.508	24623
825.648	24623
825.787	24814
825.927	24650
826.067	24658
826.206	24688
826.346	24806
826.485	24757
826.625	24646
826.765	24757
826.904	24817
827.044	24494
827.183	24483
827.323	24300
827.462	24486
827.601	24353
827.741	24346
827.88	24369
828.02	24216
828.159	24448
828.298	24418
828.437	24445
828.577	24216
828.716	24505
828.855	24239
828.994	24144
829.134	24049
829.273	24079
829.412	23977
829.551	23984
829.69	24034
829.829	24091
829.968	24197
830.107	24148
830.246	24053
830.385	24018
830.524	23912
830.663	24007
830.802	23863
830.941	23703
831.08	23657
831.219	23737
831.357	23775
831.496	24003
831.635	23627
831.774	23619
831.913	23501
832.051	23436
832.19	23490
832.329	23448
832.467	23440
832.606	23376
832.744	23212
832.883	23341
833.022	23440
833.16	23277
833.299	23425
833.437	23376
833.576	23410
833.714	23337
833.852	23444
833.991	23509
834.129	23562
834.267	23596
834.406	23482
834.544	23516
834.682	23337
834.821	23356
834.959	23463
835.097	23402
835.235	23417
835.373	23387
835.511	23505
835.65	23337
835.788	23307
835.926	23060
836.064	23109
836.202	23067
836.34	23341
836.478	23353
836.615	23090
836.753	23315
836.891	23223
837.029	23132
837.167	23075
837.305	23079
837.443	23162
837.58	23025
837.718	23121
837.856	23117
837.993	23121
838.131	23223
838.269	22862
838.406	23010
838.544	22953
838.681	22687
838.819	22691
838.956	22599
839.094	22569
839.231	22512
839.369	22713
839.506	23132
839.643	22653
839.781	22546
839.918	22573
840.055	22607
840.193	22637
840.33	22428
840.467	22557
840.604	22485
840.742	22820
840.879	22440
841.016	22333
841.153	22360
841.29	22668
841.427	22512
841.564	22523
841.701	22440
841.838	22341
841.975	22363
842.112	22516
842.249	22265
842.385	22265
842.522	22546
842.659	22284
842.796	22090
842.933	22219
843.069	22166
843.206	22230
843.343	22405
843.479	22303
843.616	22238
843.752	22059
843.889	21911
844.025	22284
844.162	22036
844.298	22128
844.435	22036
844.571	22021
844.708	22109
844.844	22246
844.98	22017
845.117	22120
845.253	21991
845.389	21850
845.525	21827
845.661	21838
845.798	21808
845.934	21732
846.07	21701
846.206	21808
846.342	21816
846.478	21671
846.614	21572
846.75	21507
846.886	21576
847.022	21473
847.158	21454
847.294	21485
847.429	21515
847.565	21519
847.701	21709
847.837	21370
847.972	21252
848.108	21245
848.244	21329
848.379	21089
848.515	21142
848.65	20971
848.786	20998
848.921	21028
849.057	21157
849.192	21077
849.328	20994
849.463	21036
849.598	21020
849.734	21024
849.869	20891
850.004	20845
850.14	20899
850.275	20838
850.41	20895
850.545	20712
850.68	20781
850.815	20823
850.95	20830
851.085	20986
851.22	20929
851.355	20914
851.49	20792
851.625	20887
851.76	20864
851.895	20777
852.03	20788
852.165	20887
852.299	20838
852.434	20956
852.569	20944
852.703	20868
852.838	20838
852.973	20849
853.107	20910
853.242	20708
853.376	20651
853.511	20571
853.645	20549
853.78	20864
853.914	20613
854.048	20640
854.183	20659
854.317	20727
854.451	20788
854.585	20640
854.72	20743
854.854	20762
854.988	20541
855.122	20682
855.256	20587
855.39	20511
855.524	20674
855.658	20712
855.792	20644
855.926	20762
856.06	20609
856.194	20708
856.327	20636
856.461	20602
856.595	20632
856.729	20590
856.862	20746
856.996	20640
857.13	20701
857.263	20727
857.397	20750
857.53	20613
857.664	20724
857.797	20773
857.931	20804
858.064	20598
858.197	20754
858.331	20609
858.464	20530
858.597	20594
858.731	20697
858.864	20636
858.997	20629
859.13	20686
859.263	20686
859.396	20731
859.529	20655
859.662	20609
859.795	20606
859.928	20731
860.061	20743
860.194	20773
860.327	20701
860.46	20659
860.592	20853
860.725	20792
860.858	20720
860.99	20602
861.123	20564
861.256	20708
861.388	20598
861.521	21230
861.653	20659
861.786	20507
861.918	20564
862.05	20469
862.183	20518
862.315	20571
862.447	20587
862.58	20507
862.712	20400
862.844	20393
862.976	20556
863.108	20507
863.24	20872
863.372	20366
863.504	20305
863.636	20404
863.768	20351
863.9	20480
864.032	20336
864.164	20332
864.296	20400
864.428	20545
864.559	20404
864.691	20507
864.823	20328
864.954	20396
865.086	20313
865.217	20233
865.349	20218
865.48	20240
865.612	20298
865.743	20549
865.875	20248
866.006	20278
866.137	20294
866.269	20320
866.4	20229
866.531	20248
866.662	20107
866.793	20237
866.924	20252
867.055	20240
867.186	20267
867.317	20058
867.448	20119
867.579	20199
867.71	20180
867.841	20191
867.972	20233
868.103	20176
868.233	20130
868.364	20320
868.495	20313
868.625	20495
868.756	20556
868.886	20336
869.017	20358
869.147	20556
869.278	20488
869.408	20431
869.539	20374
869.669	20473
869.799	20526
869.929	20511
870.06	20629
870.19	20785
870.32	20773
870.45	20853
870.58	20880
870.71	20925
870.84	20986
870.97	20868
871.1	20777
871.23	20857
871.36	21017
871.489	21001
871.619	21058
871.749	21074
871.879	21062
872.008	21150
872.138	20998
872.267	21066
872.397	20861
872.526	20910
872.656	20925
872.785	20899
872.915	21047
873.044	21230
873.173	20990
873.303	21195
873.432	21089
873.561	21146
873.69	21096
873.819	21013
873.948	21043
874.077	21100
874.206	20990
874.335	21081
874.464	21142
874.593	21408
874.722	21310
874.851	21336
874.979	21370
875.108	21332
875.237	21241
875.365	21123
875.494	21287
875.623	21386
875.751	21302
875.88	21302
876.008	21500
876.136	21507
876.265	21679
876.393	21892
876.521	21804
876.65	21819
876.778	21591
876.906	21614
877.034	21652
877.162	21682
877.29	21694
877.418	21755
877.546	21732
877.674	21686
877.802	21652
877.93	21660
878.058	21648
878.185	21564
878.313	21713
878.441	21789
878.568	21408
878.696	21675
878.824	21762
878.951	21633
879.079	21846
879.206	21949
879.333	21705
879.461	21622
879.588	21895
879.715	21865
879.842	21979
879.97	21610
880.097	21564
880.224	21511
880.351	21572
880.478	21561
880.605	21416
880.732	21466
880.859	21747
880.986	21435
881.112	21329
881.239	21485
881.366	21252
881.493	21195
881.619	21116
881.746	21112
881.872	21032
881.999	21017
882.125	20952
882.252	21036
882.378	20998
882.505	21142
882.631	20948
882.757	20887
882.883	20838
883.01	20796
883.136	20746
883.262	20686
883.388	20648
883.514	20899
883.64	20804
883.766	20701
883.892	20495
884.018	20613
884.143	20743
884.269	20830
884.395	20514
884.52	20396
884.646	20446
884.772	20381
884.897	20393
885.023	20438
885.148	20473
885.274	20663
885.399	20461
885.524	20514
885.65	20503
885.775	20423
885.9	20404
886.025	20640
886.15	20446
886.275	20522
886.4	20499
886.525	20358
886.65	20301
886.775	20305
886.9	20495
887.025	20625
887.149	20377
887.274	20351
887.399	20172
887.523	20214
887.648	20111
887.773	20149
887.897	20313
888.021	20393
888.146	20180
888.27	20298
888.395	20374
888.519	20199
888.643	20244
888.767	20214
888.891	20088
889.015	20039
889.139	20084
889.263	19928
889.387	20081
889.511	20092
889.635	20202
889.759	20024
889.883	19989
890.006	19959
890.13	20134
890.254	19978
890.377	19959
890.501	19780
890.624	19750
890.748	19864
890.871	19689
890.995	19487
891.118	19643
891.241	19597
891.364	19563
891.488	19776
891.611	19674
891.734	19647
891.857	19670
891.98	19518
892.103	19647
892.226	19586
892.349	19556
892.471	19392
892.594	19502
892.717	19620
892.839	19460
892.962	19476
893.085	19578
893.207	19445
893.33	19403
893.452	19457
893.575	19613
893.697	19552
893.819	19632
893.941	19655
894.064	19685
894.186	19415
894.308	19430
894.43	19578
894.552	19727
894.674	19514
894.796	19552
894.918	19468
895.04	19529
895.161	19616
895.283	19548
895.405	19468
895.526	19506
895.648	19441
895.769	19548
895.891	19582
896.012	19571
896.134	19483
896.255	19480
896.376	19445
896.498	19563
896.619	19556
896.74	19453
896.861	19529
896.982	19845
897.103	19906
897.224	19890
897.345	19734
897.466	19708
897.587	19791
897.708	19940
897.828	19742
897.949	19674
898.07	19632
898.19	19597
898.311	19822
898.431	19689
898.552	19799
898.672	19814
898.792	19856
898.913	19723
899.033	19670
899.153	19613
899.273	19441
899.393	19525
899.513	19537
899.633	19533
899.753	19525
899.873	19407
899.993	19575
900.113	19457
900.232	19480
900.352	19548
900.472	19396
900.591	19278
900.711	19388
900.83	19221
900.95	19384
901.069	19407
901.189	19251
901.308	19012
901.427	18962
901.546	18916
901.665	19027
901.784	18943
901.904	18745
902.023	18677
902.141	18498
902.26	18494
902.379	18471
902.498	18414
902.617	18395
902.735	18475
902.854	18410
902.973	18357
903.091	18098
903.21	18038
903.328	18144
903.446	17961
903.565	17889
903.683	17954
903.801	17767
903.919	17794
904.038	17809
904.156	17634
904.274	17771
904.392	17657
904.51	17642
904.627	17649
904.745	17676
904.863	17745
904.981	17524
905.098	17337
905.216	17433
905.334	17269
905.451	17364
905.569	17356
905.686	17414
905.803	17410
905.921	17143
906.038	17296
906.155	17178
906.272	17086
906.389	17052
906.506	16961
906.623	16938
906.74	16896
906.857	16649
906.974	16771
907.091	16885
907.208	17079
907.324	16900
907.441	16733
907.557	16634
907.674	16668
907.79	16538
907.907	16561
908.023	16618
908.139	16668
908.256	16615
908.372	16379
908.488	16535
908.604	16390
908.72	16265
908.836	16325
908.952	16428
909.068	16318
909.184	16398
909.3	16337
909.415	16386
909.531	16287
909.647	16074
909.762	16048
909.878	15998
909.993	16166
910.108	16116
910.224	15964
910.339	16006
910.454	15983
910.57	15797
910.685	15842
910.8	15972
910.915	16120
911.03	15876
911.145	15717
911.259	15671
911.374	15732
911.489	15538
911.604	15526
911.718	15454
911.833	15329
911.947	15317
912.062	15203
912.176	15431
912.291	15485
912.405	15469
912.519	15603
912.633	15591
912.748	15469
912.862	15405
912.976	15291
913.09	15131
913.204	15165
913.318	15241
913.431	15321
913.545	15332
913.659	15268
913.772	15066
913.886	15081
914	14998
914.113	15066
914.226	15112
914.34	15127
914.453	14914
914.566	15058
914.68	14807
914.793	14929
914.906	14758
915.019	14689
915.132	14575
915.245	14629
915.358	14636
915.47	14644
915.583	14644
915.696	14678
915.809	14796
915.921	14781
916.034	14613
916.146	14590
916.259	14545
916.371	14674
916.483	14651
916.595	14438
916.708	14427
916.82	14408
916.932	14404
917.044	14518
917.156	14461
917.268	14461
917.38	14339
917.491	14256
917.603	14309
917.715	14461
917.826	14396
917.938	14195
918.049	14126
918.161	14282
918.272	14419
918.384	14476
918.495	14275
918.606	14100
918.717	14145
918.828	14107
918.939	14164
919.05	13967
919.161	14035
919.272	13917
919.383	13917
919.494	14142
919.604	14301
919.715	14088
919.826	14024
919.936	14081
920.047	14157
920.157	14088
920.267	14263
920.378	14043
920.488	13963
920.598	14149
920.708	14271
920.818	14233
920.928	14233
921.038	14431
921.148	14358
921.258	14043
921.368	14005
921.477	13864
921.587	13715
921.697	13712
921.806	13833
921.916	13723
922.025	13529
922.134	13388
922.244	13426
922.353	13525
922.462	13316
922.571	13278
922.68	13137
922.789	13091
922.898	13194
923.007	13046
923.116	13145
923.224	13187
923.333	13034
923.442	12913
923.55	12875
923.659	12886
923.767	13023
923.876	12935
923.984	12924
924.092	12882
924.201	12776
924.309	12894
924.417	12932
924.525	12741
924.633	12848
924.741	13620
924.849	12703
924.956	12692
925.064	12540
925.172	12574
925.279	12566
925.387	12578
925.494	12589
925.602	12616
925.709	12608
925.816	12517
925.924	12502
926.031	12532
926.138	12517
926.245	12422
926.352	12422
926.459	12445
926.566	12547
926.673	12441
926.779	12300
926.886	12323
926.993	12194
927.099	12098
927.206	12083
927.312	12121
927.419	12140
927.525	12114
927.631	12140
927.737	12072
927.843	11999
927.95	11870
928.056	11935
928.162	12030
928.267	11901
928.373	12589
928.479	12053
928.585	11828
928.69	11954
928.796	11927
928.901	11836
929.007	11649
929.112	11821
929.218	11718
929.323	11714
929.428	11691
929.533	11832
929.638	11619
929.743	11688
929.848	11718
929.953	11596
930.058	11535
930.163	11360
930.267	11353
930.372	11535
930.477	11322
930.581	11558
930.685	11383
930.79	11265
930.894	11326
930.998	11349
931.103	11318
931.207	11014
931.311	10976
931.415	10949
931.519	10660
931.623	10744
