Data from test_V78500241_1589.txt Node
Date: Fri Mar 25 15:20:55 CST 2022
User: usil
Spectrometer: V785-0024
Trigger mode: 0
Integration Time (sec): 4.000000E-1
Scans to average: 1
Nonlinearity correction enabled: false
Boxcar width: 0
Storing dark spectrum: false
XAxis mode: Wavelengths
Number of Pixels in Spectrum: 1024
>>>>>Begin Spectral Data<<<<<
801.071	28051
801.214	27888
801.356	27831
801.499	27515
801.641	27568
801.783	27481
801.926	27572
802.068	27488
802.211	27408
802.353	27370
802.496	27237
802.638	27157
802.78	27203
802.923	27154
803.065	27032
803.208	27154
803.35	27127
803.492	27310
803.635	27443
803.777	27275
803.919	27264
804.061	27766
804.204	27469
804.346	27389
804.488	27256
804.63	27401
804.773	27374
804.915	27332
805.057	27408
805.199	27374
805.341	27705
805.483	27431
805.626	27462
805.768	27321
805.91	27496
806.052	27523
806.194	27492
806.336	27705
806.478	27648
806.62	27424
806.762	27690
806.904	27812
807.046	28074
807.188	27903
807.33	27819
807.472	27949
807.614	27899
807.756	27979
807.898	27671
808.04	27770
808.182	27873
808.324	27762
808.465	27819
808.607	28051
808.749	28196
808.891	28238
809.033	28333
809.174	28299
809.316	28074
809.458	28162
809.6	28032
809.741	28234
809.883	28329
810.025	28413
810.166	28538
810.308	28550
810.45	28379
810.591	28268
810.733	28128
810.875	28055
811.016	28112
811.158	28082
811.299	28177
811.441	28230
811.582	28291
811.724	28207
811.865	28219
812.007	28158
812.148	28105
812.29	28211
812.431	28504
812.573	28478
812.714	28748
812.855	28626
812.997	28660
813.138	28801
813.279	28881
813.421	28729
813.562	28675
813.703	28538
813.845	28291
813.986	28086
814.127	27960
814.268	27895
814.41	27747
814.551	27736
814.692	27975
814.833	27724
814.974	27793
815.115	27998
815.256	27660
815.397	27743
815.539	27854
815.68	27713
815.821	27515
815.962	27759
816.103	27485
816.244	27485
816.385	27519
816.526	27321
816.666	27306
816.807	27161
816.948	27302
817.089	27386
817.23	27127
817.371	27192
817.512	27241
817.653	27249
817.793	26979
817.934	27036
818.075	27180
818.216	27165
818.356	27264
818.497	27058
818.638	26819
818.778	26929
818.919	26925
819.06	26842
819.2	27047
819.341	27291
819.481	27245
819.622	27279
819.762	27427
819.903	27420
820.043	27287
820.184	27264
820.324	27275
820.465	27378
820.605	27272
820.746	27199
820.886	27036
821.026	27291
821.167	27138
821.307	27237
821.447	27108
821.588	27096
821.728	26940
821.868	26800
822.008	26644
822.149	26568
822.289	26571
822.429	26503
822.569	26328
822.709	26233
822.849	26130
822.99	26237
823.13	26115
823.27	26084
823.41	26005
823.55	25738
823.69	25951
823.83	25833
823.97	25780
824.11	25769
824.25	25784
824.389	25689
824.529	25849
824.669	25765
824.809	25913
824.949	25883
825.089	25955
825.228	25746
825.368	25521
825.508	25662
825.648	25666
825.787	25605
825.927	25776
826.067	25544
826.206	25712
826.346	25540
826.485	25765
826.625	25632
826.765	25651
826.904	25670
827.044	25540
827.183	25403
827.323	25453
827.462	25396
827.601	25301
827.741	25266
827.88	25358
828.02	25301
828.159	25259
828.298	25312
828.437	25381
828.577	25278
828.716	25373
828.855	25232
828.994	24973
829.134	25046
829.273	24977
829.412	25088
829.551	25008
829.69	25027
829.829	25084
829.968	25114
830.107	25046
830.246	25000
830.385	24996
830.524	25042
830.663	24890
830.802	24703
830.941	24673
831.08	24703
831.219	24745
831.357	24779
831.496	24779
831.635	24753
831.774	24544
831.913	24544
832.051	24612
832.19	24285
832.329	24445
832.467	24479
832.606	24426
832.744	24152
832.883	24429
833.022	24258
833.16	24338
833.299	24418
833.437	24388
833.576	24490
833.714	24391
833.852	24441
833.991	24346
834.129	24395
834.267	24646
834.406	24323
834.544	24563
834.682	24536
834.821	24334
834.959	24464
835.097	24372
835.235	24403
835.373	24330
835.511	24525
835.65	24247
835.788	24262
835.926	24030
836.064	24018
836.202	24079
836.34	24311
836.478	24311
836.615	24232
836.753	24190
836.891	24266
837.029	24220
837.167	24026
837.305	24114
837.443	24030
837.58	24026
837.718	24121
837.856	24159
837.993	24030
838.131	24015
838.269	23999
838.406	24049
838.544	23771
838.681	23741
838.819	23653
838.956	23539
839.094	23467
839.231	23509
839.369	23737
839.506	23866
839.643	23779
839.781	23474
839.918	23512
840.055	23646
840.193	23520
840.33	23326
840.467	23341
840.604	23364
840.742	23623
840.879	23315
841.016	23311
841.153	23383
841.29	23493
841.427	23471
841.564	23448
841.701	23330
841.838	23376
841.975	23379
842.112	23368
842.249	23254
842.385	23178
842.522	23391
842.659	23242
842.796	23220
842.933	23254
843.069	23265
843.206	23128
843.343	23162
843.479	23277
843.616	23140
843.752	22946
843.889	23113
844.025	23071
844.162	22938
844.298	22976
844.435	22896
844.571	22900
844.708	22938
844.844	23094
844.98	23086
845.117	23022
845.253	22968
845.389	22801
845.525	22923
845.661	22824
845.798	22831
845.934	22687
846.07	22615
846.206	22679
846.342	22847
846.478	22702
846.614	22584
846.75	22382
846.886	22352
847.022	22466
847.158	22451
847.294	22413
847.429	22466
847.565	22428
847.701	22641
847.837	22154
847.972	22211
848.108	22219
848.244	22154
848.379	22112
848.515	22021
848.65	21975
848.786	21994
848.921	22048
849.057	22204
849.192	22036
849.328	22048
849.463	22013
849.598	22032
849.734	21907
849.869	21835
850.004	21774
850.14	21793
850.275	21785
850.41	21751
850.545	21663
850.68	21854
850.815	21747
850.95	21743
851.085	21911
851.22	21831
851.355	21888
851.49	21808
851.625	21804
851.76	21667
851.895	21770
852.03	21747
852.165	21774
852.299	21797
852.434	21819
852.569	21979
852.703	21736
852.838	21934
852.973	21934
853.107	21964
853.242	21675
853.376	21641
853.511	21500
853.645	21580
853.78	21637
853.914	21698
854.048	21542
854.183	21583
854.317	21667
854.451	21770
854.585	21663
854.72	21561
854.854	21576
854.988	21553
855.122	21614
855.256	21458
855.39	21641
855.524	21629
855.658	21717
855.792	21583
855.926	21625
856.06	21572
856.194	21610
856.327	21530
856.461	21583
856.595	21515
856.729	21492
856.862	21652
856.996	21641
857.13	21690
857.263	21743
857.397	21732
857.53	21671
857.664	21705
857.797	21618
857.931	21606
858.064	21690
858.197	21690
858.331	21557
858.464	21587
858.597	21542
858.731	21606
858.864	21561
858.997	21652
859.13	21595
859.263	21603
859.396	21663
859.529	21629
859.662	21595
859.795	21549
859.928	21526
860.061	21732
860.194	21663
860.327	21629
860.46	21587
860.592	21644
860.725	21808
860.858	21785
860.99	21564
861.123	21530
861.256	21542
861.388	21622
861.521	22253
861.653	21408
861.786	21355
861.918	21435
862.05	21428
862.183	21511
862.315	21435
862.447	21587
862.58	21572
862.712	21325
862.844	21306
862.976	21454
863.108	21332
863.24	21690
863.372	21176
863.504	21332
863.636	21211
863.768	21431
863.9	21237
864.032	21127
864.164	21245
864.296	21241
864.428	21294
864.559	21260
864.691	21393
864.823	21378
864.954	21321
865.086	21332
865.217	21165
865.349	21047
865.48	21119
865.612	21214
865.743	21325
865.875	21074
866.006	21157
866.137	21241
866.269	21047
866.4	21237
866.531	21051
866.662	21180
866.793	21066
866.924	21036
867.055	21157
867.186	21142
867.317	21157
867.448	21085
867.579	20971
867.71	21009
867.841	21142
867.972	21199
868.103	21119
868.233	21108
868.364	21104
868.495	21233
868.625	21389
868.756	21393
868.886	21272
869.017	21260
869.147	21405
869.278	21496
869.408	21275
869.539	21279
869.669	21519
869.799	21279
869.929	21633
870.06	21557
870.19	21682
870.32	21675
870.45	21701
870.58	21747
870.71	21778
870.84	21937
870.97	21690
871.1	21819
871.23	21846
871.36	21884
871.489	21781
871.619	21975
871.749	21975
871.879	22002
872.008	22078
872.138	22029
872.267	21918
872.397	21743
872.526	21709
872.656	21778
872.785	21778
872.915	21968
873.044	22048
873.173	22105
873.303	21979
873.432	21968
873.561	22070
873.69	21994
873.819	21953
873.948	21975
874.077	21983
874.206	22074
874.335	21945
874.464	22112
874.593	22219
874.722	22230
874.851	22303
874.979	22177
875.108	22219
875.237	22173
875.365	22230
875.494	22181
875.623	22070
875.751	22257
875.88	22223
876.008	22382
876.136	22432
876.265	22618
876.393	22653
876.521	22550
876.65	22645
876.778	22466
876.906	22523
877.034	22512
877.162	22573
877.29	22512
877.418	22618
877.546	22618
877.674	22508
877.802	22459
877.93	22462
878.058	22546
878.185	22360
878.313	22497
878.441	22538
878.568	22459
878.696	22504
878.824	22519
878.951	22607
879.079	22740
879.206	22774
879.333	22660
879.461	22497
879.588	22698
879.715	22691
879.842	22850
879.97	22641
880.097	22356
880.224	22333
880.351	22310
880.478	22504
880.605	22398
880.732	22344
880.859	22565
880.986	22443
881.112	22367
881.239	22181
881.366	22063
881.493	22051
881.619	22021
881.746	21979
881.872	21892
881.999	21838
882.125	21857
882.252	21934
882.378	21812
882.505	22006
882.631	21732
882.757	21720
882.883	21629
883.01	21603
883.136	21545
883.262	21557
883.388	21488
883.514	21637
883.64	21629
883.766	21545
883.892	21408
884.018	21397
884.143	21435
884.269	21629
884.395	21287
884.52	21233
884.646	21230
884.772	21085
884.897	21260
885.023	21363
885.148	21249
885.274	21500
885.399	21298
885.524	21317
885.65	21222
885.775	21192
885.9	21226
886.025	21382
886.15	21370
886.275	21173
886.4	21081
886.525	21279
886.65	21165
886.775	21131
886.9	21325
887.025	21519
887.149	21260
887.274	21017
887.399	21203
887.523	20982
887.648	20971
887.773	21089
887.897	21142
888.021	21131
888.146	21005
888.27	21001
888.395	21123
888.519	21051
888.643	21119
888.767	21009
888.891	20937
889.015	20868
889.139	20906
889.263	20781
889.387	20933
889.511	21013
889.635	21055
889.759	20849
889.883	20960
890.006	20842
890.13	20800
890.254	20697
890.377	20705
890.501	20663
890.624	20473
890.748	20705
890.871	20495
890.995	20400
891.118	20358
891.241	20351
891.364	20355
891.488	20469
891.611	20294
891.734	20339
891.857	20393
891.98	20412
892.103	20507
892.226	20393
892.349	20328
892.471	20191
892.594	20313
892.717	20366
892.839	20343
892.962	20256
893.085	20317
893.207	20290
893.33	20191
893.452	20229
893.575	20301
893.697	20347
893.819	20438
893.941	20583
894.064	20514
894.186	20214
894.308	20168
894.43	20347
894.552	20454
894.674	20324
894.796	20111
894.918	20195
895.04	20259
895.161	20423
895.283	20393
895.405	20271
895.526	20180
895.648	20240
895.769	20301
895.891	20355
896.012	20465
896.134	20298
896.255	20237
896.376	20240
896.498	20282
896.619	20389
896.74	20294
896.861	20366
896.982	20689
897.103	20777
897.224	20503
897.345	20571
897.466	20457
897.587	20648
897.708	20609
897.828	20545
897.949	20431
898.07	20351
898.19	20518
898.311	20640
898.431	20419
898.552	20533
898.672	20598
898.792	20598
898.913	20469
899.033	20393
899.153	20457
899.273	20202
899.393	20176
899.513	20339
899.633	20282
899.753	20351
899.873	20153
899.993	20206
900.113	20164
900.232	20259
900.352	20218
900.472	20115
900.591	19921
900.711	20077
900.83	19909
900.95	20092
901.069	19944
901.189	19860
901.308	19750
901.427	19556
901.546	19533
901.665	19670
901.784	19727
901.904	19487
902.023	19403
902.141	19183
902.26	19072
902.379	19244
902.498	19133
902.617	19091
902.735	19156
902.854	19129
902.973	18962
903.091	18726
903.21	18833
903.328	18753
903.446	18616
903.565	18589
903.683	18547
903.801	18494
903.919	18578
904.038	18502
904.156	18311
904.274	18441
904.392	18422
904.51	18308
904.627	18311
904.745	18357
904.863	18422
904.981	18121
905.098	18034
905.216	18038
905.334	18057
905.451	18068
905.569	17969
905.686	18072
905.803	18022
905.921	17733
906.038	17950
906.155	17794
906.272	17756
906.389	17783
906.506	17501
906.623	17539
906.74	17482
906.857	17391
906.974	17482
907.091	17589
907.208	17775
907.324	17615
907.441	17551
907.557	17414
907.674	17220
907.79	17143
907.907	17193
908.023	17277
908.139	17303
908.256	17189
908.372	17143
908.488	17022
908.604	17045
908.72	16961
908.836	16968
908.952	17006
909.068	16942
909.184	17136
909.3	17018
909.415	16949
909.531	16965
909.647	16744
909.762	16675
909.878	16580
909.993	16634
910.108	16683
910.224	16668
910.339	16675
910.454	16588
910.57	16462
910.685	16424
910.8	16660
910.915	16611
911.03	16497
911.145	16276
911.259	16382
911.374	16272
911.489	16246
911.604	16158
911.718	15991
911.833	16006
911.947	15983
912.062	15797
912.176	15945
912.291	16017
912.405	16002
912.519	16112
912.633	16192
912.748	16059
912.862	16021
912.976	15903
913.09	15793
913.204	15774
913.318	15793
913.431	15915
913.545	15865
913.659	15884
913.772	15743
913.886	15705
914	15648
914.113	15694
914.226	15797
914.34	15755
914.453	15523
914.566	15580
914.68	15553
914.793	15557
914.906	15363
915.019	15214
915.132	15131
915.245	15241
915.358	15260
915.47	15256
915.583	15173
915.696	15272
915.809	15374
915.921	15386
916.034	15252
916.146	15085
916.259	15081
916.371	15142
916.483	15173
916.595	15070
916.708	15085
916.82	14994
916.932	14933
917.044	15017
917.156	14864
917.268	14925
917.38	14956
917.491	14876
917.603	14963
917.715	15028
917.826	15009
917.938	14720
918.049	14777
918.161	14861
918.272	14914
918.384	14887
918.495	14811
918.606	14765
918.717	14689
918.828	14735
918.939	14674
919.05	14522
919.161	14636
919.272	14412
919.383	14446
919.494	14606
919.604	14902
919.715	14705
919.826	14465
919.936	14549
920.047	14640
920.157	14594
920.267	14727
920.378	14533
920.488	14560
920.598	14800
920.708	14891
920.818	14773
920.928	14720
921.038	14891
921.148	14781
921.258	14495
921.368	14579
921.477	14305
921.587	14355
921.697	14225
921.806	14366
921.916	14248
922.025	14001
922.134	13970
922.244	13947
922.353	13894
922.462	13898
922.571	13788
922.68	13662
922.789	13571
922.898	13674
923.007	13571
923.116	13605
923.224	13590
923.333	13491
923.442	13521
923.55	13457
923.659	13491
923.767	13453
923.876	13346
923.984	13540
924.092	13392
924.201	13384
924.309	13396
924.417	13289
924.525	13282
924.633	13240
924.741	14180
924.849	13088
924.956	13206
925.064	13015
925.172	12985
925.279	12977
925.387	13118
925.494	12939
925.602	13137
925.709	13103
925.816	12916
925.924	13057
926.031	13084
926.138	12886
926.245	13046
926.352	12863
926.459	13038
926.566	13046
926.673	12844
926.779	12745
926.886	12783
926.993	12589
927.099	12650
927.206	12494
927.312	12555
927.419	12585
927.525	12620
927.631	12608
927.737	12467
927.843	12376
927.95	12361
928.056	12399
928.162	12395
928.267	12445
928.373	13046
928.479	12483
928.585	12235
928.69	12403
928.796	12395
928.901	12266
929.007	12125
929.112	12235
929.218	12270
929.323	12243
929.428	12133
929.533	12285
929.638	12068
929.743	12102
929.848	12110
929.953	12022
930.058	11988
930.163	11920
930.267	11794
930.372	11973
930.477	11821
930.581	11965
930.685	11916
930.79	11737
930.894	11672
930.998	11729
931.103	11882
931.207	11379
931.311	11376
931.415	11334
931.519	11132
931.623	11090
