Data from test_V78500241_2897.txt Node
Date: Fri Mar 25 15:30:01 CST 2022
User: usil
Spectrometer: V785-0024
Trigger mode: 0
Integration Time (sec): 4.000000E-1
Scans to average: 1
Nonlinearity correction enabled: false
Boxcar width: 0
Storing dark spectrum: false
XAxis mode: Wavelengths
Number of Pixels in Spectrum: 1024
>>>>>Begin Spectral Data<<<<<
801.071	27336
801.214	27214
801.356	27138
801.499	26918
801.641	26842
801.783	26876
801.926	26891
802.068	26842
802.211	26651
802.353	26708
802.496	26556
802.638	26537
802.78	26522
802.923	26313
803.065	26495
803.208	26412
803.35	26533
803.492	26587
803.635	26712
803.777	26511
803.919	26632
804.061	26880
804.204	26667
804.346	26453
804.488	26598
804.63	26636
804.773	26518
804.915	26575
805.057	26682
805.199	26705
805.341	26811
805.483	26788
805.626	26727
805.768	26617
805.91	26701
806.052	26746
806.194	26568
806.336	27001
806.478	26765
806.62	26819
806.762	26823
806.904	27024
807.046	27249
807.188	27169
807.33	27203
807.472	27283
807.614	27066
807.756	27077
807.898	27039
808.04	26952
808.182	27009
808.324	27039
808.465	27180
808.607	27222
808.749	27431
808.891	27610
809.033	27526
809.174	27427
809.316	27332
809.458	27443
809.6	27397
809.741	27515
809.883	27481
810.025	27652
810.166	27816
810.308	27656
810.45	27603
810.591	27504
810.733	27363
810.875	27336
811.016	27283
811.158	27332
811.299	27614
811.441	27591
811.582	27507
811.724	27435
811.865	27332
812.007	27264
812.148	27367
812.29	27439
812.431	27534
812.573	27747
812.714	27747
812.855	27732
812.997	27903
813.138	27983
813.279	27949
813.421	27876
813.562	27797
813.703	27504
813.845	27389
813.986	27283
814.127	27176
814.268	27070
814.41	27089
814.551	26880
814.692	27009
814.833	26929
814.974	27001
815.115	26960
815.256	26986
815.397	26899
815.539	26777
815.68	26781
815.821	26689
815.962	26864
816.103	26807
816.244	26815
816.385	26632
816.526	26537
816.666	26450
816.807	26256
816.948	26256
817.089	26412
817.23	26336
817.371	26324
817.512	26240
817.653	26229
817.793	26176
817.934	26195
818.075	26366
818.216	26225
818.356	26142
818.497	26290
818.638	26084
818.778	26103
818.919	25982
819.06	26240
819.2	26157
819.341	26259
819.481	26237
819.622	26450
819.762	26648
819.903	26434
820.043	26442
820.184	26408
820.324	26252
820.465	26404
820.605	26381
820.746	26313
820.886	26187
821.026	26332
821.167	26263
821.307	26503
821.447	26290
821.588	26271
821.728	26062
821.868	25925
822.008	25807
822.149	25544
822.289	25723
822.429	25548
822.569	25384
822.709	25479
822.849	25289
822.99	25206
823.13	25156
823.27	25141
823.41	25038
823.55	24962
823.69	25080
823.83	25012
823.97	24996
824.11	24962
824.25	24875
824.389	24954
824.529	25012
824.669	24795
824.809	24878
824.949	24897
825.089	25069
825.228	24970
825.368	24612
825.508	24669
825.648	24654
825.787	24745
825.927	24787
826.067	24779
826.206	24745
826.346	24730
826.485	24825
826.625	24749
826.765	24867
826.904	24795
827.044	24563
827.183	24589
827.323	24426
827.462	24460
827.601	24414
827.741	24448
827.88	24410
828.02	24353
828.159	24388
828.298	24410
828.437	24311
828.577	24448
828.716	24502
828.855	24323
828.994	24106
829.134	24049
829.273	24361
829.412	24030
829.551	24114
829.69	24095
829.829	23973
829.968	24133
830.107	24144
830.246	24178
830.385	24034
830.524	24083
830.663	23859
830.802	23802
830.941	23760
831.08	23745
831.219	23904
831.357	23707
831.496	23999
831.635	23714
831.774	23486
831.913	23589
832.051	23589
832.19	23547
832.329	23379
832.467	23376
832.606	23402
832.744	23474
832.883	23265
833.022	23410
833.16	23459
833.299	23501
833.437	23402
833.576	23455
833.714	23337
833.852	23535
833.991	23505
834.129	23482
834.267	23440
834.406	23676
834.544	23482
834.682	23391
834.821	23322
834.959	23505
835.097	23353
835.235	23531
835.373	23337
835.511	23452
835.65	23239
835.788	23280
835.926	23189
836.064	23056
836.202	23151
836.34	23337
836.478	23349
836.615	23345
836.753	23204
836.891	23284
837.029	23254
837.167	23204
837.305	23064
837.443	23162
837.58	23090
837.718	23147
837.856	23189
837.993	23140
838.131	23121
838.269	22850
838.406	23094
838.544	22881
838.681	22771
838.819	22797
838.956	22557
839.094	22527
839.231	22634
839.369	22771
839.506	23014
839.643	22831
839.781	22523
839.918	22497
840.055	22588
840.193	22580
840.33	22474
840.467	22653
840.604	22584
840.742	22843
840.879	22554
841.016	22523
841.153	22489
841.29	22607
841.427	22432
841.564	22531
841.701	22569
841.838	22375
841.975	22379
842.112	22382
842.249	22428
842.385	22303
842.522	22538
842.659	22360
842.796	22314
842.933	22306
843.069	22226
843.206	22249
843.343	22363
843.479	22405
843.616	22440
843.752	22040
843.889	21998
844.025	22162
844.162	22109
844.298	22139
844.435	22029
844.571	21956
844.708	22139
844.844	22154
844.98	22246
845.117	22051
845.253	21983
845.389	21899
845.525	22051
845.661	22002
845.798	21797
845.934	21823
846.07	21739
846.206	21873
846.342	21857
846.478	21800
846.614	21553
846.75	21462
846.886	21507
847.022	21439
847.158	21572
847.294	21519
847.429	21545
847.565	21587
847.701	21701
847.837	21332
847.972	21260
848.108	21374
848.244	21340
848.379	21294
848.515	21154
848.65	21180
848.786	21218
848.921	21077
849.057	21329
849.192	21199
849.328	21230
849.463	21222
849.598	21165
849.734	20956
849.869	21024
850.004	20872
850.14	20845
850.275	20967
850.41	20883
850.545	20853
850.68	20819
850.815	21032
850.95	20861
851.085	21192
851.22	21058
851.355	20906
851.49	20948
851.625	20849
851.76	20849
851.895	20853
852.03	20796
852.165	20925
852.299	20845
852.434	20777
852.569	21013
852.703	20785
852.838	21051
852.973	20941
853.107	21009
853.242	20781
853.376	20693
853.511	20621
853.645	20758
853.78	20876
853.914	20750
854.048	20693
854.183	20777
854.317	20883
854.451	20914
854.585	20758
854.72	20762
854.854	20659
854.988	20659
855.122	20910
855.256	20552
855.39	20716
855.524	20781
855.658	20693
855.792	20739
855.926	20834
856.06	20678
856.194	20788
856.327	20746
856.461	20678
856.595	20598
856.729	20629
856.862	20845
856.996	20731
857.13	20743
857.263	20838
857.397	20944
857.53	20739
857.664	20811
857.797	20743
857.931	20834
858.064	20750
858.197	20735
858.331	20667
858.464	20625
858.597	20587
858.731	20678
858.864	20708
858.997	20735
859.13	20716
859.263	20724
859.396	20842
859.529	20750
859.662	20682
859.795	20655
859.928	20807
860.061	20845
860.194	20842
860.327	20735
860.46	20716
860.592	20830
860.725	20834
860.858	20876
860.99	20716
861.123	20712
861.256	20667
861.388	20804
861.521	21355
861.653	20575
861.786	20461
861.918	20629
862.05	20636
862.183	20674
862.315	20598
862.447	20602
862.58	20530
862.712	20476
862.844	20541
862.976	20609
863.108	20541
863.24	21047
863.372	20252
863.504	20507
863.636	20339
863.768	20518
863.9	20457
864.032	20393
864.164	20465
864.296	20355
864.428	20552
864.559	20522
864.691	20457
864.823	20396
864.954	20389
865.086	20454
865.217	20282
865.349	20244
865.48	20180
865.612	20355
865.743	20465
865.875	20275
866.006	20305
866.137	20275
866.269	20294
866.4	20248
866.531	20355
866.662	20317
866.793	20195
866.924	20225
867.055	20298
867.186	20317
867.317	20233
867.448	20134
867.579	20229
867.71	20263
867.841	20195
867.972	20336
868.103	20259
868.233	20252
868.364	20290
868.495	20381
868.625	20511
868.756	20518
868.886	20507
869.017	20629
869.147	20533
869.278	20568
869.408	20492
869.539	20590
869.669	20564
869.799	20632
869.929	20705
870.06	20537
870.19	20857
870.32	20792
870.45	20826
870.58	20967
870.71	20971
870.84	20948
870.97	20914
871.1	21001
871.23	21081
871.36	21062
871.489	20902
871.619	20944
871.749	21081
871.879	21233
872.008	21241
872.138	21028
872.267	21157
872.397	20937
872.526	20960
872.656	20921
872.785	20963
872.915	21112
873.044	21138
873.173	21123
873.303	21188
873.432	21211
873.561	21218
873.69	21112
873.819	21055
873.948	21222
874.077	21176
874.206	21077
874.335	21066
874.464	21161
874.593	21393
874.722	21370
874.851	21454
874.979	21466
875.108	21401
875.237	21378
875.365	21340
875.494	21450
875.623	21500
875.751	21382
875.88	21397
876.008	21466
876.136	21515
876.265	21808
876.393	21972
876.521	21876
876.65	21903
876.778	21747
876.906	21705
877.034	21698
877.162	21671
877.29	21595
877.418	21808
877.546	21804
877.674	21778
877.802	21717
877.93	21682
878.058	21701
878.185	21633
878.313	21599
878.441	21743
878.568	21614
878.696	21717
878.824	21675
878.951	21736
879.079	21808
879.206	21979
879.333	21892
879.461	21728
879.588	21835
879.715	21873
879.842	21949
879.97	21823
880.097	21481
880.224	21561
880.351	21625
880.478	21492
880.605	21431
880.732	21648
880.859	21774
880.986	21538
881.112	21572
881.239	21397
881.366	21291
881.493	21203
881.619	21142
881.746	21199
881.872	21192
881.999	21070
882.125	21077
882.252	21165
882.378	21096
882.505	21214
882.631	20998
882.757	20849
882.883	20792
883.01	20880
883.136	20765
883.262	20701
883.388	20697
883.514	20899
883.64	20918
883.766	20735
883.892	20514
884.018	20678
884.143	20895
884.269	20716
884.395	20541
884.52	20503
884.646	20533
884.772	20370
884.897	20412
885.023	20549
885.148	20670
885.274	20636
885.399	20663
885.524	20522
885.65	20454
885.775	20495
885.9	20488
886.025	20522
886.15	20564
886.275	20431
886.4	20358
886.525	20419
886.65	20461
886.775	20480
886.9	20530
887.025	20731
887.149	20499
887.274	20309
887.399	20309
887.523	20164
887.648	20142
887.773	20176
887.897	20301
888.021	20248
888.146	20126
888.27	20358
888.395	20358
888.519	20278
888.643	20233
888.767	20286
888.891	20134
889.015	20111
889.139	20142
889.263	19982
889.387	20180
889.511	20172
889.635	20263
889.759	20031
889.883	19993
890.006	20088
890.13	20180
890.254	19959
890.377	19951
890.501	19746
890.624	19788
890.748	19860
890.871	19772
890.995	19632
891.118	19575
891.241	19643
891.364	19746
891.488	19715
891.611	19601
891.734	19628
891.857	19662
891.98	19635
892.103	19620
892.226	19723
892.349	19544
892.471	19430
892.594	19643
892.717	19635
892.839	19578
892.962	19487
893.085	19712
893.207	19624
893.33	19445
893.452	19540
893.575	19643
893.697	19559
893.819	19731
893.941	19704
894.064	19556
894.186	19540
894.308	19480
894.43	19643
894.552	19689
894.674	19601
894.796	19335
894.918	19495
895.04	19537
895.161	19605
895.283	19708
895.405	19483
895.526	19495
895.648	19491
895.769	19635
895.891	19597
896.012	19696
896.134	19662
896.255	19571
896.376	19677
896.498	19464
896.619	19674
896.74	19651
896.861	19685
896.982	19868
897.103	20001
897.224	19860
897.345	19799
897.466	19708
897.587	19856
897.708	19852
897.828	19807
897.949	19677
898.07	19681
898.19	19750
898.311	19913
898.431	19753
898.552	19898
898.672	19780
898.792	19875
898.913	19818
899.033	19685
899.153	19575
899.273	19563
899.393	19571
899.513	19605
899.633	19548
899.753	19563
899.873	19449
899.993	19594
900.113	19400
900.232	19552
900.352	19487
900.472	19415
900.591	19343
900.711	19362
900.83	19308
900.95	19426
901.069	19400
901.189	19244
901.308	19034
901.427	18935
901.546	18882
901.665	19023
901.784	18863
901.904	18741
902.023	18722
902.141	18536
902.26	18506
902.379	18646
902.498	18456
902.617	18498
902.735	18460
902.854	18441
902.973	18528
903.091	18232
903.21	18106
903.328	18098
903.446	18216
903.565	17969
903.683	17950
903.801	17946
903.919	17859
904.038	17828
904.156	17760
904.274	17866
904.392	17714
904.51	17684
904.627	17726
904.745	17752
904.863	17752
904.981	17429
905.098	17497
905.216	17410
905.334	17478
905.451	17326
905.569	17459
905.686	17398
905.803	17349
905.921	17037
906.038	17280
906.155	17223
906.272	17045
906.389	17086
906.506	16820
906.623	16949
906.74	16942
906.857	16736
906.974	16919
907.091	16968
907.208	16968
907.324	16980
907.441	16908
907.557	16656
907.674	16698
907.79	16645
907.907	16493
908.023	16683
908.139	16637
908.256	16626
908.372	16611
908.488	16455
908.604	16470
908.72	16341
908.836	16451
908.952	16276
909.068	16314
909.184	16588
909.3	16352
909.415	16386
909.531	16519
909.647	16074
909.762	16051
909.878	15998
909.993	16158
910.108	15979
910.224	15979
910.339	16116
910.454	15918
910.57	15880
910.685	15854
910.8	16051
910.915	16002
911.03	15880
911.145	15751
911.259	15713
911.374	15656
911.489	15580
911.604	15599
911.718	15412
911.833	15477
911.947	15469
912.062	15340
912.176	15447
912.291	15462
912.405	15477
912.519	15557
912.633	15549
912.748	15507
912.862	15370
912.976	15275
913.09	15268
913.204	15214
913.318	15264
913.431	15237
913.545	15386
913.659	15348
913.772	15237
913.886	15051
914	15036
914.113	15104
914.226	15207
914.34	15066
914.453	14963
914.566	15108
914.68	14975
914.793	14876
914.906	14765
915.019	14670
915.132	14667
915.245	14743
915.358	14670
915.47	14659
915.583	14701
915.696	14678
915.809	14731
915.921	14659
916.034	14587
916.146	14552
916.259	14678
916.371	14708
916.483	14598
916.595	14438
916.708	14594
916.82	14533
916.932	14571
917.044	14469
917.156	14533
917.268	14370
917.38	14393
917.491	14362
917.603	14328
917.715	14442
917.826	14431
917.938	14305
918.049	14199
918.161	14294
918.272	14457
918.384	14415
918.495	14320
918.606	14229
918.717	14161
918.828	14119
918.939	14153
919.05	14035
919.161	14073
919.272	13940
919.383	13940
919.494	14069
919.604	14294
919.715	14088
919.826	14092
919.936	13997
920.047	14176
920.157	14111
920.267	14225
920.378	14081
920.488	14020
920.598	14286
920.708	14358
920.818	14164
920.928	14199
921.038	14438
921.148	14362
921.258	14031
921.368	13974
921.477	13807
921.587	13864
921.697	13719
921.806	13791
921.916	13712
922.025	13571
922.134	13518
922.244	13445
922.353	13529
922.462	13362
922.571	13327
922.68	13137
922.789	13072
922.898	13213
923.007	13095
923.116	13190
923.224	13202
923.333	13076
923.442	13031
923.55	12966
923.659	13000
923.767	13027
923.876	12852
923.984	13114
924.092	12863
924.201	12932
924.309	12798
924.417	12875
924.525	12779
924.633	12882
924.741	13772
924.849	12631
924.956	12684
925.064	12642
925.172	12536
925.279	12608
925.387	12578
925.494	12589
925.602	12757
925.709	12597
925.816	12407
925.924	12566
926.031	12574
926.138	12448
926.245	12498
926.352	12384
926.459	12559
926.566	12604
926.673	12456
926.779	12315
926.886	12285
926.993	12178
927.099	12201
927.206	12140
927.312	12114
927.419	12228
927.525	12163
927.631	12053
927.737	12163
927.843	11984
927.95	11885
928.056	11965
928.162	11912
928.267	12022
928.373	12604
928.479	12072
928.585	11832
928.69	11866
928.796	11977
928.901	11923
929.007	11695
929.112	11912
929.218	11813
929.323	11775
929.428	11741
929.533	11828
929.638	11615
929.743	11703
929.848	11699
929.953	11676
930.058	11562
930.163	11387
930.267	11448
930.372	11532
930.477	11425
930.581	11619
930.685	11406
930.79	11322
930.894	11372
930.998	11246
931.103	11341
931.207	11018
931.311	10862
931.415	10869
931.519	10717
931.623	10698
