Data from test_V78500241_770.txt Node
Date: Fri Mar 25 15:15:13 CST 2022
User: usil
Spectrometer: V785-0024
Trigger mode: 0
Integration Time (sec): 4.000000E-1
Scans to average: 1
Nonlinearity correction enabled: false
Boxcar width: 0
Storing dark spectrum: false
XAxis mode: Wavelengths
Number of Pixels in Spectrum: 1024
>>>>>Begin Spectral Data<<<<<
801.071	28128
801.214	28055
801.356	27800
801.499	27743
801.641	27720
801.783	27717
801.926	27720
802.068	27603
802.211	27644
802.353	27523
802.496	27310
802.638	27351
802.78	27336
802.923	27199
803.065	27363
803.208	27370
803.35	27370
803.492	27427
803.635	27458
803.777	27523
803.919	27553
804.061	27717
804.204	27576
804.346	27603
804.488	27523
804.63	27618
804.773	27408
804.915	27564
805.057	27660
805.199	27485
805.341	27705
805.483	27808
805.626	27739
805.768	27538
805.91	27568
806.052	27603
806.194	27595
806.336	27797
806.478	27724
806.62	27739
806.762	27888
806.904	28082
807.046	28109
807.188	28139
807.33	28128
807.472	28029
807.614	27949
807.756	28036
807.898	28021
808.04	27876
808.182	27911
808.324	27979
808.465	28002
808.607	28322
808.749	28215
808.891	28447
809.033	28527
809.174	28379
809.316	28382
809.458	28226
809.6	28299
809.741	28481
809.883	28500
810.025	28512
810.166	28694
810.308	28664
810.45	28615
810.591	28462
810.733	28409
810.875	28310
811.016	28238
811.158	28325
811.299	28459
811.441	28546
811.582	28474
811.724	28394
811.865	28500
812.007	28295
812.148	28272
812.29	28470
812.431	28611
812.573	28577
812.714	28843
812.855	28877
812.997	28877
813.138	29140
813.279	29041
813.421	29022
813.562	28847
813.703	28691
813.845	28630
813.986	28188
814.127	28215
814.268	28112
814.41	28112
814.551	27930
814.692	28090
814.833	28067
814.974	28055
815.115	28124
815.256	27953
815.397	28021
815.539	27979
815.68	27934
815.821	27823
815.962	27861
816.103	28048
816.244	27835
816.385	27663
816.526	27831
816.666	27530
816.807	27359
816.948	27462
817.089	27637
817.23	27340
817.371	27435
817.512	27534
817.653	27378
817.793	27439
817.934	27504
818.075	27294
818.216	27408
818.356	27329
818.497	27245
818.638	27108
818.778	27116
818.919	27135
819.06	27207
819.2	27157
819.341	27443
819.481	27298
819.622	27553
819.762	27701
819.903	27694
820.043	27435
820.184	27583
820.324	27614
820.465	27545
820.605	27469
820.746	27351
820.886	27424
821.026	27382
821.167	27397
821.307	27572
821.447	27454
821.588	27192
821.728	27066
821.868	26971
822.008	26880
822.149	26902
822.289	26686
822.429	26613
822.569	26450
822.709	26552
822.849	26404
822.99	26317
823.13	26355
823.27	26256
823.41	26172
823.55	26043
823.69	26103
823.83	26240
823.97	26180
824.11	25970
824.25	25936
824.389	26012
824.529	26050
824.669	26005
824.809	26069
824.949	25921
825.089	26054
825.228	26054
825.368	25750
825.508	25879
825.648	25887
825.787	25928
825.927	25902
826.067	25898
826.206	25788
826.346	25932
826.485	25959
826.625	25894
826.765	25879
826.904	25947
827.044	25571
827.183	25620
827.323	25578
827.462	25791
827.601	25552
827.741	25563
827.88	25624
828.02	25495
828.159	25556
828.298	25483
828.437	25514
828.577	25529
828.716	25662
828.855	25468
828.994	25335
829.134	25247
829.273	25304
829.412	25209
829.551	25198
829.69	25202
829.829	25365
829.968	25396
830.107	25293
830.246	25350
830.385	25228
830.524	25122
830.663	25034
830.802	25038
830.941	24973
831.08	24856
831.219	24958
831.357	24890
831.496	25141
831.635	24776
831.774	24856
831.913	24798
832.051	24795
832.19	24707
832.329	24776
832.467	24570
832.606	24593
832.744	24490
832.883	24475
833.022	24570
833.16	24559
833.299	24608
833.437	24582
833.576	24532
833.714	24696
833.852	24753
833.991	24623
834.129	24722
834.267	24703
834.406	24566
834.544	24658
834.682	24654
834.821	24597
834.959	24749
835.097	24623
835.235	24570
835.373	24601
835.511	24517
835.65	24536
835.788	24460
835.926	24357
836.064	24190
836.202	24388
836.34	24502
836.478	24498
836.615	24330
836.753	24536
836.891	24551
837.029	24475
837.167	24467
837.305	24327
837.443	24323
837.58	24369
837.718	24216
837.856	24330
837.993	24266
838.131	24201
838.269	24068
838.406	24110
838.544	24144
838.681	23950
838.819	23836
838.956	23855
839.094	23672
839.231	23786
839.369	23931
839.506	23992
839.643	23984
839.781	23684
839.918	23672
840.055	23703
840.193	23699
840.33	23726
840.467	23680
840.604	23771
840.742	24045
840.879	23444
841.016	23577
841.153	23608
841.29	23672
841.427	23710
841.564	23661
841.701	23608
841.838	23615
841.975	23543
842.112	23627
842.249	23516
842.385	23398
842.522	23490
842.659	23421
842.796	23349
842.933	23444
843.069	23379
843.206	23265
843.343	23535
843.479	23383
843.616	23440
843.752	23193
843.889	23261
844.025	23360
844.162	23235
844.298	23307
844.435	23121
844.571	23018
844.708	23296
844.844	23330
844.98	23246
845.117	23261
845.253	23151
845.389	23086
845.525	23162
845.661	22968
845.798	22942
845.934	22927
846.07	22942
846.206	22984
846.342	22976
846.478	22957
846.614	22767
846.75	22531
846.886	22550
847.022	22603
847.158	22721
847.294	22713
847.429	22725
847.565	22596
847.701	22866
847.837	22386
847.972	22390
848.108	22390
848.244	22363
848.379	22253
848.515	22291
848.65	22181
848.786	22268
848.921	22238
849.057	22356
849.192	22223
849.328	22375
849.463	22215
849.598	22105
849.734	22177
849.869	22051
850.004	22006
850.14	22013
850.275	22002
850.41	21876
850.545	21934
850.68	21968
850.815	22109
850.95	21918
851.085	22150
851.22	22040
851.355	22063
851.49	22010
851.625	21972
851.76	21934
851.895	21922
852.03	21835
852.165	22067
852.299	22116
852.434	22101
852.569	21994
852.703	22017
852.838	22044
852.973	22147
853.107	22086
853.242	21895
853.376	21755
853.511	21774
853.645	21812
853.78	22048
853.914	21873
854.048	21751
854.183	21793
854.317	21846
854.451	21964
854.585	21857
854.72	21694
854.854	21953
854.988	21759
855.122	21827
855.256	21682
855.39	21819
855.524	21800
855.658	21934
855.792	21819
855.926	21880
856.06	21739
856.194	21998
856.327	21819
856.461	21690
856.595	21694
856.729	21854
856.862	21956
856.996	21857
857.13	21804
857.263	21888
857.397	21979
857.53	21766
857.664	21857
857.797	21869
857.931	21975
858.064	21861
858.197	21987
858.331	21709
858.464	21713
858.597	21732
858.731	21709
858.864	21622
858.997	21835
859.13	21770
859.263	21873
859.396	21854
859.529	21785
859.662	21770
859.795	21751
859.928	21915
860.061	22082
860.194	21979
860.327	21899
860.46	21838
860.592	22002
860.725	22067
860.858	21941
860.99	21918
861.123	21789
861.256	21648
861.388	21979
861.521	22557
861.653	21675
861.786	21629
861.918	21500
862.05	21720
862.183	21770
862.315	21827
862.447	21778
862.58	21667
862.712	21488
862.844	21526
862.976	21633
863.108	21618
863.24	21926
863.372	21488
863.504	21557
863.636	21507
863.768	21488
863.9	21580
864.032	21458
864.164	21397
864.296	21408
864.428	21717
864.559	21561
864.691	21587
864.823	21450
864.954	21595
865.086	21511
865.217	21378
865.349	21279
865.48	21298
865.612	21519
865.743	21500
865.875	21564
866.006	21363
866.137	21382
866.269	21397
866.4	21374
866.531	21348
866.662	21222
866.793	21230
866.924	21382
867.055	21454
867.186	21401
867.317	21123
867.448	21264
867.579	21405
867.71	21272
867.841	21275
867.972	21317
868.103	21469
868.233	21317
868.364	21264
868.495	21473
868.625	21545
868.756	21671
868.886	21481
869.017	21564
869.147	21663
869.278	21720
869.408	21606
869.539	21587
869.669	21762
869.799	21557
869.929	21728
870.06	21599
870.19	21915
870.32	21800
870.45	21915
870.58	21869
870.71	22025
870.84	22025
870.97	22002
871.1	21964
871.23	22135
871.36	22238
871.489	22029
871.619	22051
871.749	22238
871.879	22105
872.008	22238
872.138	22234
872.267	22067
872.397	22006
872.526	21922
872.656	22124
872.785	21953
872.915	22177
873.044	22200
873.173	22143
873.303	22200
873.432	22238
873.561	22249
873.69	22177
873.819	22257
873.948	22276
874.077	22135
874.206	22032
874.335	22196
874.464	22322
874.593	22382
874.722	22417
874.851	22447
874.979	22451
875.108	22428
875.237	22371
875.365	22272
875.494	22386
875.623	22474
875.751	22432
875.88	22462
876.008	22535
876.136	22569
876.265	22942
876.393	22858
876.521	22908
876.65	22820
876.778	22812
876.906	22672
877.034	22675
877.162	22797
877.29	22721
877.418	22805
877.546	22733
877.674	22706
877.802	22733
877.93	22603
878.058	22538
878.185	22679
878.313	22679
878.441	22752
878.568	22470
878.696	22713
878.824	22748
878.951	22904
879.079	22972
879.206	23098
879.333	22858
879.461	22771
879.588	22763
879.715	22858
879.842	22885
879.97	22725
880.097	22584
880.224	22538
880.351	22603
880.478	22630
880.605	22504
880.732	22569
880.859	22660
880.986	22538
881.112	22569
881.239	22432
881.366	22230
881.493	22234
881.619	22169
881.746	22268
881.872	22124
881.999	22093
882.125	22036
882.252	22188
882.378	22188
882.505	22272
882.631	21945
882.757	21838
882.883	21998
883.01	21804
883.136	21698
883.262	21641
883.388	21610
883.514	21785
883.64	21842
883.766	21759
883.892	21625
884.018	21610
884.143	21793
884.269	21850
884.395	21511
884.52	21367
884.646	21545
884.772	21389
884.897	21412
885.023	21530
885.148	21625
885.274	21519
885.399	21530
885.524	21473
885.65	21348
885.775	21538
885.9	21367
886.025	21466
886.15	21549
886.275	21496
886.4	21355
886.525	21397
886.65	21428
886.775	21412
886.9	21488
887.025	21629
887.149	21359
887.274	21203
887.399	21230
887.523	21245
887.648	21195
887.773	21100
887.897	21260
888.021	21203
888.146	21252
888.27	21218
888.395	21291
888.519	21249
888.643	21214
888.767	21192
888.891	21062
889.015	21074
889.139	21039
889.263	20960
889.387	20994
889.511	21355
889.635	21157
889.759	21116
889.883	20967
890.006	20979
890.13	21051
890.254	20914
890.377	20864
890.501	20765
890.624	20754
890.748	20834
890.871	20648
890.995	20568
891.118	20549
891.241	20594
891.364	20621
891.488	20663
891.611	20503
891.734	20526
891.857	20636
891.98	20587
892.103	20579
892.226	20549
892.349	20495
892.471	20347
892.594	20499
892.717	20476
892.839	20480
892.962	20476
893.085	20560
893.207	20450
893.33	20457
893.452	20347
893.575	20568
893.697	20412
893.819	20678
893.941	20705
894.064	20526
894.186	20294
894.308	20313
894.43	20537
894.552	20667
894.674	20560
894.796	20454
894.918	20480
895.04	20442
895.161	20545
895.283	20598
895.405	20374
895.526	20408
895.648	20461
895.769	20442
895.891	20530
896.012	20583
896.134	20476
896.255	20495
896.376	20461
896.498	20488
896.619	20454
896.74	20476
896.861	20537
896.982	20823
897.103	20910
897.224	20682
897.345	20716
897.466	20659
897.587	20674
897.708	20765
897.828	20625
897.949	20686
898.07	20507
898.19	20629
898.311	20819
898.431	20545
898.552	20636
898.672	20773
898.792	20712
898.913	20773
899.033	20663
899.153	20446
899.273	20427
899.393	20374
899.513	20431
899.633	20366
899.753	20454
899.873	20336
899.993	20473
900.113	20313
900.232	20381
900.352	20214
900.472	20332
900.591	20142
900.711	20145
900.83	20153
900.95	20305
901.069	20278
901.189	20103
901.308	19780
901.427	19852
901.546	19753
901.665	19780
901.784	19830
901.904	19582
902.023	19556
902.141	19346
902.26	19346
902.379	19369
902.498	19354
902.617	19278
902.735	19301
902.854	19263
902.973	19175
903.091	18996
903.21	18871
903.328	18966
903.446	18837
903.565	18848
903.683	18734
903.801	18741
903.919	18692
904.038	18673
904.156	18498
904.274	18601
904.392	18559
904.51	18601
904.627	18292
904.745	18566
904.863	18498
904.981	18407
905.098	18239
905.216	18197
905.334	18201
905.451	18220
905.569	18136
905.686	18342
905.803	18159
905.921	18079
906.038	18079
906.155	18087
906.272	17897
906.389	17863
906.506	17726
906.623	17737
906.74	17752
906.857	17570
906.974	17642
907.091	17764
907.208	17840
907.324	17760
907.441	17649
907.557	17535
907.674	17398
907.79	17425
907.907	17448
908.023	17520
908.139	17444
908.256	17349
908.372	17284
908.488	17356
908.604	17235
908.72	17208
908.836	17235
908.952	17189
909.068	17220
909.184	17292
909.3	17159
909.415	17102
909.531	17136
909.647	16873
909.762	16850
909.878	16896
909.993	16900
910.108	16809
910.224	16740
910.339	16869
910.454	16740
910.57	16668
910.685	16519
910.8	16866
910.915	16763
911.03	16561
911.145	16432
911.259	16440
911.374	16535
911.489	16405
911.604	16333
911.718	16333
911.833	16268
911.947	16143
912.062	15964
912.176	16109
912.291	16162
912.405	16086
912.519	16223
912.633	16348
912.748	16124
912.862	16097
912.976	16010
913.09	15918
913.204	15895
913.318	15892
913.431	15991
913.545	16036
913.659	16120
913.772	16010
913.886	15812
914	15861
914.113	15922
914.226	15941
914.34	15804
914.453	15682
914.566	15861
914.68	15679
914.793	15519
914.906	15393
915.019	15336
915.132	15359
915.245	15332
915.358	15378
915.47	15355
915.583	15447
915.696	15405
915.809	15428
915.921	15488
916.034	15370
916.146	15264
916.259	15355
916.371	15332
916.483	15359
916.595	15116
916.708	15241
916.82	15138
916.932	15173
917.044	15188
917.156	15207
917.268	15089
917.38	15028
917.491	15009
917.603	14975
917.715	15036
917.826	15039
917.938	14967
918.049	14819
918.161	15013
918.272	15165
918.384	15108
918.495	15039
918.606	14819
918.717	14807
918.828	14902
918.939	14853
919.05	14708
919.161	14689
919.272	14571
919.383	14640
919.494	14868
919.604	15017
919.715	14792
919.826	14663
919.936	14758
920.047	14826
920.157	14773
920.267	14921
920.378	14830
920.488	14689
920.598	14781
920.708	14941
920.818	14960
920.928	14815
921.038	15108
921.148	14876
921.258	14636
921.368	14659
921.477	14514
921.587	14457
921.697	14404
921.806	14400
921.916	14389
922.025	14195
922.134	14145
922.244	14039
922.353	14138
922.462	14016
922.571	14005
922.68	13757
922.789	13856
922.898	13750
923.007	13761
923.116	13746
923.224	13780
923.333	13651
923.442	13575
923.55	13647
923.659	13518
923.767	13674
923.876	13540
923.984	13681
924.092	13476
924.201	13548
924.309	13529
924.417	13510
924.525	13422
924.633	13407
924.741	14092
924.849	13266
924.956	13301
925.064	13308
925.172	13152
925.279	13103
925.387	13209
925.494	13118
925.602	13297
925.709	13225
925.816	13004
925.924	13099
926.031	13240
926.138	13160
926.245	13149
926.352	13015
926.459	13145
926.566	13206
926.673	12966
926.779	12863
926.886	12890
926.993	12840
927.099	12677
927.206	12597
927.312	12700
927.419	12776
927.525	12623
927.631	12734
927.737	12627
927.843	12608
927.95	12433
928.056	12582
928.162	12517
928.267	12502
928.373	13137
928.479	12578
928.585	12330
928.69	12513
928.796	12498
928.901	12357
929.007	12224
929.112	12365
929.218	12251
929.323	12281
929.428	12277
929.533	12437
929.638	12197
929.743	12182
929.848	12228
929.953	12205
930.058	12091
930.163	11942
930.267	11885
930.372	12026
930.477	11893
930.581	12125
930.685	11999
930.79	11786
930.894	11840
930.998	11805
931.103	11901
931.207	11630
931.311	11417
931.415	11402
931.519	11216
931.623	11174
