Data from test_V78500241_722.txt Node
Date: Fri Mar 25 15:14:53 CST 2022
User: usil
Spectrometer: V785-0024
Trigger mode: 0
Integration Time (sec): 4.000000E-1
Scans to average: 1
Nonlinearity correction enabled: false
Boxcar width: 0
Storing dark spectrum: false
XAxis mode: Wavelengths
Number of Pixels in Spectrum: 1024
>>>>>Begin Spectral Data<<<<<
801.071	28074
801.214	27949
801.356	27812
801.499	27671
801.641	27576
801.783	27629
801.926	27660
802.068	27610
802.211	27568
802.353	27443
802.496	27313
802.638	27302
802.78	27230
802.923	27275
803.065	27230
803.208	27169
803.35	27291
803.492	27401
803.635	27462
803.777	27420
803.919	27424
804.061	27762
804.204	27656
804.346	27427
804.488	27310
804.63	27515
804.773	27408
804.915	27504
805.057	27709
805.199	27424
805.341	27709
805.483	27705
805.626	27545
805.768	27435
805.91	27488
806.052	27717
806.194	27386
806.336	27739
806.478	27755
806.62	27542
806.762	27724
806.904	27842
807.046	28036
807.188	28131
807.33	27835
807.472	28135
807.614	28013
807.756	27987
807.898	27899
808.04	27876
808.182	27850
808.324	27797
808.465	27994
808.607	27960
808.749	28169
808.891	28284
809.033	28360
809.174	28257
809.316	28337
809.458	28382
809.6	28139
809.741	28424
809.883	28318
810.025	28519
810.166	28592
810.308	28626
810.45	28649
810.591	28535
810.733	28348
810.875	28177
811.016	28246
811.158	28341
811.299	28421
811.441	28531
811.582	28462
811.724	28249
811.865	28295
812.007	28268
812.148	28249
812.29	28257
812.431	28462
812.573	28736
812.714	28805
812.855	28847
812.997	28919
813.138	28999
813.279	29162
813.421	28968
813.562	28900
813.703	28675
813.845	28546
813.986	28310
814.127	28120
814.268	28086
814.41	28013
814.551	27835
814.692	28242
814.833	27945
814.974	27892
815.115	27998
815.256	28010
815.397	27827
815.539	27918
815.68	27842
815.821	27660
815.962	27755
816.103	27732
816.244	27682
816.385	27625
816.526	27496
816.666	27431
816.807	27268
816.948	27458
817.089	27291
817.23	27374
817.371	27462
817.512	27408
817.653	27378
817.793	27454
817.934	27199
818.075	27435
818.216	27382
818.356	27226
818.497	27252
818.638	27062
818.778	27020
818.919	26982
819.06	27051
819.2	27241
819.341	27237
819.481	27363
819.622	27374
819.762	27564
819.903	27500
820.043	27344
820.184	27500
820.324	27408
820.465	27454
820.605	27485
820.746	27435
820.886	27306
821.026	27370
821.167	27439
821.307	27389
821.447	27294
821.588	27081
821.728	27077
821.868	26868
822.008	26940
822.149	26659
822.289	26746
822.429	26415
822.569	26530
822.709	26488
822.849	26263
822.99	26229
823.13	26366
823.27	26218
823.41	26016
823.55	26043
823.69	26119
823.83	26172
823.97	26142
824.11	25947
824.25	25772
824.389	25871
824.529	25959
824.669	25913
824.809	26161
824.949	25841
825.089	26058
825.228	26062
825.368	25883
825.508	25750
825.648	25955
825.787	25753
825.927	25917
826.067	25719
826.206	25955
826.346	25803
826.485	25715
826.625	25849
826.765	25917
826.904	25818
827.044	25685
827.183	25575
827.323	25441
827.462	25613
827.601	25567
827.741	25411
827.88	25563
828.02	25457
828.159	25479
828.298	25499
828.437	25597
828.577	25491
828.716	25510
828.855	25479
828.994	25365
829.134	25266
829.273	25244
829.412	25179
829.551	25213
829.69	25202
829.829	25206
829.968	25213
830.107	25282
830.246	25114
830.385	25088
830.524	25137
830.663	25023
830.802	24920
830.941	24738
831.08	24749
831.219	24943
831.357	24894
831.496	24989
831.635	24875
831.774	24837
831.913	24734
832.051	24563
832.19	24597
832.329	24544
832.467	24601
832.606	24437
832.744	24456
832.883	24536
833.022	24429
833.16	24350
833.299	24441
833.437	24635
833.576	24608
833.714	24677
833.852	24532
833.991	24681
834.129	24707
834.267	24719
834.406	24601
834.544	24578
834.682	24544
834.821	24437
834.959	24639
835.097	24460
835.235	24566
835.373	24509
835.511	24407
835.65	24330
835.788	24376
835.926	24273
836.064	24289
836.202	24174
836.34	24376
836.478	24388
836.615	24330
836.753	24292
836.891	24388
837.029	24433
837.167	24216
837.305	24247
837.443	24273
837.58	24098
837.718	24266
837.856	24197
837.993	24083
838.131	24076
838.269	24007
838.406	24152
838.544	24041
838.681	23984
838.819	23672
838.956	23748
839.094	23661
839.231	23733
839.369	23783
839.506	24076
839.643	23889
839.781	23699
839.918	23589
840.055	23638
840.193	23646
840.33	23649
840.467	23531
840.604	23566
840.742	23889
840.879	23505
841.016	23535
841.153	23482
841.29	23665
841.427	23524
841.564	23714
841.701	23551
841.838	23619
841.975	23490
842.112	23493
842.249	23356
842.385	23315
842.522	23547
842.659	23334
842.796	23292
842.933	23284
843.069	23349
843.206	23288
843.343	23406
843.479	23406
843.616	23277
843.752	23113
843.889	23189
844.025	23254
844.162	23090
844.298	23166
844.435	23056
844.571	23037
844.708	23239
844.844	23425
844.98	23273
845.117	23159
845.253	23048
845.389	22892
845.525	23056
845.661	22965
845.798	22854
845.934	22972
846.07	22774
846.206	22828
846.342	22828
846.478	22736
846.614	22588
846.75	22516
846.886	22611
847.022	22622
847.158	22645
847.294	22550
847.429	22516
847.565	22489
847.701	22771
847.837	22352
847.972	22204
848.108	22459
848.244	22303
848.379	22207
848.515	22128
848.65	22135
848.786	22177
848.921	22169
849.057	22314
849.192	22196
849.328	22360
849.463	22204
849.598	22086
849.734	22109
849.869	21987
850.004	21884
850.14	22036
850.275	21918
850.41	21850
850.545	21778
850.68	22006
850.815	21979
850.95	21941
851.085	22021
851.22	21903
851.355	21911
851.49	21915
851.625	21759
851.76	21994
851.895	21781
852.03	21941
852.165	21797
852.299	21781
852.434	21953
852.569	21827
852.703	21911
852.838	21945
852.973	22074
853.107	22143
853.242	21915
853.376	21766
853.511	21720
853.645	21743
853.78	21903
853.914	21770
854.048	21694
854.183	21709
854.317	21857
854.451	21937
854.585	21888
854.72	21808
854.854	21854
854.988	21663
855.122	21728
855.256	21561
855.39	21701
855.524	21781
855.658	21728
855.792	21819
855.926	21629
856.06	21835
856.194	21660
856.327	21633
856.461	21576
856.595	21766
856.729	21709
856.862	21895
856.996	21759
857.13	21873
857.263	21850
857.397	21812
857.53	21751
857.664	21759
857.797	21804
857.931	21808
858.064	21804
858.197	21842
858.331	21743
858.464	21755
858.597	21614
858.731	21732
858.864	21637
858.997	21622
859.13	21732
859.263	21770
859.396	21846
859.529	21728
859.662	21561
859.795	21660
859.928	21762
860.061	21884
860.194	21972
860.327	21812
860.46	21667
860.592	21854
860.725	21835
860.858	21823
860.99	21797
861.123	21770
861.256	21648
861.388	21766
861.521	22497
861.653	21648
861.786	21454
861.918	21572
862.05	21545
862.183	21583
862.315	21561
862.447	21667
862.58	21625
862.712	21561
862.844	21348
862.976	21462
863.108	21526
863.24	21835
863.372	21386
863.504	21412
863.636	21321
863.768	21458
863.9	21500
864.032	21447
864.164	21313
864.296	21530
864.428	21519
864.559	21549
864.691	21412
864.823	21443
864.954	21515
865.086	21412
865.217	21393
865.349	21313
865.48	21294
865.612	21294
865.743	21287
865.875	21332
866.006	21169
866.137	21241
866.269	21313
866.4	21245
866.531	21249
866.662	21287
866.793	21214
866.924	21260
867.055	21348
867.186	21336
867.317	21169
867.448	21138
867.579	21211
867.71	21203
867.841	21161
867.972	21287
868.103	21237
868.233	21226
868.364	21256
868.495	21344
868.625	21443
868.756	21583
868.886	21370
869.017	21397
869.147	21663
869.278	21561
869.408	21469
869.539	21469
869.669	21504
869.799	21557
869.929	21667
870.06	21667
870.19	21892
870.32	21903
870.45	21899
870.58	21953
870.71	22048
870.84	21987
870.97	22010
871.1	21846
871.23	22036
871.36	22078
871.489	22128
871.619	22120
871.749	22059
871.879	22040
872.008	22310
872.138	22105
872.267	22105
872.397	21987
872.526	21876
872.656	21880
872.785	22002
872.915	22116
873.044	22150
873.173	22147
873.303	22204
873.432	22150
873.561	22204
873.69	22166
873.819	22097
873.948	22162
874.077	22109
874.206	22051
874.335	22150
874.464	22226
874.593	22371
874.722	22329
874.851	22280
874.979	22432
875.108	22356
875.237	22242
875.365	22291
875.494	22253
875.623	22322
875.751	22314
875.88	22413
876.008	22481
876.136	22352
876.265	22679
876.393	22809
876.521	22733
876.65	22748
876.778	22755
876.906	22713
877.034	22729
877.162	22729
877.29	22672
877.418	22729
877.546	22660
877.674	22603
877.802	22725
877.93	22550
878.058	22535
878.185	22546
878.313	22565
878.441	22717
878.568	22554
878.696	22664
878.824	22683
878.951	22622
879.079	22858
879.206	23037
879.333	22816
879.461	22599
879.588	22744
879.715	22866
879.842	22850
879.97	22744
880.097	22584
880.224	22459
880.351	22519
880.478	22500
880.605	22481
880.732	22402
880.859	22668
880.986	22481
881.112	22390
881.239	22299
881.366	22109
881.493	22120
881.619	22017
881.746	22147
881.872	22124
881.999	21945
882.125	22048
882.252	22074
882.378	21960
882.505	22109
882.631	21873
882.757	21869
882.883	21732
883.01	21831
883.136	21709
883.262	21637
883.388	21622
883.514	21675
883.64	21861
883.766	21759
883.892	21443
884.018	21606
884.143	21720
884.269	21930
884.395	21393
884.52	21321
884.646	21378
884.772	21340
884.897	21344
885.023	21485
885.148	21389
885.274	21523
885.399	21435
885.524	21420
885.65	21408
885.775	21408
885.9	21408
886.025	21435
886.15	21420
886.275	21291
886.4	21336
886.525	21260
886.65	21260
886.775	21351
886.9	21462
887.025	21534
887.149	21370
887.274	21241
887.399	21096
887.523	21173
887.648	21131
887.773	21096
887.897	21287
888.021	21214
888.146	21085
888.27	21310
888.395	21161
888.519	21344
888.643	21180
888.767	21085
888.891	21123
889.015	21017
889.139	20937
889.263	20918
889.387	21077
889.511	21146
889.635	21089
889.759	20895
889.883	20914
890.006	20998
890.13	21116
890.254	20918
890.377	20967
890.501	20655
890.624	20640
890.748	20727
890.871	20640
890.995	20522
891.118	20332
891.241	20427
891.364	20583
891.488	20587
891.611	20473
891.734	20549
891.857	20469
891.98	20564
892.103	20606
892.226	20404
892.349	20541
892.471	20305
892.594	20347
892.717	20564
892.839	20347
892.962	20461
893.085	20545
893.207	20355
893.33	20240
893.452	20336
893.575	20442
893.697	20469
893.819	20701
893.941	20613
894.064	20568
894.186	20294
894.308	20309
894.43	20461
894.552	20495
894.674	20438
894.796	20317
894.918	20366
895.04	20339
895.161	20533
895.283	20423
895.405	20381
895.526	20381
895.648	20339
895.769	20415
895.891	20358
896.012	20556
896.134	20503
896.255	20400
896.376	20336
896.498	20442
896.619	20412
896.74	20328
896.861	20480
896.982	20739
897.103	20883
897.224	20625
897.345	20636
897.466	20465
897.587	20598
897.708	20750
897.828	20640
897.949	20583
898.07	20271
898.19	20484
898.311	20785
898.431	20450
898.552	20590
898.672	20697
898.792	20571
898.913	20518
899.033	20488
899.153	20454
899.273	20358
899.393	20389
899.513	20450
899.633	20377
899.753	20454
899.873	20377
899.993	20294
900.113	20256
900.232	20320
900.352	20282
900.472	20206
900.591	20130
900.711	20054
900.83	20096
900.95	20210
901.069	20161
901.189	19993
901.308	19830
901.427	19715
901.546	19708
901.665	19700
901.784	19746
901.904	19632
902.023	19419
902.141	19365
902.26	19240
902.379	19316
902.498	19331
902.617	19084
902.735	19308
902.854	19244
902.973	19057
903.091	18913
903.21	18939
903.328	18916
903.446	18791
903.565	18688
903.683	18665
903.801	18692
903.919	18654
904.038	18574
904.156	18479
904.274	18566
904.392	18418
904.51	18486
904.627	18521
904.745	18452
904.863	18658
904.981	18220
905.098	18152
905.216	18247
905.334	18235
905.451	18007
905.569	18194
905.686	18213
905.803	18205
905.921	17950
906.038	18057
906.155	17939
906.272	17836
906.389	17737
906.506	17722
906.623	17779
906.74	17604
906.857	17570
906.974	17714
907.091	17676
907.208	17794
907.324	17699
907.441	17608
907.557	17505
907.674	17414
907.79	17349
907.907	17429
908.023	17497
908.139	17444
908.256	17379
908.372	17296
908.488	17239
908.604	17189
908.72	17079
908.836	17155
908.952	17064
909.068	17071
909.184	17132
909.3	17029
909.415	17147
909.531	17083
909.647	16858
909.762	16782
909.878	16771
909.993	16881
910.108	16786
910.224	16729
910.339	16717
910.454	16710
910.57	16672
910.685	16618
910.8	16927
910.915	16850
911.03	16713
911.145	16512
911.259	16481
911.374	16470
911.489	16306
911.604	16249
911.718	16200
911.833	16211
911.947	16090
912.062	15998
912.176	16116
912.291	16188
912.405	16131
912.519	16284
912.633	16440
912.748	16196
912.862	16082
912.976	15949
913.09	15869
913.204	15941
913.318	15953
913.431	16021
913.545	16025
913.659	16067
913.772	15960
913.886	15751
914	15690
914.113	15911
914.226	15903
914.34	15846
914.453	15766
914.566	15793
914.68	15724
914.793	15633
914.906	15462
915.019	15321
915.132	15329
915.245	15454
915.358	15393
915.47	15336
915.583	15420
915.696	15424
915.809	15408
915.921	15549
916.034	15218
916.146	15203
916.259	15218
916.371	15264
916.483	15233
916.595	15260
916.708	15123
916.82	15180
916.932	15176
917.044	15074
917.156	15108
917.268	15028
917.38	15089
917.491	14998
917.603	15074
917.715	15127
917.826	15077
917.938	15116
918.049	14765
918.161	14982
918.272	15127
918.384	15055
918.495	14941
918.606	14823
918.717	14712
918.828	14823
918.939	14838
919.05	14708
919.161	14716
919.272	14526
919.383	14701
919.494	14807
919.604	14857
919.715	14674
919.826	14678
919.936	14731
920.047	14686
920.157	14765
920.267	14906
920.378	14659
920.488	14686
920.598	14815
920.708	14895
920.818	14727
920.928	14887
921.038	15001
921.148	14921
921.258	14712
921.368	14602
921.477	14457
921.587	14454
921.697	14317
921.806	14522
921.916	14351
922.025	14145
922.134	14164
922.244	14046
922.353	14164
922.462	13921
922.571	14001
922.68	13814
922.789	13811
922.898	13715
923.007	13658
923.116	13776
923.224	13742
923.333	13658
923.442	13594
923.55	13518
923.659	13582
923.767	13681
923.876	13506
923.984	13590
924.092	13495
924.201	13521
924.309	13407
924.417	13487
924.525	13441
924.633	13430
924.741	14172
924.849	13244
924.956	13259
925.064	13152
925.172	13038
925.279	13088
925.387	13095
925.494	13149
925.602	13206
925.709	13179
925.816	12996
925.924	13145
926.031	13187
926.138	13091
926.245	13145
926.352	12958
926.459	13187
926.566	13183
926.673	13019
926.779	12951
926.886	12878
926.993	12776
927.099	12681
927.206	12669
927.312	12711
927.419	12669
927.525	12692
927.631	12852
927.737	12627
927.843	12486
927.95	12486
928.056	12429
928.162	12509
928.267	12597
928.373	13194
928.479	12601
928.585	12502
928.69	12578
928.796	12502
928.901	12353
929.007	12319
929.112	12361
929.218	12365
929.323	12163
929.428	12159
929.533	12369
929.638	12148
929.743	12129
929.848	12361
929.953	12175
930.058	12114
930.163	11954
930.267	11946
930.372	12098
930.477	11935
930.581	12213
930.685	12034
930.79	11760
930.894	11908
930.998	11783
931.103	11897
931.207	11551
931.311	11436
931.415	11349
931.519	11250
931.623	11151
