Data from test_V78500241_1184.txt Node
Date: Fri Mar 25 15:18:06 CST 2022
User: usil
Spectrometer: V785-0024
Trigger mode: 0
Integration Time (sec): 4.000000E-1
Scans to average: 1
Nonlinearity correction enabled: false
Boxcar width: 0
Storing dark spectrum: false
XAxis mode: Wavelengths
Number of Pixels in Spectrum: 1024
>>>>>Begin Spectral Data<<<<<
801.071	27793
801.214	27530
801.356	27336
801.499	27378
801.641	27119
801.783	27321
801.926	27332
802.068	27127
802.211	27313
802.353	27036
802.496	26899
802.638	26811
802.78	27005
802.923	26861
803.065	26739
803.208	26705
803.35	26887
803.492	26929
803.635	26963
803.777	26861
803.919	27199
804.061	27359
804.204	27119
804.346	27051
804.488	26990
804.63	27062
804.773	26883
804.915	27070
805.057	27142
805.199	27039
805.341	27195
805.483	27188
805.626	27135
805.768	26982
805.91	27176
806.052	27131
806.194	27070
806.336	27378
806.478	27192
806.62	27135
806.762	27222
806.904	27466
807.046	27641
807.188	27587
807.33	27633
807.472	27656
807.614	27523
807.756	27549
807.898	27492
808.04	27298
808.182	27488
808.324	27435
808.465	27454
808.607	27736
808.749	27755
808.891	27785
809.033	28040
809.174	27823
809.316	27759
809.458	27876
809.6	27823
809.741	27926
809.883	27846
810.025	28063
810.166	28147
810.308	27869
810.45	28002
810.591	27960
810.733	27808
810.875	27857
811.016	27652
811.158	27652
811.299	27865
811.441	27987
811.582	27960
811.724	27812
811.865	27705
812.007	27641
812.148	27846
812.29	27751
812.431	28055
812.573	28029
812.714	28246
812.855	28303
812.997	28504
813.138	28516
813.279	28379
813.421	28432
813.562	28295
813.703	28219
813.845	28078
813.986	27781
814.127	27557
814.268	27488
814.41	27443
814.551	27469
814.692	27717
814.833	27378
814.974	27473
815.115	27431
815.256	27427
815.397	27359
815.539	27496
815.68	27279
815.821	27336
815.962	27291
816.103	27230
816.244	27154
816.385	27108
816.526	27074
816.666	26891
816.807	26777
816.948	26834
817.089	26864
817.23	26796
817.371	26735
817.512	26769
817.653	26792
817.793	26640
817.934	26708
818.075	26804
818.216	26853
818.356	26811
818.497	26625
818.638	26484
818.778	26465
818.919	26476
819.06	26446
819.2	26678
819.341	26735
819.481	26724
819.622	26845
819.762	27089
819.903	27138
820.043	26906
820.184	26956
820.324	26914
820.465	26982
820.605	26887
820.746	26845
820.886	26823
821.026	26906
821.167	26750
821.307	26861
821.447	26830
821.588	26648
821.728	26655
821.868	26415
822.008	26111
822.149	26183
822.289	26244
822.429	25887
822.569	25936
822.709	25883
822.849	25795
822.99	25769
823.13	25655
823.27	25814
823.41	25605
823.55	25521
823.69	25605
823.83	25559
823.97	25476
824.11	25293
824.25	25388
824.389	25472
824.529	25476
824.669	25453
824.809	25525
824.949	25537
825.089	25537
825.228	25335
825.368	25247
825.508	25327
825.648	25274
825.787	25384
825.927	25308
826.067	25228
826.206	25190
826.346	25343
826.485	25483
826.625	25225
826.765	25354
826.904	25270
827.044	25057
827.183	25008
827.323	25057
827.462	25095
827.601	24962
827.741	24913
827.88	24962
828.02	25057
828.159	24985
828.298	24939
828.437	25168
828.577	25076
828.716	25168
828.855	24977
828.994	24890
829.134	24673
829.273	24783
829.412	24677
829.551	24563
829.69	24840
829.829	24639
829.968	24852
830.107	24837
830.246	24646
830.385	24627
830.524	24726
830.663	24631
830.802	24479
830.941	24334
831.08	24258
831.219	24338
831.357	24437
831.496	24570
831.635	24201
831.774	24273
831.913	24232
832.051	24243
832.19	24133
832.329	24182
832.467	24034
832.606	23973
832.744	23996
832.883	24110
833.022	24057
833.16	24045
833.299	24102
833.437	23973
833.576	24087
833.714	24106
833.852	24251
833.991	24133
834.129	24194
834.267	24136
834.406	24155
834.544	24190
834.682	24194
834.821	24026
834.959	24220
835.097	24216
835.235	24155
835.373	24091
835.511	24140
835.65	23859
835.788	23904
835.926	23920
836.064	23771
836.202	23885
836.34	23927
836.478	23923
836.615	23817
836.753	23935
836.891	23965
837.029	23935
837.167	23942
837.305	23813
837.443	23786
837.58	23840
837.718	23790
837.856	23798
837.993	23832
838.131	23817
838.269	23794
838.406	23608
838.544	23623
838.681	23383
838.819	23486
838.956	23337
839.094	23326
839.231	23280
839.369	23455
839.506	23642
839.643	23482
839.781	23208
839.918	23178
840.055	23166
840.193	23261
840.33	23117
840.467	23174
840.604	23284
840.742	23604
840.879	23189
841.016	23102
841.153	23136
841.29	23155
841.427	23178
841.564	23208
841.701	23178
841.838	23052
841.975	23033
842.112	23014
842.249	22968
842.385	22908
842.522	23132
842.659	23060
842.796	22968
842.933	22953
843.069	22919
843.206	22839
843.343	22957
843.479	23029
843.616	22942
843.752	22721
843.889	22877
844.025	22835
844.162	22877
844.298	22805
844.435	22641
844.571	22664
844.708	22755
844.844	22911
844.98	22839
845.117	22759
845.253	22653
845.389	22504
845.525	22519
845.661	22603
845.798	22402
845.934	22500
846.07	22375
846.206	22577
846.342	22584
846.478	22398
846.614	22322
846.75	22215
846.886	22105
847.022	22291
847.158	22268
847.294	22181
847.429	22112
847.565	22105
847.701	22443
847.837	21884
847.972	21934
848.108	22013
848.244	22051
848.379	21770
848.515	21770
848.65	21823
848.786	21774
848.921	21717
849.057	21819
849.192	21835
849.328	21808
849.463	21690
849.598	21770
849.734	21705
849.869	21717
850.004	21553
850.14	21576
850.275	21481
850.41	21561
850.545	21530
850.68	21519
850.815	21526
850.95	21534
851.085	21812
851.22	21717
851.355	21557
851.49	21511
851.625	21523
851.76	21431
851.895	21439
852.03	21507
852.165	21572
852.299	21614
852.434	21629
852.569	21599
852.703	21477
852.838	21599
852.973	21686
853.107	21789
853.242	21515
853.376	21405
853.511	21325
853.645	21291
853.78	21382
853.914	21458
854.048	21317
854.183	21329
854.317	21378
854.451	21576
854.585	21447
854.72	21408
854.854	21367
854.988	21386
855.122	21298
855.256	21203
855.39	21298
855.524	21488
855.658	21389
855.792	21310
855.926	21401
856.06	21408
856.194	21454
856.327	21370
856.461	21211
856.595	21298
856.729	21401
856.862	21466
856.996	21321
857.13	21412
857.263	21587
857.397	21363
857.53	21405
857.664	21420
857.797	21450
857.931	21534
858.064	21408
858.197	21462
858.331	21302
858.464	21378
858.597	21241
858.731	21306
858.864	21348
858.997	21241
859.13	21378
859.263	21435
859.396	21420
859.529	21351
859.662	21275
859.795	21367
859.928	21256
860.061	21545
860.194	21477
860.327	21393
860.46	21443
860.592	21534
860.725	21386
860.858	21450
860.99	21405
861.123	21374
861.256	21336
861.388	21405
861.521	22112
861.653	21116
861.786	21184
861.918	21146
862.05	21207
862.183	21154
862.315	21245
862.447	21378
862.58	21340
862.712	21077
862.844	21093
862.976	21226
863.108	21146
863.24	21428
863.372	21127
863.504	21028
863.636	21047
863.768	20979
863.9	21013
864.032	21039
864.164	21047
864.296	20986
864.428	21195
864.559	21249
864.691	21085
864.823	21001
864.954	21138
865.086	21051
865.217	21077
865.349	20910
865.48	20990
865.612	21093
865.743	21195
865.875	20883
866.006	20902
866.137	20956
866.269	20811
866.4	20910
866.531	20944
866.662	20724
866.793	20883
866.924	20796
867.055	20887
867.186	20914
867.317	20807
867.448	20697
867.579	20975
867.71	20838
867.841	20792
867.972	20952
868.103	20807
868.233	20883
868.364	20960
868.495	21062
868.625	21119
868.756	21192
868.886	21028
869.017	21123
869.147	21157
869.278	21218
869.408	21165
869.539	21180
869.669	21237
869.799	21222
869.929	21237
870.06	21188
870.19	21370
870.32	21389
870.45	21439
870.58	21454
870.71	21583
870.84	21701
870.97	21538
871.1	21466
871.23	21625
871.36	21622
871.489	21485
871.619	21751
871.749	21663
871.879	21618
872.008	21895
872.138	21854
872.267	21660
872.397	21625
872.526	21568
872.656	21526
872.785	21530
872.915	21747
873.044	21789
873.173	21648
873.303	21876
873.432	21774
873.561	21873
873.69	21876
873.819	21736
873.948	21816
874.077	21739
874.206	21724
874.335	21789
874.464	21861
874.593	21857
874.722	21911
874.851	21903
874.979	21979
875.108	21964
875.237	21895
875.365	21876
875.494	21911
875.623	22093
875.751	21884
875.88	22006
876.008	22032
876.136	22101
876.265	22322
876.393	22466
876.521	22432
876.65	22398
876.778	22306
876.906	22352
877.034	22211
877.162	22337
877.29	22303
877.418	22257
877.546	22265
877.674	22295
877.802	22329
877.93	22276
878.058	22223
878.185	22215
878.313	22287
878.441	22261
878.568	22154
878.696	22352
878.824	22310
878.951	22341
879.079	22402
879.206	22519
879.333	22542
879.461	22318
879.588	22428
879.715	22481
879.842	22611
879.97	22299
880.097	22128
880.224	22029
880.351	22090
880.478	22097
880.605	22082
880.732	22181
880.859	22405
880.986	22154
881.112	22109
881.239	22044
881.366	21880
881.493	21876
881.619	21812
881.746	21785
881.872	21819
881.999	21549
882.125	21709
882.252	21686
882.378	21641
882.505	21823
882.631	21557
882.757	21492
882.883	21549
883.01	21443
883.136	21355
883.262	21230
883.388	21249
883.514	21420
883.64	21363
883.766	21252
883.892	21146
884.018	21199
884.143	21279
884.269	21329
884.395	21138
884.52	21112
884.646	21116
884.772	21123
884.897	20906
885.023	21081
885.148	21142
885.274	21192
885.399	21195
885.524	21051
885.65	21070
885.775	21066
885.9	21051
886.025	21195
886.15	21089
886.275	20963
886.4	20872
886.525	21047
886.65	20921
886.775	20876
886.9	21127
887.025	21230
887.149	20948
887.274	20838
887.399	20826
887.523	20842
887.648	20804
887.773	20815
887.897	20895
888.021	20899
888.146	20845
888.27	20914
888.395	20914
888.519	20830
888.643	20868
888.767	20857
888.891	20765
889.015	20644
889.139	20663
889.263	20587
889.387	20648
889.511	20880
889.635	20727
889.759	20792
889.883	20537
890.006	20705
890.13	20568
890.254	20655
890.377	20617
890.501	20393
890.624	20324
890.748	20541
890.871	20187
890.995	20103
891.118	20126
891.241	20176
891.364	20233
891.488	20218
891.611	20183
891.734	20256
891.857	20248
891.98	20275
892.103	20286
892.226	20210
892.349	20126
892.471	20020
892.594	20168
892.717	20103
892.839	19982
892.962	20134
893.085	20172
893.207	20157
893.33	19871
893.452	19951
893.575	20149
893.697	20103
893.819	20313
893.941	20286
894.064	20221
894.186	20031
894.308	20046
894.43	20164
894.552	20199
894.674	20142
894.796	19967
894.918	20069
895.04	20005
895.161	20149
895.283	20138
895.405	20111
895.526	19986
895.648	20050
895.769	20039
895.891	20119
896.012	20130
896.134	20054
896.255	20206
896.376	20016
896.498	19982
896.619	20153
896.74	19997
896.861	20195
896.982	20336
897.103	20552
897.224	20419
897.345	20221
897.466	20328
897.587	20252
897.708	20419
897.828	20427
897.949	20252
898.07	20157
898.19	20240
898.311	20263
898.431	20259
898.552	20301
898.672	20301
898.792	20366
898.913	20355
899.033	20199
899.153	20119
899.273	20027
899.393	20058
899.513	20180
899.633	20024
899.753	20054
899.873	19928
899.993	20065
900.113	20012
900.232	19986
900.352	19967
900.472	19906
900.591	19849
900.711	19811
900.83	19723
900.95	19951
901.069	19898
901.189	19788
901.308	19533
901.427	19506
901.546	19422
901.665	19400
901.784	19373
901.904	19263
902.023	19156
902.141	19148
902.26	18859
902.379	19061
902.498	18920
902.617	18939
902.735	19023
902.854	18852
902.973	18738
903.091	18559
903.21	18479
903.328	18703
903.446	18585
903.565	18277
903.683	18361
903.801	18258
903.919	18273
904.038	18353
904.156	18102
904.274	18213
904.392	18129
904.51	18133
904.627	18060
904.745	18201
904.863	18182
904.981	17954
905.098	17817
905.216	17779
905.334	17897
905.451	17790
905.569	17745
905.686	17866
905.803	17798
905.921	17653
906.038	17722
906.155	17611
906.272	17581
906.389	17478
906.506	17429
906.623	17353
906.74	17353
906.857	17315
906.974	17280
907.091	17379
907.208	17512
907.324	17493
907.441	17356
907.557	17185
907.674	17098
907.79	16987
907.907	17094
908.023	17037
908.139	17014
908.256	16984
908.372	17006
908.488	16854
908.604	16843
908.72	16744
908.836	16877
908.952	16778
909.068	16790
909.184	16908
909.3	16809
909.415	16972
909.531	16881
909.647	16485
909.762	16588
909.878	16500
909.993	16459
910.108	16500
910.224	16561
910.339	16558
910.454	16367
910.57	16375
910.685	16386
910.8	16538
910.915	16523
911.03	16363
911.145	16211
911.259	16055
911.374	16181
911.489	16131
911.604	16055
911.718	15800
911.833	15857
911.947	15778
912.062	15690
912.176	15781
912.291	15686
912.405	15861
912.519	16029
912.633	15987
912.748	15972
912.862	15873
912.976	15618
913.09	15591
913.204	15599
913.318	15625
913.431	15690
913.545	15698
913.659	15781
913.772	15591
913.886	15580
914	15420
914.113	15542
914.226	15606
914.34	15591
914.453	15389
914.566	15511
914.68	15389
914.793	15336
914.906	15192
915.019	15169
915.132	15055
915.245	15089
915.358	15055
915.47	15093
915.583	15055
915.696	15180
915.809	15176
915.921	15207
916.034	14963
916.146	14960
916.259	14952
916.371	15077
916.483	15104
916.595	14933
916.708	14910
916.82	14891
916.932	14914
917.044	14804
917.156	14823
917.268	14716
917.38	14788
917.491	14792
917.603	14750
917.715	14861
917.826	14830
917.938	14648
918.049	14579
918.161	14701
918.272	14727
918.384	14853
918.495	14739
918.606	14495
918.717	14412
918.828	14465
918.939	14545
919.05	14336
919.161	14457
919.272	14263
919.383	14332
919.494	14415
919.604	14621
919.715	14457
919.826	14305
919.936	14469
920.047	14533
920.157	14450
920.267	14610
920.378	14480
920.488	14396
920.598	14587
920.708	14693
920.818	14640
920.928	14556
921.038	14686
921.148	14674
921.258	14415
921.368	14362
921.477	14252
921.587	14180
921.697	14043
921.806	14183
921.916	14054
922.025	13841
922.134	13788
922.244	13700
922.353	13830
922.462	13624
922.571	13772
922.68	13521
922.789	13499
922.898	13499
923.007	13438
923.116	13529
923.224	13438
923.333	13460
923.442	13308
923.55	13362
923.659	13304
923.767	13441
923.876	13278
923.984	13396
924.092	13206
924.201	13221
924.309	13236
924.417	13213
924.525	13110
924.633	13122
924.741	13902
924.849	12970
924.956	13202
925.064	12954
925.172	12817
925.279	12951
925.387	12985
925.494	12871
925.602	13034
925.709	12867
925.816	12856
925.924	12817
926.031	12905
926.138	12825
926.245	12897
926.352	12700
926.459	12909
926.566	12856
926.673	12749
926.779	12654
926.886	12620
926.993	12502
927.099	12460
927.206	12452
927.312	12353
927.419	12414
927.525	12338
927.631	12498
927.737	12346
927.843	12201
927.95	12266
928.056	12311
928.162	12327
928.267	12361
928.373	12844
928.479	12289
928.585	12144
928.69	12266
928.796	12330
928.901	12201
929.007	11889
929.112	12201
929.218	12144
929.323	12007
929.428	12007
929.533	12182
929.638	11946
929.743	12060
929.848	12003
929.953	11954
930.058	11908
930.163	11707
930.267	11756
930.372	11843
930.477	11798
930.581	11904
930.685	11733
930.79	11570
930.894	11661
930.998	11608
931.103	11642
931.207	11376
931.311	11280
931.415	11239
931.519	10991
931.623	10987
