Data from test_V78500241_2618.txt Node
Date: Fri Mar 25 15:28:05 CST 2022
User: usil
Spectrometer: V785-0024
Trigger mode: 0
Integration Time (sec): 4.000000E-1
Scans to average: 1
Nonlinearity correction enabled: false
Boxcar width: 0
Storing dark spectrum: false
XAxis mode: Wavelengths
Number of Pixels in Spectrum: 1024
>>>>>Begin Spectral Data<<<<<
801.071	27348
801.214	27066
801.356	26781
801.499	26815
801.641	26807
801.783	26754
801.926	26693
802.068	26777
802.211	26632
802.353	26663
802.496	26377
802.638	26355
802.78	26320
802.923	26252
803.065	26374
803.208	26278
803.35	26370
803.492	26522
803.635	26514
803.777	26275
803.919	26453
804.061	26883
804.204	26450
804.346	26404
804.488	26442
804.63	26450
804.773	26446
804.915	26457
805.057	26537
805.199	26495
805.341	26541
805.483	26648
805.626	26609
805.768	26503
805.91	26629
806.052	26682
806.194	26590
806.336	26785
806.478	26590
806.62	26621
806.762	26735
806.904	26857
807.046	27058
807.188	26994
807.33	27169
807.472	26921
807.614	26994
807.756	26895
807.898	26868
808.04	26792
808.182	26731
808.324	26883
808.465	26849
808.607	27096
808.749	27131
808.891	27294
809.033	27374
809.174	27249
809.316	27135
809.458	27203
809.6	27142
809.741	27256
809.883	27355
810.025	27431
810.166	27614
810.308	27469
810.45	27355
810.591	27420
810.733	27260
810.875	27241
811.016	26967
811.158	26982
811.299	27431
811.441	27389
811.582	27412
811.724	27291
811.865	27138
812.007	27074
812.148	27127
812.29	27165
812.431	27416
812.573	27618
812.714	27618
812.855	27637
812.997	27671
813.138	27895
813.279	27876
813.421	27679
813.562	27648
813.703	27458
813.845	27397
813.986	27070
814.127	26998
814.268	26773
814.41	26842
814.551	26758
814.692	27028
814.833	26781
814.974	26708
815.115	26887
815.256	26804
815.397	26804
815.539	26590
815.68	26579
815.821	26575
815.962	26682
816.103	26632
816.244	26507
816.385	26218
816.526	26320
816.666	26313
816.807	26092
816.948	26100
817.089	26225
817.23	26020
817.371	26092
817.512	26084
817.653	26088
817.793	26027
817.934	26062
818.075	26142
818.216	26012
818.356	26134
818.497	25974
818.638	25818
818.778	25921
818.919	25845
819.06	25852
819.2	25959
819.341	26016
819.481	25940
819.622	26130
819.762	26332
819.903	26271
820.043	26240
820.184	26130
820.324	26195
820.465	26164
820.605	26225
820.746	26195
820.886	26005
821.026	26153
821.167	26035
821.307	26290
821.447	26111
821.588	25982
821.728	25909
821.868	25700
822.008	25514
822.149	25624
822.289	25533
822.429	25316
822.569	25175
822.709	25312
822.849	25099
822.99	25103
823.13	25031
823.27	24886
823.41	24920
823.55	24798
823.69	24897
823.83	24932
823.97	24783
824.11	24688
824.25	24730
824.389	24894
824.529	24810
824.669	24711
824.809	24837
824.949	24703
825.089	24627
825.228	24722
825.368	24509
825.508	24479
825.648	24627
825.787	24654
825.927	24654
826.067	24559
826.206	24388
826.346	24661
826.485	24563
826.625	24627
826.765	24738
826.904	24684
827.044	24365
827.183	24399
827.323	24254
827.462	24277
827.601	24213
827.741	24228
827.88	24357
828.02	24285
828.159	24232
828.298	24247
828.437	24308
828.577	24140
828.716	24365
828.855	24117
828.994	23882
829.134	23901
829.273	23961
829.412	24057
829.551	23984
829.69	24003
829.829	24030
829.968	24053
830.107	24114
830.246	23942
830.385	23920
830.524	23904
830.663	23729
830.802	23699
830.941	23592
831.08	23600
831.219	23589
831.357	23630
831.496	23840
831.635	23623
831.774	23497
831.913	23554
832.051	23455
832.19	23505
832.329	23444
832.467	23269
832.606	23277
832.744	23307
832.883	23239
833.022	23178
833.16	23239
833.299	23288
833.437	23406
833.576	23376
833.714	23261
833.852	23406
833.991	23440
834.129	23345
834.267	23516
834.406	23341
834.544	23372
834.682	23402
834.821	23318
834.959	23490
835.097	23292
835.235	23436
835.373	23356
835.511	23452
835.65	23121
835.788	23181
835.926	23155
836.064	22927
836.202	23094
836.34	23162
836.478	23235
836.615	23254
836.753	23174
836.891	23334
837.029	23296
837.167	23033
837.305	23083
837.443	23033
837.58	22965
837.718	22987
837.856	23185
837.993	23132
838.131	22942
838.269	22984
838.406	22885
838.544	22877
838.681	22774
838.819	22656
838.956	22421
839.094	22592
839.231	22565
839.369	22649
839.506	22805
839.643	22771
839.781	22523
839.918	22516
840.055	22527
840.193	22348
840.33	22424
840.467	22478
840.604	22440
840.742	22725
840.879	22371
841.016	22485
841.153	22329
841.29	22611
841.427	22337
841.564	22550
841.701	22523
841.838	22432
841.975	22318
842.112	22500
842.249	22424
842.385	22314
842.522	22474
842.659	22341
842.796	22196
842.933	22200
843.069	22181
843.206	22158
843.343	22303
843.479	22253
843.616	22124
843.752	21975
843.889	22040
844.025	22044
844.162	22006
844.298	22029
844.435	22013
844.571	21960
844.708	22158
844.844	22166
844.98	22105
845.117	22093
845.253	21941
845.389	21899
845.525	21922
845.661	21793
845.798	21671
845.934	21720
846.07	21599
846.206	21850
846.342	21937
846.478	21618
846.614	21473
846.75	21424
846.886	21492
847.022	21500
847.158	21431
847.294	21325
847.429	21545
847.565	21408
847.701	21622
847.837	21272
847.972	21275
848.108	21279
848.244	21173
848.379	21116
848.515	20941
848.65	21032
848.786	21096
848.921	21013
849.057	21176
849.192	21085
849.328	21036
849.463	21009
849.598	21009
849.734	20891
849.869	20937
850.004	20872
850.14	20895
850.275	20758
850.41	20758
850.545	20785
850.68	20644
850.815	20883
850.95	20769
851.085	20868
851.22	20902
851.355	20746
851.49	20788
851.625	20739
851.76	20868
851.895	20746
852.03	20758
852.165	20910
852.299	20842
852.434	20963
852.569	20906
852.703	20800
852.838	20834
852.973	20998
853.107	20994
853.242	20712
853.376	20693
853.511	20503
853.645	20705
853.78	20686
853.914	20667
854.048	20727
854.183	20659
854.317	20682
854.451	20842
854.585	20617
854.72	20621
854.854	20731
854.988	20499
855.122	20720
855.256	20503
855.39	20636
855.524	20655
855.658	20785
855.792	20674
855.926	20629
856.06	20746
856.194	20743
856.327	20644
856.461	20590
856.595	20648
856.729	20712
856.862	20739
856.996	20613
857.13	20746
857.263	20720
857.397	20735
857.53	20594
857.664	20575
857.797	20674
857.931	20739
858.064	20644
858.197	20781
858.331	20590
858.464	20575
858.597	20648
858.731	20602
858.864	20598
858.997	20575
859.13	20644
859.263	20678
859.396	20708
859.529	20697
859.662	20636
859.795	20556
859.928	20678
860.061	20834
860.194	20727
860.327	20632
860.46	20606
860.592	20773
860.725	20724
860.858	20758
860.99	20667
861.123	20484
861.256	20632
861.388	20731
861.521	21260
861.653	20552
861.786	20457
861.918	20492
862.05	20530
862.183	20609
862.315	20598
862.447	20670
862.58	20484
862.712	20339
862.844	20393
862.976	20442
863.108	20427
863.24	20842
863.372	20355
863.504	20347
863.636	20324
863.768	20362
863.9	20415
864.032	20358
864.164	20240
864.296	20427
864.428	20389
864.559	20393
864.691	20480
864.823	20457
864.954	20427
865.086	20355
865.217	20267
865.349	20081
865.48	20267
865.612	20294
865.743	20377
865.875	20202
866.006	20206
866.137	20252
866.269	20161
866.4	20256
866.531	20199
866.662	20077
866.793	20084
866.924	20149
867.055	20199
867.186	20191
867.317	20142
867.448	20134
867.579	20168
867.71	20161
867.841	20092
867.972	20244
868.103	20195
868.233	20233
868.364	20092
868.495	20278
868.625	20358
868.756	20568
868.886	20244
869.017	20434
869.147	20556
869.278	20541
869.408	20545
869.539	20446
869.669	20408
869.799	20446
869.929	20552
870.06	20480
870.19	20876
870.32	20804
870.45	20880
870.58	20887
870.71	20895
870.84	20960
870.97	21009
871.1	20902
871.23	20994
871.36	21104
871.489	20990
871.619	20971
871.749	21039
871.879	21039
872.008	21176
872.138	21074
872.267	21062
872.397	20925
872.526	20861
872.656	20785
872.785	20895
872.915	20921
873.044	21169
873.173	21127
873.303	21062
873.432	21142
873.561	21131
873.69	20963
873.819	21043
873.948	21039
874.077	21150
874.206	20975
874.335	21070
874.464	21066
874.593	21310
874.722	21386
874.851	21340
874.979	21408
875.108	21249
875.237	21283
875.365	21321
875.494	21252
875.623	21401
875.751	21062
875.88	21256
876.008	21507
876.136	21576
876.265	21781
876.393	21911
876.521	21854
876.65	21682
876.778	21690
876.906	21561
877.034	21682
877.162	21698
877.29	21637
877.418	21759
877.546	21739
877.674	21660
877.802	21717
877.93	21698
878.058	21641
878.185	21564
878.313	21713
878.441	21644
878.568	21431
878.696	21500
878.824	21549
878.951	21694
879.079	21797
879.206	21964
879.333	21732
879.461	21701
879.588	21682
879.715	21838
879.842	21918
879.97	21652
880.097	21534
880.224	21618
880.351	21507
880.478	21519
880.605	21431
880.732	21504
880.859	21679
880.986	21519
881.112	21420
881.239	21370
881.366	21207
881.493	21150
881.619	21024
881.746	21127
881.872	21081
881.999	21058
882.125	21028
882.252	21051
882.378	21104
882.505	21211
882.631	20872
882.757	20777
882.883	20785
883.01	20853
883.136	20754
883.262	20617
883.388	20648
883.514	20712
883.64	20769
883.766	20648
883.892	20469
884.018	20701
884.143	20815
884.269	20788
884.395	20537
884.52	20412
884.646	20480
884.772	20427
884.897	20244
885.023	20434
885.148	20507
885.274	20503
885.399	20552
885.524	20404
885.65	20454
885.775	20419
885.9	20366
886.025	20530
886.15	20446
886.275	20427
886.4	20393
886.525	20400
886.65	20362
886.775	20244
886.9	20530
887.025	20564
887.149	20438
887.274	20309
887.399	20248
887.523	20206
887.648	20035
887.773	20050
887.897	20351
888.021	20278
888.146	20115
888.27	20294
888.395	20332
888.519	20240
888.643	20278
888.767	20187
888.891	20142
889.015	20069
889.139	20100
889.263	19997
889.387	20046
889.511	20233
889.635	20100
889.759	19970
889.883	19963
890.006	20039
890.13	20084
890.254	19887
890.377	19944
890.501	19723
890.624	19742
890.748	19772
890.871	19651
890.995	19590
891.118	19620
891.241	19540
891.364	19571
891.488	19807
891.611	19616
891.734	19537
891.857	19571
891.98	19510
892.103	19651
892.226	19632
892.349	19582
892.471	19384
892.594	19460
892.717	19491
892.839	19594
892.962	19537
893.085	19544
893.207	19441
893.33	19411
893.452	19483
893.575	19556
893.697	19476
893.819	19681
893.941	19685
894.064	19613
894.186	19445
894.308	19381
894.43	19529
894.552	19559
894.674	19525
894.796	19388
894.918	19499
895.04	19362
895.161	19586
895.283	19480
895.405	19422
895.526	19422
895.648	19491
895.769	19434
895.891	19434
896.012	19620
896.134	19620
896.255	19506
896.376	19525
896.498	19586
896.619	19544
896.74	19476
896.861	19578
896.982	19757
897.103	19944
897.224	19750
897.345	19696
897.466	19635
897.587	19871
897.708	19795
897.828	19776
897.949	19670
898.07	19506
898.19	19628
898.311	19723
898.431	19639
898.552	19605
898.672	19814
898.792	19746
898.913	19811
899.033	19632
899.153	19529
899.273	19483
899.393	19438
899.513	19529
899.633	19441
899.753	19476
899.873	19544
899.993	19472
900.113	19468
900.232	19468
900.352	19377
900.472	19324
900.591	19339
900.711	19221
900.83	19244
900.95	19339
901.069	19365
901.189	19168
901.308	19050
901.427	18852
901.546	18916
901.665	18901
901.784	18852
901.904	18722
902.023	18688
902.141	18410
902.26	18380
902.379	18460
902.498	18441
902.617	18403
902.735	18376
902.854	18308
902.973	18357
903.091	18136
903.21	18060
903.328	18076
903.446	18015
903.565	17817
903.683	17999
903.801	17748
903.919	17878
904.038	17832
904.156	17805
904.274	17703
904.392	17623
904.51	17649
904.627	17657
904.745	17653
904.863	17634
904.981	17440
905.098	17330
905.216	17292
905.334	17326
905.451	17360
905.569	17159
905.686	17379
905.803	17345
905.921	17086
906.038	17242
906.155	17208
906.272	17086
906.389	17014
906.506	16900
906.623	16911
906.74	16786
906.857	16809
906.974	16687
907.091	16934
907.208	17014
907.324	16904
907.441	16755
907.557	16634
907.674	16596
907.79	16558
907.907	16558
908.023	16607
908.139	16584
908.256	16519
908.372	16443
908.488	16470
908.604	16333
908.72	16409
908.836	16299
908.952	16150
909.068	16413
909.184	16287
909.3	16276
909.415	16382
909.531	16303
909.647	16063
909.762	16044
909.878	16017
909.993	16086
910.108	15983
910.224	16021
910.339	15945
910.454	15915
910.57	15857
910.685	15778
910.8	16006
910.915	15956
911.03	15854
911.145	15720
911.259	15564
911.374	15633
911.489	15644
911.604	15462
911.718	15450
911.833	15408
911.947	15298
912.062	15412
912.176	15412
912.291	15386
912.405	15405
912.519	15660
912.633	15477
912.748	15431
912.862	15283
912.976	15317
913.09	15093
913.204	15108
913.318	15100
913.431	15348
913.545	15192
913.659	15184
913.772	15184
913.886	15028
914	15020
914.113	15058
914.226	15154
914.34	15062
914.453	14929
914.566	15058
914.68	14979
914.793	14842
914.906	14735
915.019	14632
915.132	14606
915.245	14617
915.358	14655
915.47	14621
915.583	14556
915.696	14636
915.809	14804
915.921	14708
916.034	14465
916.146	14514
916.259	14499
916.371	14560
916.483	14530
916.595	14469
916.708	14454
916.82	14457
916.932	14457
917.044	14412
917.156	14370
917.268	14195
917.38	14400
917.491	14305
917.603	14305
917.715	14320
917.826	14358
917.938	14309
918.049	14145
918.161	14332
918.272	14495
918.384	14404
918.495	14164
918.606	14092
918.717	13967
918.828	14103
918.939	14130
919.05	14020
919.161	14081
919.272	13875
919.383	13932
919.494	14043
919.604	14218
919.715	14054
919.826	14001
919.936	14016
920.047	14092
920.157	14027
920.267	14309
920.378	14077
920.488	14039
920.598	14248
920.708	14339
920.818	14157
920.928	14142
921.038	14339
921.148	14358
921.258	13997
921.368	13841
921.477	13845
921.587	13788
921.697	13628
921.806	13769
921.916	13685
922.025	13487
922.134	13502
922.244	13460
922.353	13502
922.462	13278
922.571	13274
922.68	13103
922.789	13034
922.898	13088
923.007	12970
923.116	13065
923.224	13034
923.333	12981
923.442	12932
923.55	12939
923.659	12901
923.767	12970
923.876	12875
923.984	12901
924.092	12768
924.201	12905
924.309	12829
924.417	12863
924.525	12745
924.633	12825
924.741	13757
924.849	12532
924.956	12719
925.064	12612
925.172	12551
925.279	12525
925.387	12445
925.494	12540
925.602	12585
925.709	12570
925.816	12479
925.924	12521
926.031	12559
926.138	12464
926.245	12547
926.352	12399
926.459	12528
926.566	12509
926.673	12483
926.779	12304
926.886	12232
926.993	12178
927.099	12186
927.206	12030
927.312	12038
927.419	12152
927.525	12102
927.631	12155
927.737	12015
927.843	11969
927.95	11973
928.056	11939
928.162	11901
928.267	12003
928.373	12460
928.479	12007
928.585	11847
928.69	11935
928.796	11840
928.901	11885
929.007	11611
929.112	11805
929.218	11798
929.323	11726
929.428	11642
929.533	11737
929.638	11646
929.743	11707
929.848	11657
929.953	11604
930.058	11486
930.163	11356
930.267	11417
930.372	11551
930.477	11227
930.581	11497
930.685	11379
930.79	11254
930.894	11425
930.998	11246
931.103	11398
931.207	11010
931.311	10904
931.415	10843
931.519	10645
931.623	10675
