Data from test_V78500241_54.txt Node
Date: Fri Mar 25 15:10:14 CST 2022
User: usil
Spectrometer: V785-0024
Trigger mode: 0
Integration Time (sec): 4.000000E-1
Scans to average: 1
Nonlinearity correction enabled: false
Boxcar width: 0
Storing dark spectrum: false
XAxis mode: Wavelengths
Number of Pixels in Spectrum: 1024
>>>>>Begin Spectral Data<<<<<
801.071	28835
801.214	28763
801.356	28455
801.499	28538
801.641	28470
801.783	28192
801.926	28341
802.068	28329
802.211	28188
802.353	28166
802.496	27975
802.638	28032
802.78	27892
802.923	27785
803.065	27857
803.208	27873
803.35	28078
803.492	27975
803.635	28044
803.777	28082
803.919	27994
804.061	28436
804.204	28029
804.346	27914
804.488	27873
804.63	28059
804.773	27831
804.915	27934
805.057	28101
805.199	27975
805.341	28124
805.483	28101
805.626	28013
805.768	28063
805.91	28040
806.052	28097
806.194	28025
806.336	28303
806.478	28017
806.62	27972
806.762	28090
806.904	28074
807.046	28459
807.188	28344
807.33	28322
807.472	28554
807.614	28219
807.756	28363
807.898	28295
808.04	28116
808.182	28131
808.324	28139
808.465	28215
808.607	28379
808.749	28557
808.891	28698
809.033	28691
809.174	28538
809.316	28489
809.458	28565
809.6	28481
809.741	28611
809.883	28656
810.025	28759
810.166	28793
810.308	28847
810.45	28752
810.591	28561
810.733	28596
810.875	28592
811.016	28329
811.158	28242
811.299	28519
811.441	28603
811.582	28512
811.724	28580
811.865	28367
812.007	28386
812.148	28451
812.29	28615
812.431	28573
812.573	28679
812.714	28942
812.855	28919
812.997	28976
813.138	29227
813.279	29060
813.421	28942
813.562	28987
813.703	28729
813.845	28603
813.986	28223
814.127	28188
814.268	28120
814.41	28090
814.551	28055
814.692	28093
814.833	27922
814.974	27987
815.115	28021
815.256	27880
815.397	27934
815.539	27857
815.68	27812
815.821	27641
815.962	27720
816.103	27816
816.244	27561
816.385	27610
816.526	27519
816.666	27439
816.807	27108
816.948	27260
817.089	27401
817.23	27401
817.371	27218
817.512	27203
817.653	27104
817.793	27195
817.934	27127
818.075	27211
818.216	27070
818.356	27161
818.497	26933
818.638	27005
818.778	26826
818.919	26712
819.06	26918
819.2	27032
819.341	27093
819.481	27032
819.622	27146
819.762	27374
819.903	27279
820.043	27264
820.184	27135
820.324	27180
820.465	27104
820.605	27138
820.746	27249
820.886	26925
821.026	27100
821.167	27161
821.307	27199
821.447	27085
821.588	27055
821.728	26819
821.868	26670
822.008	26526
822.149	26453
822.289	26552
822.429	26301
822.569	26252
822.709	26267
822.849	26077
822.99	26050
823.13	26024
823.27	25898
823.41	25811
823.55	25655
823.69	25856
823.83	25871
823.97	25845
824.11	25590
824.25	25586
824.389	25620
824.529	25575
824.669	25445
824.809	25742
824.949	25632
825.089	25738
825.228	25537
825.368	25373
825.508	25415
825.648	25411
825.787	25419
825.927	25396
826.067	25274
826.206	25278
826.346	25343
826.485	25206
826.625	25369
826.765	25491
826.904	25354
827.044	25076
827.183	25110
827.323	25015
827.462	25050
827.601	25019
827.741	25057
827.88	25107
828.02	24901
828.159	24958
828.298	24962
828.437	25023
828.577	24871
828.716	25114
828.855	25004
828.994	24654
829.134	24700
829.273	24585
829.412	24688
829.551	24654
829.69	24555
829.829	24726
829.968	24738
830.107	24688
830.246	24650
830.385	24658
830.524	24376
830.663	24445
830.802	24437
830.941	24308
831.08	24205
831.219	24247
831.357	24220
831.496	24502
831.635	24194
831.774	24125
831.913	24110
832.051	24079
832.19	24003
832.329	23961
832.467	23912
832.606	23840
832.744	23870
832.883	23874
833.022	23893
833.16	23885
833.299	23973
833.437	23859
833.576	23805
833.714	23828
833.852	23798
833.991	23847
834.129	24102
834.267	23950
834.406	23824
834.544	23870
834.682	23901
834.821	23760
834.959	24030
835.097	23843
835.235	23783
835.373	23878
835.511	23843
835.65	23665
835.788	23668
835.926	23551
836.064	23501
836.202	23436
836.34	23722
836.478	23809
836.615	23813
836.753	23653
836.891	23535
837.029	23547
837.167	23516
837.305	23577
837.443	23493
837.58	23531
837.718	23710
837.856	23657
837.993	23429
838.131	23337
838.269	23421
838.406	23421
838.544	23379
838.681	23044
838.819	23128
838.956	22934
839.094	22938
839.231	23056
839.369	23052
839.506	23334
839.643	23235
839.781	22972
839.918	22828
840.055	22778
840.193	22953
840.33	22675
840.467	22805
840.604	22820
840.742	23162
840.879	22618
841.016	22748
841.153	22672
841.29	22892
841.427	22850
841.564	22908
841.701	22752
841.838	22706
841.975	22706
842.112	22634
842.249	22512
842.385	22516
842.522	22774
842.659	22447
842.796	22474
842.933	22367
843.069	22360
843.206	22390
843.343	22607
843.479	22417
843.616	22455
843.752	22322
843.889	22226
844.025	22367
844.162	22215
844.298	22204
844.435	22253
844.571	22139
844.708	22268
844.844	22500
844.98	22299
845.117	22299
845.253	22276
845.389	22086
845.525	22139
845.661	21991
845.798	21884
845.934	21941
846.07	21869
846.206	22036
846.342	22078
846.478	21804
846.614	21778
846.75	21667
846.886	21606
847.022	21747
847.158	21743
847.294	21743
847.429	21698
847.565	21580
847.701	21823
847.837	21348
847.972	21389
848.108	21469
848.244	21496
848.379	21283
848.515	21161
848.65	21180
848.786	21298
848.921	21180
849.057	21291
849.192	21279
849.328	21195
849.463	21237
849.598	21165
849.734	21142
849.869	20937
850.004	20952
850.14	21119
850.275	21047
850.41	20834
850.545	20777
850.68	20937
850.815	20956
850.95	20902
851.085	21077
851.22	21013
851.355	20861
851.49	20963
851.625	20937
851.76	20758
851.895	20773
852.03	20777
852.165	20830
852.299	20921
852.434	20921
852.569	20963
852.703	20834
852.838	20990
852.973	21013
853.107	21051
853.242	20891
853.376	20743
853.511	20621
853.645	20640
853.78	20868
853.914	20750
854.048	20701
854.183	20575
854.317	20716
854.451	20975
854.585	20720
854.72	20739
854.854	20815
854.988	20579
855.122	20632
855.256	20564
855.39	20739
855.524	20807
855.658	20689
855.792	20815
855.926	20724
856.06	20712
856.194	20815
856.327	20689
856.461	20609
856.595	20697
856.729	20697
856.862	20792
856.996	20724
857.13	20785
857.263	20815
857.397	20746
857.53	20678
857.664	20708
857.797	20750
857.931	20883
858.064	20697
858.197	20735
858.331	20655
858.464	20518
858.597	20415
858.731	20507
858.864	20522
858.997	20556
859.13	20731
859.263	20613
859.396	20708
859.529	20552
859.662	20492
859.795	20511
859.928	20648
860.061	20689
860.194	20864
860.327	20716
860.46	20560
860.592	20731
860.725	20689
860.858	20727
860.99	20598
861.123	20564
861.256	20590
861.388	20682
861.521	21127
861.653	20514
861.786	20377
861.918	20514
862.05	20598
862.183	20724
862.315	20674
862.447	20811
862.58	20575
862.712	20301
862.844	20313
862.976	20431
863.108	20347
863.24	20716
863.372	20202
863.504	20248
863.636	20358
863.768	20473
863.9	20317
864.032	20206
864.164	20385
864.296	20294
864.428	20408
864.559	20339
864.691	20351
864.823	20267
864.954	20229
865.086	20286
865.217	20233
865.349	20244
865.48	20096
865.612	20263
865.743	20370
865.875	20164
866.006	20195
866.137	20111
866.269	20286
866.4	20202
866.531	20176
866.662	20073
866.793	20122
866.924	20126
867.055	20221
867.186	20225
867.317	20035
867.448	20046
867.579	20092
867.71	20069
867.841	20145
867.972	20012
868.103	20111
868.233	20218
868.364	20168
868.495	20225
868.625	20271
868.756	20438
868.886	20408
869.017	20347
869.147	20442
869.278	20423
869.408	20377
869.539	20278
869.669	20454
869.799	20495
869.929	20385
870.06	20564
870.19	20663
870.32	20689
870.45	20788
870.58	20682
870.71	20883
870.84	20845
870.97	20689
871.1	20739
871.23	20910
871.36	20979
871.489	20842
871.619	20864
871.749	20967
871.879	20914
872.008	21028
872.138	20914
872.267	21032
872.397	20883
872.526	20815
872.656	20857
872.785	20743
872.915	21024
873.044	21047
873.173	20963
873.303	21009
873.432	20963
873.561	21032
873.69	20921
873.819	20956
873.948	21127
874.077	21020
874.206	20998
874.335	20979
874.464	21077
874.593	21199
874.722	21233
874.851	21287
874.979	21348
875.108	21283
875.237	21203
875.365	21096
875.494	21256
875.623	21268
875.751	21161
875.88	21173
876.008	21336
876.136	21367
876.265	21686
876.393	21778
876.521	21648
876.65	21694
876.778	21561
876.906	21622
877.034	21507
877.162	21572
877.29	21557
877.418	21534
877.546	21587
877.674	21564
877.802	21523
877.93	21587
878.058	21553
878.185	21412
878.313	21481
878.441	21671
878.568	21363
878.696	21469
878.824	21686
878.951	21709
879.079	21770
879.206	21785
879.333	21690
879.461	21564
879.588	21671
879.715	21755
879.842	21838
879.97	21614
880.097	21485
880.224	21382
880.351	21435
880.478	21485
880.605	21401
880.732	21462
880.859	21660
880.986	21435
881.112	21458
881.239	21249
881.366	21112
881.493	21043
881.619	21047
881.746	21001
881.872	21017
881.999	21005
882.125	21058
882.252	21024
882.378	20998
882.505	21173
882.631	20902
882.757	20830
882.883	20823
883.01	20765
883.136	20686
883.262	20579
883.388	20644
883.514	20807
883.64	20849
883.766	20663
883.892	20545
884.018	20549
884.143	20697
884.269	20849
884.395	20457
884.52	20313
884.646	20419
884.772	20450
884.897	20396
885.023	20309
885.148	20454
885.274	20526
885.399	20427
885.524	20290
885.65	20408
885.775	20267
885.9	20351
886.025	20294
886.15	20362
886.275	20347
886.4	20240
886.525	20343
886.65	20320
886.775	20301
886.9	20564
887.025	20503
887.149	20244
887.274	20043
887.399	20043
887.523	20126
887.648	20069
887.773	20069
887.897	20248
888.021	20244
888.146	20024
888.27	20092
888.395	20237
888.519	20221
888.643	20126
888.767	20221
888.891	20027
889.015	19921
889.139	19970
889.263	19890
889.387	20008
889.511	20138
889.635	20008
889.759	19902
889.883	19887
890.006	19947
890.13	19925
890.254	19788
890.377	19818
890.501	19662
890.624	19548
890.748	19647
890.871	19518
890.995	19377
891.118	19415
891.241	19540
891.364	19495
891.488	19518
891.611	19518
891.734	19556
891.857	19495
891.98	19472
892.103	19419
892.226	19426
892.349	19392
892.471	19365
892.594	19480
892.717	19415
892.839	19472
892.962	19506
893.085	19388
893.207	19422
893.33	19335
893.452	19339
893.575	19438
893.697	19373
893.819	19601
893.941	19506
894.064	19365
894.186	19285
894.308	19301
894.43	19407
894.552	19529
894.674	19548
894.796	19266
894.918	19293
895.04	19324
895.161	19518
895.283	19464
895.405	19301
895.526	19411
895.648	19377
895.769	19369
895.891	19373
896.012	19495
896.134	19495
896.255	19411
896.376	19327
896.498	19487
896.619	19601
896.74	19476
896.861	19483
896.982	19791
897.103	19917
897.224	19700
897.345	19750
897.466	19540
897.587	19700
897.708	19769
897.828	19632
897.949	19616
898.07	19506
898.19	19685
898.311	19696
898.431	19578
898.552	19693
898.672	19742
898.792	19658
898.913	19613
899.033	19502
899.153	19358
899.273	19335
899.393	19400
899.513	19331
899.633	19320
899.753	19308
899.873	19270
899.993	19308
900.113	19327
900.232	19316
900.352	19175
900.472	19190
900.591	18985
900.711	19084
900.83	19183
900.95	19236
901.069	19225
901.189	19133
901.308	18833
901.427	18650
901.546	18673
901.665	18817
901.784	18806
901.904	18631
902.023	18532
902.141	18372
902.26	18289
902.379	18376
902.498	18273
902.617	18057
902.735	18281
902.854	18266
902.973	18254
903.091	17931
903.21	17912
903.328	17908
903.446	17733
903.565	17783
903.683	17722
903.801	17630
903.919	17729
904.038	17726
904.156	17596
904.274	17509
904.392	17452
904.51	17528
904.627	17421
904.745	17543
904.863	17524
904.981	17353
905.098	17159
905.216	17067
905.334	17261
905.451	17185
905.569	17193
905.686	17155
905.803	17227
905.921	16961
906.038	17121
906.155	17014
906.272	16793
906.389	16828
906.506	16729
906.623	16736
906.74	16645
906.857	16546
906.974	16569
907.091	16710
907.208	16786
907.324	16725
907.441	16554
907.557	16558
907.674	16348
907.79	16367
907.907	16341
908.023	16337
908.139	16493
908.256	16196
908.372	16295
908.488	16333
908.604	16181
908.72	16078
908.836	16086
908.952	16082
909.068	16071
909.184	16196
909.3	15994
909.415	16109
909.531	16051
909.647	15846
909.762	15823
909.878	15842
909.993	15781
910.108	15736
910.224	15671
910.339	15698
910.454	15720
910.57	15584
910.685	15549
910.8	15789
910.915	15755
911.03	15614
911.145	15332
911.259	15340
911.374	15344
911.489	15283
911.604	15252
911.718	15089
911.833	15116
911.947	15028
912.062	14937
912.176	15085
912.291	15173
912.405	15055
912.519	15188
912.633	15294
912.748	15081
912.862	15013
912.976	14891
913.09	14777
913.204	14823
913.318	14956
913.431	14994
913.545	15123
913.659	14914
913.772	14960
913.886	14788
914	14720
914.113	14845
914.226	14883
914.34	14708
914.453	14651
914.566	14777
914.68	14632
914.793	14632
914.906	14461
915.019	14446
915.132	14431
915.245	14385
915.358	14446
915.47	14408
915.583	14465
915.696	14446
915.809	14454
915.921	14503
916.034	14351
916.146	14355
916.259	14275
916.371	14317
916.483	14309
916.595	14199
916.708	14336
916.82	14240
916.932	14275
917.044	14187
917.156	14134
917.268	13997
917.38	14062
917.491	14012
917.603	14035
917.715	14142
917.826	14016
917.938	13887
918.049	13887
918.161	13955
918.272	14123
918.384	14142
918.495	14001
918.606	13879
918.717	13841
918.828	13868
918.939	13860
919.05	13666
919.161	13750
919.272	13605
919.383	13666
919.494	13795
919.604	13940
919.715	13795
919.826	13784
919.936	13666
920.047	13795
920.157	13734
920.267	13974
920.378	13761
920.488	13708
920.598	13932
920.708	14088
920.818	13830
920.928	13921
921.038	14050
921.148	14081
921.258	13746
921.368	13609
921.477	13552
921.587	13521
921.697	13381
921.806	13487
921.916	13304
922.025	13156
922.134	13133
922.244	13065
922.353	13206
922.462	12989
922.571	12928
922.68	12749
922.789	12681
922.898	12886
923.007	12662
923.116	12684
923.224	12745
923.333	12700
923.442	12692
923.55	12608
923.659	12620
923.767	12665
923.876	12585
923.984	12696
924.092	12486
924.201	12623
924.309	12528
924.417	12589
924.525	12498
924.633	12509
924.741	13225
924.849	12239
924.956	12506
925.064	12220
925.172	12262
925.279	12209
925.387	12247
925.494	12224
925.602	12502
925.709	12372
925.816	12289
925.924	12239
926.031	12270
926.138	12213
926.245	12209
926.352	12178
926.459	12209
926.566	12266
926.673	12262
926.779	12060
926.886	12068
926.993	11882
927.099	11863
927.206	11805
927.312	11737
927.419	11920
927.525	11821
927.631	11904
927.737	11802
927.843	11764
927.95	11604
928.056	11714
928.162	11760
928.267	11752
928.373	12525
928.479	11798
928.585	11463
928.69	11745
928.796	11691
928.901	11570
929.007	11463
929.112	11722
929.218	11524
929.323	11421
929.428	11490
929.533	11474
929.638	11353
929.743	11360
929.848	11482
929.953	11383
930.058	11269
930.163	11162
930.267	11166
930.372	11322
930.477	11075
930.581	11280
930.685	11162
930.79	10995
930.894	11056
930.998	10923
931.103	11155
931.207	10824
931.311	10706
931.415	10607
931.519	10440
931.623	10424
