Data from test_V78500241_746.txt Node
Date: Fri Mar 25 15:15:03 CST 2022
User: usil
Spectrometer: V785-0024
Trigger mode: 0
Integration Time (sec): 4.000000E-1
Scans to average: 1
Nonlinearity correction enabled: false
Boxcar width: 0
Storing dark spectrum: false
XAxis mode: Wavelengths
Number of Pixels in Spectrum: 1024
>>>>>Begin Spectral Data<<<<<
801.071	27587
801.214	27671
801.356	27275
801.499	27355
801.641	27184
801.783	27176
801.926	27226
802.068	27100
802.211	27108
802.353	26937
802.496	26872
802.638	26838
802.78	26708
802.923	26701
803.065	26705
803.208	26701
803.35	26754
803.492	26815
803.635	26948
803.777	26804
803.919	26918
804.061	27230
804.204	26986
804.346	26937
804.488	26811
804.63	26918
804.773	26868
804.915	26940
805.057	27184
805.199	27089
805.341	27039
805.483	27123
805.626	27157
805.768	26785
805.91	27100
806.052	26986
806.194	27062
806.336	27180
806.478	27089
806.62	27119
806.762	27313
806.904	27325
807.046	27477
807.188	27557
807.33	27507
807.472	27534
807.614	27469
807.756	27241
807.898	27359
808.04	27424
808.182	27081
808.324	27447
808.465	27469
808.607	27641
808.749	27599
808.891	27819
809.033	27857
809.174	27770
809.316	27812
809.458	27781
809.6	27675
809.741	27778
809.883	27930
810.025	28002
810.166	28105
810.308	28032
810.45	28051
810.591	27941
810.733	27827
810.875	27717
811.016	27538
811.158	27656
811.299	27785
811.441	27926
811.582	27785
811.724	27679
811.865	27610
812.007	27648
812.148	27732
812.29	27770
812.431	27934
812.573	28048
812.714	28078
812.855	28246
812.997	28504
813.138	28485
813.279	28360
813.421	28276
813.562	28185
813.703	28090
813.845	27975
813.986	27610
814.127	27583
814.268	27496
814.41	27374
814.551	27397
814.692	27439
814.833	27405
814.974	27408
815.115	27397
815.256	27192
815.397	27256
815.539	27344
815.68	27173
815.821	27024
815.962	27313
816.103	27211
816.244	26994
816.385	26990
816.526	27055
816.666	26819
816.807	26526
816.948	26918
817.089	26807
817.23	26876
817.371	26674
817.512	26765
817.653	26632
817.793	26769
817.934	26697
818.075	26632
818.216	26693
818.356	26686
818.497	26621
818.638	26476
818.778	26564
818.919	26393
819.06	26568
819.2	26434
819.341	26663
819.481	26667
819.622	26823
819.762	26902
819.903	26842
820.043	27047
820.184	26876
820.324	26640
820.465	26785
820.605	26739
820.746	26682
820.886	26636
821.026	26800
821.167	26708
821.307	26861
821.447	26492
821.588	26632
821.728	26381
821.868	26195
822.008	26199
822.149	26142
822.289	26020
822.429	25784
822.569	25795
822.709	25868
822.849	25658
822.99	25635
823.13	25567
823.27	25677
823.41	25441
823.55	25396
823.69	25434
823.83	25354
823.97	25293
824.11	25396
824.25	25285
824.389	25365
824.529	25426
824.669	25282
824.809	25472
824.949	25327
825.089	25358
825.228	25320
825.368	25152
825.508	25114
825.648	25160
825.787	25297
825.927	25198
826.067	25148
826.206	25118
826.346	25293
826.485	25293
826.625	25126
826.765	25282
826.904	25061
827.044	24890
827.183	25088
827.323	24817
827.462	24973
827.601	24905
827.741	24757
827.88	24844
828.02	24745
828.159	25000
828.298	24909
828.437	24837
828.577	24905
828.716	24852
828.855	24802
828.994	24650
829.134	24585
829.273	24513
829.412	24593
829.551	24555
829.69	24532
829.829	24646
829.968	24665
830.107	24722
830.246	24574
830.385	24578
830.524	24513
830.663	24346
830.802	24281
830.941	24178
831.08	24190
831.219	24410
831.357	24266
831.496	24570
831.635	24190
831.774	24064
831.913	24140
832.051	24076
832.19	24053
832.329	23996
832.467	23866
832.606	23863
832.744	23885
832.883	23889
833.022	23863
833.16	23752
833.299	23939
833.437	23847
833.576	23859
833.714	23920
833.852	24007
833.991	23973
834.129	23992
834.267	23836
834.406	23980
834.544	23901
834.682	24041
834.821	23828
834.959	24121
835.097	23904
835.235	23946
835.373	23885
835.511	23836
835.65	23695
835.788	23745
835.926	23687
836.064	23543
836.202	23474
836.34	23821
836.478	23889
836.615	23767
836.753	23790
836.891	23813
837.029	23684
837.167	23741
837.305	23627
837.443	23402
837.58	23573
837.718	23653
837.856	23634
837.993	23463
838.131	23562
838.269	23410
838.406	23414
838.544	23414
838.681	23337
838.819	23200
838.956	23064
839.094	23086
839.231	23098
839.369	23212
839.506	23417
839.643	23220
839.781	23098
839.918	22938
840.055	22965
840.193	23140
840.33	23022
840.467	22942
840.604	23010
840.742	23178
840.879	22889
841.016	22900
841.153	22927
841.29	23060
841.427	22904
841.564	23025
841.701	22953
841.838	22999
841.975	22862
842.112	22896
842.249	22843
842.385	22710
842.522	22938
842.659	22759
842.796	22706
842.933	22774
843.069	22729
843.206	22767
843.343	22850
843.479	22805
843.616	22786
843.752	22485
843.889	22542
844.025	22615
844.162	22432
844.298	22683
844.435	22500
844.571	22462
844.708	22478
844.844	22504
844.98	22626
845.117	22641
845.253	22409
845.389	22424
845.525	22504
845.661	22382
845.798	22348
845.934	22352
846.07	22265
846.206	22295
846.342	22238
846.478	22139
846.614	22070
846.75	21949
846.886	22074
847.022	22032
847.158	22002
847.294	22067
847.429	21991
847.565	21888
847.701	22234
847.837	21755
847.972	21705
848.108	21789
848.244	21652
848.379	21633
848.515	21610
848.65	21629
848.786	21629
848.921	21622
849.057	21747
849.192	21686
849.328	21561
849.463	21694
849.598	21488
849.734	21416
849.869	21393
850.004	21329
850.14	21355
850.275	21374
850.41	21329
850.545	21329
850.68	21279
850.815	21435
850.95	21443
851.085	21462
851.22	21473
851.355	21363
851.49	21336
851.625	21245
851.76	21344
851.895	21169
852.03	21340
852.165	21302
852.299	21386
852.434	21435
852.569	21412
852.703	21340
852.838	21386
852.973	21466
853.107	21370
853.242	21218
853.376	21291
853.511	21024
853.645	21074
853.78	21268
853.914	21302
854.048	21081
854.183	21169
854.317	21123
854.451	21363
854.585	21116
854.72	21226
854.854	21237
854.988	21157
855.122	21211
855.256	20967
855.39	21169
855.524	21176
855.658	21207
855.792	21081
855.926	21180
856.06	21081
856.194	21233
856.327	21142
856.461	21081
856.595	21096
856.729	21123
856.862	21199
856.996	21241
857.13	21294
857.263	21283
857.397	21226
857.53	21169
857.664	21096
857.797	21237
857.931	21252
858.064	21066
858.197	21230
858.331	21100
858.464	21096
858.597	21093
858.731	21116
858.864	21093
858.997	21093
859.13	21188
859.263	21135
859.396	21203
859.529	21096
859.662	21062
859.795	21036
859.928	21100
860.061	21180
860.194	21310
860.327	21211
860.46	21138
860.592	21203
860.725	21317
860.858	21135
860.99	21150
861.123	21096
861.256	21058
861.388	21161
861.521	21785
861.653	21055
861.786	20979
861.918	20990
862.05	21077
862.183	21047
862.315	21055
862.447	21135
862.58	21096
862.712	20849
862.844	20872
862.976	20845
863.108	20758
863.24	21306
863.372	20800
863.504	20853
863.636	20792
863.768	20914
863.9	20864
864.032	20834
864.164	20777
864.296	20864
864.428	20895
864.559	20929
864.691	20921
864.823	20811
864.954	20880
865.086	20765
865.217	20811
865.349	20777
865.48	20712
865.612	20792
865.743	20883
865.875	20670
866.006	20667
866.137	20727
866.269	20674
866.4	20792
866.531	20579
866.662	20594
866.793	20781
866.924	20689
867.055	20777
867.186	20686
867.317	20651
867.448	20617
867.579	20575
867.71	20587
867.841	20762
867.972	20712
868.103	20651
868.233	20629
868.364	20632
868.495	20834
868.625	20899
868.756	20998
868.886	20895
869.017	20838
869.147	21036
869.278	20990
869.408	20990
869.539	21085
869.669	21123
869.799	20979
869.929	21039
870.06	21047
870.19	21226
870.32	21241
870.45	21237
870.58	21397
870.71	21477
870.84	21294
870.97	21275
871.1	21428
871.23	21469
871.36	21469
871.489	21469
871.619	21500
871.749	21492
871.879	21412
872.008	21690
872.138	21561
872.267	21466
872.397	21496
872.526	21386
872.656	21355
872.785	21370
872.915	21488
873.044	21545
873.173	21583
873.303	21545
873.432	21629
873.561	21572
873.69	21576
873.819	21469
873.948	21709
874.077	21576
874.206	21530
874.335	21310
874.464	21606
874.593	21652
874.722	21614
874.851	21705
874.979	21907
875.108	21720
875.237	21679
875.365	21739
875.494	21934
875.623	21819
875.751	21606
875.88	21751
876.008	21888
876.136	21975
876.265	22185
876.393	22261
876.521	22166
876.65	22261
876.778	22223
876.906	22154
877.034	22017
877.162	22200
877.29	22074
877.418	22196
877.546	22105
877.674	22097
877.802	22196
877.93	22131
878.058	21991
878.185	21991
878.313	22074
878.441	22162
878.568	22006
878.696	21979
878.824	22116
878.951	22105
879.079	22280
879.206	22421
879.333	22303
879.461	22116
879.588	22219
879.715	22188
879.842	22382
879.97	22128
880.097	21869
880.224	21827
880.351	21861
880.478	21949
880.605	21983
880.732	21922
880.859	22055
880.986	21861
881.112	21911
881.239	21766
881.366	21671
881.493	21603
881.619	21435
881.746	21644
881.872	21477
881.999	21545
882.125	21481
882.252	21580
882.378	21393
882.505	21591
882.631	21416
882.757	21321
882.883	21332
883.01	21272
883.136	21127
883.262	21138
883.388	21066
883.514	21116
883.64	21279
883.766	21176
883.892	20921
884.018	21055
884.143	21089
884.269	21237
884.395	20921
884.52	20746
884.646	20967
884.772	20800
884.897	20811
885.023	20925
885.148	20910
885.274	21089
885.399	20952
885.524	20883
885.65	20902
885.775	20845
885.9	20773
886.025	20880
886.15	20933
886.275	20826
886.4	20804
886.525	20826
886.65	20834
886.775	20823
886.9	20975
887.025	20982
887.149	20823
887.274	20716
887.399	20636
887.523	20682
887.648	20590
887.773	20545
887.897	20724
888.021	20655
888.146	20678
888.27	20655
888.395	20792
888.519	20640
888.643	20781
888.767	20682
888.891	20552
889.015	20495
889.139	20514
889.263	20381
889.387	20446
889.511	20571
889.635	20473
889.759	20393
889.883	20404
890.006	20423
890.13	20457
890.254	20294
890.377	20400
890.501	20134
890.624	20229
890.748	20172
890.871	20084
890.995	20069
891.118	19883
891.241	20058
891.364	19982
891.488	20149
891.611	20069
891.734	20020
891.857	19989
891.98	20065
892.103	20084
892.226	19921
892.349	19959
892.471	19856
892.594	19993
892.717	20115
892.839	19871
892.962	19940
893.085	19871
893.207	19909
893.33	19837
893.452	19845
893.575	19932
893.697	19856
893.819	20092
893.941	20157
894.064	19936
894.186	19875
894.308	19818
894.43	19898
894.552	20092
894.674	19917
894.796	19830
894.918	19955
895.04	19868
895.161	20005
895.283	19951
895.405	19830
895.526	19978
895.648	19811
895.769	19978
895.891	19856
896.012	20077
896.134	19928
896.255	19959
896.376	19917
896.498	19925
896.619	20043
896.74	19974
896.861	19906
896.982	20210
897.103	20320
897.224	20161
897.345	20100
897.466	20126
897.587	20081
897.708	20237
897.828	20259
897.949	20035
898.07	19906
898.19	19978
898.311	20324
898.431	20199
898.552	20153
898.672	20153
898.792	20142
898.913	20252
899.033	19997
899.153	20024
899.273	19928
899.393	19879
899.513	19860
899.633	19841
899.753	19936
899.873	19902
899.993	19833
900.113	19788
900.232	19841
900.352	19761
900.472	19784
900.591	19571
900.711	19742
900.83	19605
900.95	19841
901.069	19799
901.189	19605
901.308	19396
901.427	19350
901.546	19202
901.665	19285
901.784	19266
901.904	19164
902.023	19091
902.141	18920
902.26	18882
902.379	18932
902.498	18757
902.617	18749
902.735	18753
902.854	18707
902.973	18692
903.091	18475
903.21	18475
903.328	18357
903.446	18422
903.565	18243
903.683	18281
903.801	18186
903.919	18235
904.038	18235
904.156	18091
904.274	18057
904.392	18041
904.51	17908
904.627	18003
904.745	18030
904.863	18121
904.981	17851
905.098	17657
905.216	17729
905.334	17634
905.451	17741
905.569	17649
905.686	17707
905.803	17703
905.921	17520
906.038	17668
906.155	17520
906.272	17501
906.389	17501
906.506	17326
906.623	17307
906.74	17162
906.857	17045
906.974	17124
907.091	17376
907.208	17322
907.324	17376
907.441	17269
907.557	17045
907.674	17003
907.79	16995
907.907	16938
908.023	17045
908.139	17003
908.256	16889
908.372	16927
908.488	16793
908.604	16634
908.72	16637
908.836	16641
908.952	16672
909.068	16710
909.184	16755
909.3	16721
909.415	16752
909.531	16744
909.647	16440
909.762	16497
909.878	16341
909.993	16382
910.108	16386
910.224	16382
910.339	16402
910.454	16261
910.57	16223
910.685	16207
910.8	16447
910.915	16352
911.03	16158
911.145	16181
911.259	16074
911.374	16082
911.489	15812
911.604	15797
911.718	15751
911.833	15793
911.947	15709
912.062	15675
912.176	15682
912.291	15751
912.405	15747
912.519	15918
912.633	15918
912.748	15808
912.862	15675
912.976	15633
913.09	15408
913.204	15538
913.318	15591
913.431	15622
913.545	15606
913.659	15637
913.772	15584
913.886	15393
914	15389
914.113	15370
914.226	15538
914.34	15500
914.453	15260
914.566	15408
914.68	15302
914.793	15222
914.906	14986
915.019	14986
915.132	14895
915.245	15070
915.358	14933
915.47	15024
915.583	14967
915.696	15017
915.809	15058
915.921	15100
916.034	14990
916.146	14872
916.259	14887
916.371	14971
916.483	14941
916.595	14849
916.708	14735
916.82	14899
916.932	14678
917.044	14773
917.156	14686
917.268	14568
917.38	14693
917.491	14571
917.603	14610
917.715	14686
917.826	14758
917.938	14560
918.049	14575
918.161	14507
918.272	14788
918.384	14800
918.495	14606
918.606	14545
918.717	14415
918.828	14484
918.939	14450
919.05	14313
919.161	14343
919.272	14271
919.383	14244
919.494	14473
919.604	14594
919.715	14400
919.826	14332
919.936	14324
920.047	14427
920.157	14415
920.267	14518
920.378	14457
920.488	14286
920.598	14556
920.708	14762
920.818	14457
920.928	14484
921.038	14636
921.148	14575
921.258	14298
921.368	14229
921.477	14119
921.587	14073
921.697	14020
921.806	14088
921.916	13921
922.025	13833
922.134	13719
922.244	13826
922.353	13795
922.462	13620
922.571	13647
922.68	13472
922.789	13411
922.898	13445
923.007	13362
923.116	13483
923.224	13415
923.333	13293
923.442	13255
923.55	13263
923.659	13187
923.767	13343
923.876	13198
923.984	13270
924.092	13072
924.201	13221
924.309	13145
924.417	13202
924.525	13027
924.633	13057
924.741	13822
924.849	12894
924.956	13061
925.064	12878
925.172	12802
925.279	12802
925.387	12871
925.494	12802
925.602	12970
925.709	12817
925.816	12810
925.924	12913
926.031	12852
926.138	12859
926.245	12905
926.352	12658
926.459	12905
926.566	12882
926.673	12669
926.779	12620
926.886	12578
926.993	12494
927.099	12407
927.206	12399
927.312	12277
927.419	12380
927.525	12327
927.631	12372
927.737	12323
927.843	12220
927.95	12133
928.056	12098
928.162	12247
928.267	12262
928.373	12913
928.479	12311
928.585	12091
928.69	12243
928.796	12251
928.901	12155
929.007	12034
929.112	12003
929.218	12026
929.323	11954
929.428	11946
929.533	12068
929.638	11882
929.743	11927
929.848	11980
929.953	11897
930.058	11840
930.163	11566
930.267	11608
930.372	11817
930.477	11566
930.581	11817
930.685	11699
930.79	11512
930.894	11638
930.998	11467
931.103	11630
931.207	11322
931.311	11322
931.415	11124
931.519	10930
931.623	10900
