Data from test_V78500241_1957.txt Node
Date: Fri Mar 25 15:23:29 CST 2022
User: usil
Spectrometer: V785-0024
Trigger mode: 0
Integration Time (sec): 4.000000E-1
Scans to average: 1
Nonlinearity correction enabled: false
Boxcar width: 0
Storing dark spectrum: false
XAxis mode: Wavelengths
Number of Pixels in Spectrum: 1024
>>>>>Begin Spectral Data<<<<<
801.071	27606
801.214	27526
801.356	27310
801.499	27184
801.641	27161
801.783	27047
801.926	27093
802.068	26960
802.211	27142
802.353	27055
802.496	26830
802.638	26727
802.78	26712
802.923	26830
803.065	26571
803.208	26663
803.35	26667
803.492	26880
803.635	26872
803.777	26902
803.919	26830
804.061	27310
804.204	27039
804.346	26857
804.488	26940
804.63	26815
804.773	26754
804.915	26910
805.057	27051
805.199	26804
805.341	26990
805.483	27055
805.626	27142
805.768	26925
805.91	27085
806.052	27024
806.194	27017
806.336	27203
806.478	27188
806.62	27005
806.762	27100
806.904	27268
807.046	27515
807.188	27473
807.33	27450
807.472	27386
807.614	27359
807.756	27348
807.898	27214
808.04	27249
808.182	27256
808.324	27344
808.465	27427
808.607	27542
808.749	27637
808.891	27720
809.033	27949
809.174	27679
809.316	27625
809.458	27595
809.6	27523
809.741	27759
809.883	27785
810.025	27880
810.166	27857
810.308	27918
810.45	27949
810.591	27835
810.733	27713
810.875	27553
811.016	27500
811.158	27549
811.299	27545
811.441	27808
811.582	27679
811.724	27515
811.865	27454
812.007	27618
812.148	27492
812.29	27614
812.431	27804
812.573	28059
812.714	27983
812.855	28192
812.997	28200
813.138	28284
813.279	28253
813.421	28173
813.562	28101
813.703	27956
813.845	27800
813.986	27606
814.127	27393
814.268	27355
814.41	27329
814.551	27157
814.692	27355
814.833	27207
814.974	27237
815.115	27321
815.256	27252
815.397	27203
815.539	27085
815.68	27039
815.821	26982
815.962	27047
816.103	27131
816.244	26982
816.385	26914
816.526	26876
816.666	26727
816.807	26564
816.948	26712
817.089	26781
817.23	26606
817.371	26541
817.512	26731
817.653	26469
817.793	26514
817.934	26613
818.075	26598
818.216	26632
818.356	26632
818.497	26511
818.638	26278
818.778	26324
818.919	26412
819.06	26290
819.2	26480
819.341	26465
819.481	26438
819.622	26594
819.762	26876
819.903	26910
820.043	26705
820.184	26667
820.324	26648
820.465	26811
820.605	26788
820.746	26659
820.886	26549
821.026	26632
821.167	26442
821.307	26598
821.447	26587
821.588	26446
821.728	26343
821.868	26202
822.008	26119
822.149	25940
822.289	25928
822.429	25696
822.569	25814
822.709	25639
822.849	25628
822.99	25559
823.13	25586
823.27	25472
823.41	25407
823.55	25164
823.69	25472
823.83	25335
823.97	25289
824.11	25099
824.25	25175
824.389	25126
824.529	25289
824.669	25110
824.809	25377
824.949	25266
825.089	25137
825.228	25266
825.368	25061
825.508	24989
825.648	25110
825.787	25099
825.927	25114
826.067	25099
826.206	25072
826.346	25202
826.485	25126
826.625	25137
826.765	25129
826.904	25122
827.044	24909
827.183	24856
827.323	24741
827.462	24939
827.601	24779
827.741	24745
827.88	24696
828.02	24582
828.159	24715
828.298	24734
828.437	24817
828.577	24760
828.716	24810
828.855	24760
828.994	24505
829.134	24551
829.273	24582
829.412	24494
829.551	24365
829.69	24483
829.829	24448
829.968	24555
830.107	24505
830.246	24486
830.385	24471
830.524	24376
830.663	24136
830.802	24167
830.941	24072
831.08	24125
831.219	24174
831.357	24167
831.496	24251
831.635	24098
831.774	23950
831.913	23931
832.051	23840
832.19	23783
832.329	23942
832.467	23741
832.606	23687
832.744	23657
832.883	23752
833.022	23737
833.16	23855
833.299	23790
833.437	23703
833.576	23878
833.714	23779
833.852	23935
833.991	23916
834.129	23836
834.267	23920
834.406	23859
834.544	23870
834.682	23752
834.821	23889
834.959	24034
835.097	23878
835.235	23828
835.373	23847
835.511	23885
835.65	23604
835.788	23729
835.926	23638
836.064	23615
836.202	23486
836.34	23695
836.478	23699
836.615	23619
836.753	23676
836.891	23832
837.029	23657
837.167	23691
837.305	23653
837.443	23585
837.58	23520
837.718	23809
837.856	23516
837.993	23395
838.131	23349
838.269	23379
838.406	23429
838.544	23307
838.681	23250
838.819	23071
838.956	22987
839.094	22995
839.231	23128
839.369	23147
839.506	23231
839.643	23353
839.781	23083
839.918	22957
840.055	22991
840.193	22942
840.33	23014
840.467	22831
840.604	22911
840.742	23136
840.879	22828
841.016	22843
841.153	22866
841.29	23052
841.427	22866
841.564	22934
841.701	22755
841.838	22900
841.975	22801
842.112	22672
842.249	22820
842.385	22649
842.522	22839
842.659	22717
842.796	22554
842.933	22702
843.069	22634
843.206	22626
843.343	22675
843.479	22653
843.616	22683
843.752	22462
843.889	22390
844.025	22645
844.162	22436
844.298	22470
844.435	22516
844.571	22375
844.708	22459
844.844	22565
844.98	22512
845.117	22649
845.253	22405
845.389	22337
845.525	22299
845.661	22192
845.798	22067
845.934	22329
846.07	22211
846.206	22154
846.342	22219
846.478	22131
846.614	21972
846.75	21808
846.886	21842
847.022	21907
847.158	22013
847.294	21865
847.429	21968
847.565	21953
847.701	22135
847.837	21671
847.972	21629
848.108	21663
848.244	21778
848.379	21496
848.515	21603
848.65	21386
848.786	21583
848.921	21603
849.057	21663
849.192	21618
849.328	21549
849.463	21424
849.598	21420
849.734	21256
849.869	21477
850.004	21256
850.14	21336
850.275	21283
850.41	21123
850.545	21279
850.68	21260
850.815	21264
850.95	21203
851.085	21515
851.22	21405
851.355	21260
851.49	21298
851.625	21241
851.76	21214
851.895	21062
852.03	21142
852.165	21287
852.299	21351
852.434	21245
852.569	21249
852.703	21291
852.838	21264
852.973	21382
853.107	21405
853.242	21131
853.376	21089
853.511	21055
853.645	20986
853.78	21256
853.914	20994
854.048	21096
854.183	20998
854.317	21081
854.451	21161
854.585	21138
854.72	21218
854.854	21275
854.988	21085
855.122	21123
855.256	21165
855.39	21055
855.524	21123
855.658	21169
855.792	21135
855.926	21013
856.06	21195
856.194	21085
856.327	20971
856.461	21039
856.595	21138
856.729	20990
856.862	21188
856.996	21222
857.13	21077
857.263	21119
857.397	21233
857.53	21089
857.664	21005
857.797	21180
857.931	21176
858.064	21135
858.197	21119
858.331	21039
858.464	21112
858.597	21028
858.731	21104
858.864	20944
858.997	21036
859.13	21161
859.263	21089
859.396	21355
859.529	21123
859.662	21100
859.795	21055
859.928	21169
860.061	21321
860.194	21268
860.327	21173
860.46	21146
860.592	21173
860.725	21195
860.858	21207
860.99	21096
861.123	20998
861.256	21089
861.388	21039
861.521	21823
861.653	20960
861.786	20921
861.918	20902
862.05	21074
862.183	21028
862.315	21032
862.447	21039
862.58	20960
862.712	20777
862.844	20800
862.976	20902
863.108	20834
863.24	21325
863.372	20636
863.504	20823
863.636	20807
863.768	20895
863.9	20861
864.032	20765
864.164	20785
864.296	20804
864.428	20948
864.559	20963
864.691	20819
864.823	20781
864.954	20819
865.086	20800
865.217	20674
865.349	20651
865.48	20644
865.612	20617
865.743	20800
865.875	20670
866.006	20716
866.137	20667
866.269	20773
866.4	20712
866.531	20579
866.662	20807
866.793	20530
866.924	20632
867.055	20667
867.186	20609
867.317	20613
867.448	20564
867.579	20625
867.71	20473
867.841	20587
867.972	20636
868.103	20560
868.233	20667
868.364	20640
868.495	20735
868.625	20948
868.756	20921
868.886	20853
869.017	20914
869.147	20956
869.278	21039
869.408	21017
869.539	20925
869.669	21028
869.799	20914
869.929	20933
870.06	20895
870.19	21199
870.32	21203
870.45	21233
870.58	21249
870.71	21272
870.84	21340
870.97	21226
871.1	21298
871.23	21488
871.36	21363
871.489	21348
871.619	21435
871.749	21450
871.879	21504
872.008	21523
872.138	21545
872.267	21515
872.397	21310
872.526	21260
872.656	21214
872.785	21382
872.915	21477
873.044	21515
873.173	21515
873.303	21447
873.432	21587
873.561	21488
873.69	21504
873.819	21481
873.948	21572
874.077	21504
874.206	21382
874.335	21382
874.464	21637
874.593	21671
874.722	21572
874.851	21762
874.979	21701
875.108	21705
875.237	21561
875.365	21663
875.494	21686
875.623	21789
875.751	21781
875.88	21778
876.008	21846
876.136	21941
876.265	22097
876.393	22394
876.521	21998
876.65	22086
876.778	22154
876.906	22246
877.034	22055
877.162	22078
877.29	21964
877.418	22025
877.546	22120
877.674	22135
877.802	22059
877.93	21911
878.058	22070
878.185	21892
878.313	22032
878.441	22006
878.568	21865
878.696	21922
878.824	22128
878.951	22131
879.079	22230
879.206	22356
879.333	22158
879.461	22067
879.588	22234
879.715	22226
879.842	22352
879.97	22211
880.097	21835
880.224	21888
880.351	21850
880.478	21960
880.605	21816
880.732	21865
880.859	22162
880.986	21892
881.112	21907
881.239	21838
881.366	21564
881.493	21629
881.619	21542
881.746	21557
881.872	21420
881.999	21408
882.125	21420
882.252	21397
882.378	21462
882.505	21523
882.631	21439
882.757	21157
882.883	21393
883.01	21207
883.136	21112
883.262	20990
883.388	20990
883.514	21203
883.64	21108
883.766	21142
883.892	21093
884.018	20971
884.143	21055
884.269	21135
884.395	20807
884.52	20861
884.646	20880
884.772	20716
884.897	20842
885.023	20746
885.148	20880
885.274	20899
885.399	20902
885.524	20815
885.65	20815
885.775	20785
885.9	20777
886.025	20956
886.15	20769
886.275	20826
886.4	20807
886.525	20758
886.65	20640
886.775	20743
886.9	20941
887.025	21001
887.149	20838
887.274	20781
887.399	20556
887.523	20629
887.648	20522
887.773	20511
887.897	20537
888.021	20655
888.146	20465
888.27	20651
888.395	20659
888.519	20606
888.643	20689
888.767	20518
888.891	20568
889.015	20427
889.139	20476
889.263	20408
889.387	20362
889.511	20514
889.635	20469
889.759	20206
889.883	20339
890.006	20423
890.13	20461
890.254	20328
890.377	20358
890.501	20130
890.624	20149
890.748	20267
890.871	20077
890.995	19925
891.118	19986
891.241	19906
891.364	19902
891.488	20115
891.611	19894
891.734	20046
891.857	20050
891.98	19868
892.103	20001
892.226	19928
892.349	19913
892.471	19715
892.594	19833
892.717	19928
892.839	19909
892.962	19989
893.085	19963
893.207	19959
893.33	19708
893.452	19845
893.575	19868
893.697	19826
893.819	19989
893.941	20062
894.064	19993
894.186	19871
894.308	19803
894.43	20062
894.552	19947
894.674	19989
894.796	19791
894.918	19860
895.04	19890
895.161	19947
895.283	19803
895.405	19788
895.526	19818
895.648	19879
895.769	19928
895.891	19944
896.012	19883
896.134	19913
896.255	19967
896.376	19795
896.498	19799
896.619	19944
896.74	19875
896.861	19970
896.982	20164
897.103	20183
897.224	20206
897.345	20115
897.466	20016
897.587	20168
897.708	20225
897.828	20126
897.949	20027
898.07	19913
898.19	20012
898.311	20130
898.431	20081
898.552	20115
898.672	20046
898.792	20130
898.913	20050
899.033	20027
899.153	19936
899.273	19704
899.393	19837
899.513	19791
899.633	19757
899.753	19875
899.873	19738
899.993	19936
900.113	19765
900.232	19928
900.352	19742
900.472	19704
900.591	19514
900.711	19662
900.83	19624
900.95	19670
901.069	19811
901.189	19521
901.308	19312
901.427	19209
901.546	19198
901.665	19221
901.784	19236
901.904	19133
902.023	18996
902.141	18894
902.26	18817
902.379	18897
902.498	18688
902.617	18760
902.735	18753
902.854	18673
902.973	18669
903.091	18445
903.21	18521
903.328	18372
903.446	18289
903.565	18182
903.683	18235
903.801	18064
903.919	18110
904.038	18060
904.156	18091
904.274	17977
904.392	17920
904.51	17870
904.627	18011
904.745	17920
904.863	18106
904.981	17802
905.098	17611
905.216	17596
905.334	17748
905.451	17600
905.569	17687
905.686	17710
905.803	17592
905.921	17421
906.038	17570
906.155	17467
906.272	17368
906.389	17376
906.506	17193
906.623	17212
906.74	17204
906.857	17128
906.974	17052
907.091	17231
907.208	17406
907.324	17204
907.441	17067
907.557	16965
907.674	16942
907.79	16774
907.907	16850
908.023	16919
908.139	16927
908.256	16919
908.372	16763
908.488	16767
908.604	16698
908.72	16653
908.836	16733
908.952	16538
909.068	16634
909.184	16748
909.3	16717
909.415	16656
909.531	16645
909.647	16394
909.762	16409
909.878	16322
909.993	16424
910.108	16432
910.224	16291
910.339	16226
910.454	16169
910.57	16173
910.685	16139
910.8	16356
910.915	16265
911.03	16177
911.145	15884
911.259	15991
911.374	15823
911.489	15842
911.604	15736
911.718	15701
911.833	15732
911.947	15526
912.062	15458
912.176	15641
912.291	15656
912.405	15637
912.519	15831
912.633	15918
912.748	15724
912.862	15686
912.976	15542
913.09	15416
913.204	15458
913.318	15538
913.431	15500
913.545	15606
913.659	15618
913.772	15462
913.886	15336
914	15386
914.113	15298
914.226	15454
914.34	15351
914.453	15138
914.566	15298
914.68	15195
914.793	15161
914.906	14982
915.019	14979
915.132	14834
915.245	14868
915.358	14998
915.47	14914
915.583	14952
915.696	14849
915.809	14948
915.921	14998
916.034	14788
916.146	14834
916.259	14777
916.371	14929
916.483	14906
916.595	14777
916.708	14777
916.82	14705
916.932	14701
917.044	14796
917.156	14636
917.268	14670
917.38	14678
917.491	14598
917.603	14644
917.715	14716
917.826	14636
917.938	14419
918.049	14476
918.161	14575
918.272	14655
918.384	14644
918.495	14446
918.606	14396
918.717	14328
918.828	14377
918.939	14370
919.05	14142
919.161	14286
919.272	14069
919.383	14153
919.494	14381
919.604	14564
919.715	14358
919.826	14199
919.936	14229
920.047	14343
920.157	14278
920.267	14552
920.378	14309
920.488	14324
920.598	14530
920.708	14537
920.818	14431
920.928	14434
921.038	14560
921.148	14499
921.258	14294
921.368	14107
921.477	14115
921.587	14035
921.697	13940
921.806	14024
921.916	13921
922.025	13712
922.134	13674
922.244	13609
922.353	13708
922.462	13578
922.571	13582
922.68	13377
922.789	13457
922.898	13403
923.007	13331
923.116	13362
923.224	13236
923.333	13358
923.442	13179
923.55	13228
923.659	13213
923.767	13236
923.876	13084
923.984	13209
924.092	13046
924.201	13072
924.309	13160
924.417	13099
924.525	13027
924.633	12958
924.741	13715
924.849	12753
924.956	13031
925.064	12757
925.172	12703
925.279	12688
925.387	12825
925.494	12783
925.602	12897
925.709	12738
925.816	12810
925.924	12757
926.031	12741
926.138	12722
926.245	12779
926.352	12547
926.459	12791
926.566	12776
926.673	12711
926.779	12566
926.886	12464
926.993	12467
927.099	12304
927.206	12365
927.312	12289
927.419	12330
927.525	12361
927.631	12346
927.737	12277
927.843	12133
927.95	12060
928.056	12171
928.162	12186
928.267	12190
928.373	12654
928.479	12228
928.585	11984
928.69	12110
928.796	12129
928.901	12022
929.007	11908
929.112	12026
929.218	11843
929.323	11942
929.428	11828
929.533	11992
929.638	11813
929.743	11775
929.848	11908
929.953	11783
930.058	11752
930.163	11573
930.267	11623
930.372	11695
930.477	11638
930.581	11722
930.685	11642
930.79	11501
930.894	11554
930.998	11440
931.103	11524
931.207	11181
931.311	11170
931.415	11041
931.519	10843
931.623	10904
