Data from test_V78500241_3109.txt Node
Date: Fri Mar 25 15:31:30 CST 2022
User: usil
Spectrometer: V785-0024
Trigger mode: 0
Integration Time (sec): 4.000000E-1
Scans to average: 1
Nonlinearity correction enabled: false
Boxcar width: 0
Storing dark spectrum: false
XAxis mode: Wavelengths
Number of Pixels in Spectrum: 1024
>>>>>Begin Spectral Data<<<<<
801.071	26693
801.214	26648
801.356	26393
801.499	26370
801.641	26149
801.783	26301
801.926	26423
802.068	26233
802.211	26031
802.353	26005
802.496	25944
802.638	26031
802.78	25795
802.923	25772
803.065	25628
803.208	25772
803.35	25742
803.492	25974
803.635	25879
803.777	25830
803.919	25951
804.061	26271
804.204	26001
804.346	25936
804.488	25868
804.63	25940
804.773	25658
804.915	25898
805.057	26073
805.199	25814
805.341	26035
805.483	26050
805.626	25966
805.768	25833
805.91	26005
806.052	26130
806.194	25951
806.336	26145
806.478	26145
806.62	26058
806.762	26065
806.904	26168
807.046	26484
807.188	26301
807.33	26351
807.472	26400
807.614	26377
807.756	26431
807.898	26343
808.04	26183
808.182	26126
808.324	26149
808.465	26336
808.607	26396
808.749	26594
808.891	26785
809.033	26781
809.174	26689
809.316	26465
809.458	26640
809.6	26495
809.741	26686
809.883	26720
810.025	26849
810.166	26830
810.308	26979
810.45	26830
810.591	26617
810.733	26526
810.875	26457
811.016	26602
811.158	26450
811.299	26606
811.441	26708
811.582	26674
811.724	26541
811.865	26476
812.007	26541
812.148	26488
812.29	26667
812.431	26678
812.573	26876
812.714	26918
812.855	27039
812.997	27104
813.138	27264
813.279	27066
813.421	27001
813.562	26929
813.703	26864
813.845	26834
813.986	26415
814.127	26214
814.268	26278
814.41	26248
814.551	26240
814.692	26248
814.833	26092
814.974	26062
815.115	26202
815.256	26031
815.397	26119
815.539	26077
815.68	26050
815.821	25902
815.962	25986
816.103	25837
816.244	25761
816.385	25757
816.526	25620
816.666	25453
816.807	25422
816.948	25441
817.089	25552
817.23	25441
817.371	25540
817.512	25411
817.653	25434
817.793	25263
817.934	25419
818.075	25373
818.216	25491
818.356	25339
818.497	25209
818.638	25107
818.778	25190
818.919	25331
819.06	25217
819.2	25415
819.341	25384
819.481	25476
819.622	25483
819.762	25681
819.903	25727
820.043	25628
820.184	25582
820.324	25529
820.465	25533
820.605	25529
820.746	25468
820.886	25415
821.026	25449
821.167	25396
821.307	25495
821.447	25225
821.588	25240
821.728	25365
821.868	25126
822.008	24977
822.149	24852
822.289	24852
822.429	24635
822.569	24509
822.709	24460
822.849	24277
822.99	24372
823.13	24319
823.27	24323
823.41	24060
823.55	24110
823.69	24247
823.83	24178
823.97	24171
824.11	24038
824.25	23942
824.389	23954
824.529	24136
824.669	23958
824.809	24140
824.949	24011
825.089	24106
825.228	23988
825.368	23882
825.508	23882
825.648	23828
825.787	23840
825.927	23992
826.067	23859
826.206	23920
826.346	23882
826.485	23794
826.625	23885
826.765	23939
826.904	23824
827.044	23687
827.183	23722
827.323	23570
827.462	23627
827.601	23638
827.741	23581
827.88	23790
828.02	23410
828.159	23611
828.298	23524
828.437	23634
828.577	23497
828.716	23710
828.855	23482
828.994	23212
829.134	23265
829.273	23368
829.412	23254
829.551	23254
829.69	23296
829.829	23288
829.968	23379
830.107	23315
830.246	23383
830.385	23170
830.524	23181
830.663	23113
830.802	22949
830.941	23018
831.08	22892
831.219	23060
831.357	22968
831.496	23189
831.635	22965
831.774	22904
831.913	22847
832.051	22774
832.19	22569
832.329	22729
832.467	22607
832.606	22535
832.744	22637
832.883	22584
833.022	22622
833.16	22485
833.299	22577
833.437	22691
833.576	22725
833.714	22687
833.852	22710
833.991	22645
834.129	22790
834.267	22706
834.406	22755
834.544	22694
834.682	22698
834.821	22599
834.959	22725
835.097	22493
835.235	22634
835.373	22653
835.511	22748
835.65	22459
835.788	22630
835.926	22440
836.064	22318
836.202	22382
836.34	22527
836.478	22565
836.615	22443
836.753	22424
836.891	22599
837.029	22561
837.167	22481
837.305	22485
837.443	22287
837.58	22409
837.718	22493
837.856	22413
837.993	22276
838.131	22284
838.269	22261
838.406	22394
838.544	22120
838.681	21956
838.819	21968
838.956	21876
839.094	21941
839.231	21960
839.369	21987
839.506	22196
839.643	22059
839.781	21865
839.918	21812
840.055	21724
840.193	21892
840.33	21804
840.467	21835
840.604	21800
840.742	21964
840.879	21713
841.016	21739
841.153	21686
841.29	21915
841.427	21743
841.564	21778
841.701	21743
841.838	21846
841.975	21644
842.112	21800
842.249	21587
842.385	21519
842.522	21770
842.659	21572
842.796	21538
842.933	21523
843.069	21443
843.206	21549
843.343	21519
843.479	21603
843.616	21576
843.752	21367
843.889	21329
844.025	21424
844.162	21351
844.298	21466
844.435	21275
844.571	21348
844.708	21310
844.844	21443
844.98	21439
845.117	21420
845.253	21214
845.389	21214
845.525	21298
845.661	21154
845.798	21055
845.934	21150
846.07	20979
846.206	21135
846.342	21112
846.478	21001
846.614	20804
846.75	20735
846.886	20579
847.022	20918
847.158	20906
847.294	20842
847.429	20899
847.565	20842
847.701	20956
847.837	20522
847.972	20385
848.108	20465
848.244	20533
848.379	20393
848.515	20377
848.65	20396
848.786	20442
848.921	20404
849.057	20465
849.192	20438
849.328	20377
849.463	20377
849.598	20438
849.734	20210
849.869	20244
850.004	20317
850.14	20176
850.275	20096
850.41	20058
850.545	20176
850.68	20126
850.815	20229
850.95	20092
851.085	20374
851.22	20313
851.355	20164
851.49	19967
851.625	20130
851.76	20134
851.895	20001
852.03	20069
852.165	20210
852.299	20240
852.434	20244
852.569	20138
852.703	20214
852.838	20202
852.973	20317
853.107	20199
853.242	19959
853.376	20096
853.511	19856
853.645	19932
853.78	20062
853.914	19940
854.048	19864
854.183	19913
854.317	20035
854.451	20149
854.585	20020
854.72	19906
854.854	19955
854.988	19837
855.122	19955
855.256	19940
855.39	19940
855.524	20119
855.658	19993
855.792	20027
855.926	19982
856.06	19951
856.194	20077
856.327	20062
856.461	19947
856.595	20005
856.729	19974
856.862	20115
856.996	20008
857.13	19993
857.263	20016
857.397	20107
857.53	19928
857.664	19879
857.797	20039
857.931	19997
858.064	20130
858.197	19974
858.331	20012
858.464	19947
858.597	19818
858.731	20058
858.864	19894
858.997	19955
859.13	19970
859.263	20016
859.396	19970
859.529	19875
859.662	20039
859.795	19833
859.928	19936
860.061	20206
860.194	20180
860.327	19982
860.46	20031
860.592	20069
860.725	20046
860.858	20195
860.99	19833
861.123	19906
861.256	19868
861.388	19963
861.521	20518
861.653	19822
861.786	19681
861.918	19807
862.05	19902
862.183	19932
862.315	19978
862.447	19925
862.58	19791
862.712	19731
862.844	19655
862.976	19860
863.108	19871
863.24	20164
863.372	19715
863.504	19693
863.636	19734
863.768	19666
863.9	19799
864.032	19567
864.164	19597
864.296	19655
864.428	19769
864.559	19731
864.691	19685
864.823	19715
864.954	19689
865.086	19609
865.217	19662
865.349	19616
865.48	19685
865.612	19662
865.743	19712
865.875	19643
866.006	19552
866.137	19613
866.269	19540
866.4	19670
866.531	19662
866.662	19556
866.793	19556
866.924	19537
867.055	19620
867.186	19548
867.317	19506
867.448	19502
867.579	19525
867.71	19464
867.841	19426
867.972	19590
868.103	19609
868.233	19563
868.364	19563
868.495	19685
868.625	19772
868.756	19963
868.886	19677
869.017	19696
869.147	19898
869.278	19936
869.408	19803
869.539	19883
869.669	19795
869.799	19772
869.929	19898
870.06	19917
870.19	20031
870.32	20218
870.45	20100
870.58	20214
870.71	20164
870.84	20336
870.97	20225
871.1	20298
871.23	20259
871.36	20503
871.489	20294
871.619	20377
871.749	20545
871.879	20423
872.008	20457
872.138	20374
872.267	20438
872.397	20210
872.526	20298
872.656	20225
872.785	20180
872.915	20511
873.044	20594
873.173	20336
873.303	20415
873.432	20480
873.561	20663
873.69	20484
873.819	20362
873.948	20533
874.077	20473
874.206	20377
874.335	20423
874.464	20526
874.593	20651
874.722	20590
874.851	20701
874.979	20705
875.108	20750
875.237	20598
875.365	20552
875.494	20640
875.623	20743
875.751	20701
875.88	20636
876.008	20834
876.136	20838
876.265	21081
876.393	21207
876.521	21161
876.65	21096
876.778	20967
876.906	21043
877.034	20975
877.162	21104
877.29	21028
877.418	21203
877.546	21074
877.674	21058
877.802	20971
877.93	21066
878.058	20982
878.185	20826
878.313	20937
878.441	21093
878.568	20826
878.696	21005
878.824	21093
878.951	21039
879.079	21150
879.206	21249
879.333	21135
879.461	21017
879.588	21112
879.715	21135
879.842	21275
879.97	21108
880.097	20910
880.224	20883
880.351	20902
880.478	20800
880.605	20834
880.732	20918
880.859	21123
880.986	20826
881.112	21005
881.239	20765
881.366	20518
881.493	20507
881.619	20514
881.746	20473
881.872	20484
881.999	20419
882.125	20499
882.252	20454
882.378	20423
882.505	20530
882.631	20256
882.757	20248
882.883	20263
883.01	20107
883.136	20096
883.262	20138
883.388	20062
883.514	20225
883.64	20100
883.766	20183
883.892	19928
884.018	20012
884.143	20107
884.269	20278
884.395	19852
884.52	19837
884.646	19818
884.772	19811
884.897	19731
885.023	19696
885.148	19947
885.274	19982
885.399	20016
885.524	19833
885.65	19951
885.775	19940
885.9	19738
886.025	19928
886.15	19860
886.275	19746
886.4	19761
886.525	19772
886.65	19833
886.775	19700
886.9	19833
887.025	19932
887.149	19750
887.274	19590
887.399	19594
887.523	19529
887.648	19624
887.773	19563
887.897	19670
888.021	19689
888.146	19575
888.27	19681
888.395	19662
888.519	19521
888.643	19506
888.767	19540
888.891	19381
889.015	19335
889.139	19434
889.263	19381
889.387	19495
889.511	19616
889.635	19483
889.759	19358
889.883	19377
890.006	19495
890.13	19578
890.254	19388
890.377	19362
890.501	19187
890.624	19190
890.748	19190
890.871	19148
890.995	18973
891.118	18977
891.241	19019
891.364	19023
891.488	19038
891.611	19084
891.734	19103
891.857	19110
891.98	19027
892.103	19076
892.226	19099
892.349	18943
892.471	18821
892.594	18993
892.717	18875
892.839	18886
892.962	18943
893.085	19012
893.207	18897
893.33	18951
893.452	18848
893.575	19004
893.697	18954
893.819	19042
893.941	19187
894.064	19141
894.186	18909
894.308	18977
894.43	19084
894.552	19061
894.674	19141
894.796	18924
894.918	18935
895.04	19046
895.161	19069
895.283	19012
895.405	18776
895.526	18966
895.648	18920
895.769	18859
895.891	18989
896.012	19091
896.134	19008
896.255	19133
896.376	18871
896.498	18897
896.619	18996
896.74	18958
896.861	18928
896.982	19407
897.103	19362
897.224	19175
897.345	19194
897.466	19213
897.587	19209
897.708	19285
897.828	19152
897.949	19107
898.07	19129
898.19	19076
898.311	19301
898.431	19198
898.552	19293
898.672	19316
898.792	19343
898.913	19225
899.033	19095
899.153	18882
899.273	18962
899.393	18962
899.513	18973
899.633	18981
899.753	19019
899.873	18852
899.993	19046
900.113	18924
900.232	19065
900.352	18939
900.472	18886
900.591	18772
900.711	18871
900.83	18783
900.95	18821
901.069	18886
901.189	18684
901.308	18418
901.427	18369
901.546	18399
901.665	18433
901.784	18376
901.904	18235
902.023	18182
902.141	17908
902.26	17950
902.379	18026
902.498	17935
902.617	17893
902.735	17916
902.854	17817
902.973	17760
903.091	17516
903.21	17592
903.328	17615
903.446	17459
903.565	17452
903.683	17417
903.801	17280
903.919	17425
904.038	17402
904.156	17181
904.274	17326
904.392	17162
904.51	17200
904.627	17235
904.745	17193
904.863	17284
904.981	16934
905.098	16919
905.216	16835
905.334	16934
905.451	16904
905.569	16805
905.686	16824
905.803	16835
905.921	16649
906.038	16793
906.155	16656
906.272	16542
906.389	16550
906.506	16436
906.623	16333
906.74	16394
906.857	16333
906.974	16333
907.091	16466
907.208	16516
907.324	16443
907.441	16341
907.557	16135
907.674	16074
907.79	16044
907.907	15991
908.023	16078
908.139	16105
908.256	16010
908.372	15972
908.488	15915
908.604	15865
908.72	15804
908.836	15895
908.952	15831
909.068	15869
909.184	15854
909.3	15793
909.415	15934
909.531	15831
909.647	15572
909.762	15549
909.878	15504
909.993	15576
910.108	15561
910.224	15557
910.339	15485
910.454	15405
910.57	15279
910.685	15252
910.8	15576
910.915	15485
911.03	15279
911.145	15245
911.259	15192
911.374	15138
911.489	15077
911.604	15043
911.718	14967
911.833	14948
911.947	14842
912.062	14800
912.176	14933
912.291	15036
912.405	14963
912.519	15055
912.633	15127
912.748	14899
912.862	14876
912.976	14777
913.09	14629
913.204	14689
913.318	14792
913.431	14872
913.545	14899
913.659	14883
913.772	14720
913.886	14610
914	14480
914.113	14636
914.226	14716
914.34	14552
914.453	14442
914.566	14663
914.68	14473
914.793	14358
914.906	14286
915.019	14172
915.132	14126
915.245	14153
915.358	14263
915.47	14199
915.583	14240
915.696	14248
915.809	14275
915.921	14415
916.034	14161
916.146	14043
916.259	14126
916.371	14168
916.483	14043
916.595	14081
916.708	14039
916.82	14008
916.932	14008
917.044	14005
917.156	14039
917.268	13997
917.38	13841
917.491	13932
917.603	13841
917.715	14024
917.826	13982
917.938	13818
918.049	13719
918.161	13803
918.272	14035
918.384	14046
918.495	13837
918.606	13719
918.717	13590
918.828	13674
918.939	13643
919.05	13681
919.161	13620
919.272	13460
919.383	13499
919.494	13582
919.604	13894
919.715	13670
919.826	13578
919.936	13605
920.047	13734
920.157	13632
920.267	13906
920.378	13723
920.488	13594
920.598	13841
920.708	13970
920.818	13883
920.928	13742
921.038	13978
921.148	13871
921.258	13609
921.368	13533
921.477	13472
921.587	13400
921.697	13247
921.806	13426
921.916	13266
922.025	13152
922.134	13088
922.244	13050
922.353	13034
922.462	12909
922.571	12878
922.68	12711
922.789	12696
922.898	12719
923.007	12635
923.116	12707
923.224	12692
923.333	12627
923.442	12612
923.55	12559
923.659	12563
923.767	12563
923.876	12467
923.984	12650
924.092	12376
924.201	12502
924.309	12429
924.417	12407
924.525	12410
924.633	12323
924.741	13320
924.849	12201
924.956	12270
925.064	12213
925.172	12224
925.279	12144
925.387	12205
925.494	12129
925.602	12281
925.709	12239
925.816	12114
925.924	12152
926.031	12186
926.138	12148
926.245	12216
926.352	12060
926.459	12125
926.566	12125
926.673	12053
926.779	11999
926.886	11992
926.993	11771
927.099	11756
927.206	11752
927.312	11714
927.419	11790
927.525	11748
927.631	11889
927.737	11615
927.843	11642
927.95	11547
928.056	11680
928.162	11653
928.267	11729
928.373	12296
928.479	11695
928.585	11387
928.69	11589
928.796	11589
928.901	11421
929.007	11334
929.112	11417
929.218	11429
929.323	11322
929.428	11277
929.533	11490
929.638	11299
929.743	11269
929.848	11265
929.953	11345
930.058	11159
930.163	11060
930.267	11185
930.372	11128
930.477	11075
930.581	11235
930.685	11014
930.79	10915
930.894	11018
930.998	10968
931.103	11067
931.207	10736
931.311	10672
931.415	10565
931.519	10390
931.623	10306
