Data from test_V78500241_1667.txt Node
Date: Fri Mar 25 15:21:27 CST 2022
User: usil
Spectrometer: V785-0024
Trigger mode: 0
Integration Time (sec): 4.000000E-1
Scans to average: 1
Nonlinearity correction enabled: false
Boxcar width: 0
Storing dark spectrum: false
XAxis mode: Wavelengths
Number of Pixels in Spectrum: 1024
>>>>>Begin Spectral Data<<<<<
801.071	27911
801.214	27960
801.356	27652
801.499	27644
801.641	27504
801.783	27671
801.926	27629
802.068	27576
802.211	27378
802.353	27473
802.496	27245
802.638	27146
802.78	27085
802.923	27096
803.065	27039
803.208	27123
803.35	27096
803.492	27275
803.635	27424
803.777	27260
803.919	27393
804.061	27679
804.204	27386
804.346	27321
804.488	27321
804.63	27389
804.773	27264
804.915	27325
805.057	27526
805.199	27374
805.341	27485
805.483	27473
805.626	27507
805.768	27374
805.91	27538
806.052	27534
806.194	27389
806.336	27633
806.478	27507
806.62	27561
806.762	27633
806.904	27850
807.046	27972
807.188	27907
807.33	27876
807.472	27899
807.614	27781
807.756	27762
807.898	27835
808.04	27846
808.182	27770
808.324	27812
808.465	27892
808.607	28048
808.749	28303
808.891	28139
809.033	28226
809.174	28230
809.316	28090
809.458	28147
809.6	28078
809.741	28234
809.883	28314
810.025	28432
810.166	28424
810.308	28318
810.45	28386
810.591	28432
810.733	28120
810.875	28032
811.016	28074
811.158	27922
811.299	28188
811.441	28196
811.582	28185
811.724	28230
811.865	28032
812.007	28070
812.148	28261
812.29	28177
812.431	28310
812.573	28489
812.714	28569
812.855	28683
812.997	28618
813.138	28923
813.279	28786
813.421	28634
813.562	28706
813.703	28588
813.845	28409
813.986	28055
814.127	28032
814.268	27922
814.41	28010
814.551	27884
814.692	27899
814.833	27857
814.974	27835
815.115	27842
815.256	27846
815.397	27846
815.539	27648
815.68	27542
815.821	27511
815.962	27618
816.103	27701
816.244	27370
816.385	27291
816.526	27393
816.666	27252
816.807	27142
816.948	27157
817.089	27389
817.23	27188
817.371	27096
817.512	27161
817.653	27043
817.793	27039
817.934	27207
818.075	27123
818.216	27135
818.356	27161
818.497	27058
818.638	26876
818.778	26804
818.919	26788
819.06	26940
819.2	26944
819.341	27112
819.481	27081
819.622	27370
819.762	27511
819.903	27348
820.043	27252
820.184	27374
820.324	27241
820.465	27389
820.605	27283
820.746	27279
820.886	27108
821.026	27131
821.167	27135
821.307	27241
821.447	27142
821.588	27104
821.728	26902
821.868	26758
822.008	26678
822.149	26530
822.289	26545
822.429	26385
822.569	26362
822.709	26161
822.849	26065
822.99	26214
823.13	26100
823.27	26001
823.41	25917
823.55	25913
823.69	25940
823.83	25955
823.97	25856
824.11	25776
824.25	25689
824.389	25655
824.529	25803
824.669	25708
824.809	25898
824.949	25772
825.089	25852
825.228	25826
825.368	25643
825.508	25746
825.648	25696
825.787	25658
825.927	25689
826.067	25639
826.206	25647
826.346	25578
826.485	25666
826.625	25601
826.765	25734
826.904	25670
827.044	25350
827.183	25365
827.323	25449
827.462	25312
827.601	25445
827.741	25274
827.88	25369
828.02	25266
828.159	25194
828.298	25301
828.437	25354
828.577	25346
828.716	25266
828.855	25301
828.994	25190
829.134	25133
829.273	25137
829.412	24878
829.551	24985
829.69	25110
829.829	25084
829.968	25084
830.107	25072
830.246	25038
830.385	25027
830.524	24939
830.663	24863
830.802	24768
830.941	24677
831.08	24707
831.219	24711
831.357	24646
831.496	24943
831.635	24696
831.774	24593
831.913	24505
832.051	24448
832.19	24296
832.329	24582
832.467	24399
832.606	24311
832.744	24273
832.883	24330
833.022	24308
833.16	24304
833.299	24384
833.437	24399
833.576	24365
833.714	24388
833.852	24464
833.991	24479
834.129	24479
834.267	24475
834.406	24521
834.544	24452
834.682	24418
834.821	24380
834.959	24593
835.097	24327
835.235	24521
835.373	24388
835.511	24372
835.65	24213
835.788	24304
835.926	24068
836.064	23923
836.202	24079
836.34	24266
836.478	24471
836.615	24163
836.753	24209
836.891	24273
837.029	24247
837.167	24110
837.305	24190
837.443	24220
837.58	23999
837.718	24114
837.856	24026
837.993	23882
838.131	24152
838.269	23950
838.406	23996
838.544	23908
838.681	23718
838.819	23714
838.956	23661
839.094	23581
839.231	23520
839.369	23726
839.506	23954
839.643	23764
839.781	23440
839.918	23547
840.055	23570
840.193	23551
840.33	23402
840.467	23330
840.604	23455
840.742	23726
840.879	23326
841.016	23448
841.153	23414
841.29	23505
841.427	23436
841.564	23429
841.701	23425
841.838	23372
841.975	23414
842.112	23433
842.249	23265
842.385	23220
842.522	23459
842.659	23258
842.796	23181
842.933	23326
843.069	23193
843.206	23216
843.343	23341
843.479	23181
843.616	23143
843.752	22938
843.889	23086
844.025	23414
844.162	23155
844.298	22942
844.435	22995
844.571	22957
844.708	22968
844.844	23117
844.98	23083
845.117	23052
845.253	22885
845.389	22942
845.525	22889
845.661	22831
845.798	22729
845.934	22881
846.07	22683
846.206	22763
846.342	22820
846.478	22649
846.614	22653
846.75	22451
846.886	22356
847.022	22485
847.158	22474
847.294	22405
847.429	22417
847.565	22409
847.701	22588
847.837	22192
847.972	22162
848.108	22196
848.244	22181
848.379	22040
848.515	22109
848.65	22040
848.786	22074
848.921	22086
849.057	22154
849.192	22188
849.328	22013
849.463	22040
849.598	21991
849.734	21941
849.869	21778
850.004	21854
850.14	21835
850.275	21827
850.41	21705
850.545	21797
850.68	21827
850.815	21797
850.95	21694
851.085	21991
851.22	21953
851.355	21816
851.49	21804
851.625	21720
851.76	21781
851.895	21709
852.03	21641
852.165	21743
852.299	21888
852.434	21922
852.569	21800
852.703	21869
852.838	21861
852.973	21899
853.107	21819
853.242	21808
853.376	21663
853.511	21496
853.645	21591
853.78	21842
853.914	21576
854.048	21610
854.183	21694
854.317	21641
854.451	21812
854.585	21652
854.72	21572
854.854	21629
854.988	21568
855.122	21656
855.256	21469
855.39	21606
855.524	21648
855.658	21667
855.792	21709
855.926	21614
856.06	21618
856.194	21713
856.327	21515
856.461	21580
856.595	21583
856.729	21618
856.862	21823
856.996	21625
857.13	21747
857.263	21713
857.397	21781
857.53	21488
857.664	21599
857.797	21778
857.931	21587
858.064	21633
858.197	21724
858.331	21614
858.464	21583
858.597	21481
858.731	21629
858.864	21492
858.997	21515
859.13	21568
859.263	21641
859.396	21622
859.529	21622
859.662	21564
859.795	21519
859.928	21629
860.061	21713
860.194	21831
860.327	21549
860.46	21679
860.592	21652
860.725	21785
860.858	21857
860.99	21614
861.123	21526
861.256	21428
861.388	21538
861.521	22291
861.653	21637
861.786	21412
861.918	21469
862.05	21416
862.183	21492
862.315	21580
862.447	21583
862.58	21568
862.712	21367
862.844	21313
862.976	21374
863.108	21454
863.24	21835
863.372	21275
863.504	21317
863.636	21355
863.768	21526
863.9	21287
864.032	21287
864.164	21325
864.296	21469
864.428	21363
864.559	21348
864.691	21321
864.823	21264
864.954	21348
865.086	21321
865.217	21245
865.349	21062
865.48	21272
865.612	21203
865.743	21325
865.875	21222
866.006	21081
866.137	21233
866.269	21192
866.4	21272
866.531	21154
866.662	21051
866.793	21055
866.924	21203
867.055	21180
867.186	21135
867.317	21066
867.448	20990
867.579	21142
867.71	21119
867.841	20960
867.972	21005
868.103	21154
868.233	21199
868.364	21142
868.495	21302
868.625	21336
868.756	21416
868.886	21291
869.017	21408
869.147	21511
869.278	21389
869.408	21351
869.539	21408
869.669	21454
869.799	21279
869.929	21500
870.06	21450
870.19	21679
870.32	21656
870.45	21671
870.58	21720
870.71	21918
870.84	21793
870.97	21774
871.1	21717
871.23	21953
871.36	21911
871.489	21895
871.619	22021
871.749	22006
871.879	22124
872.008	22040
872.138	22074
872.267	22002
872.397	21835
872.526	21869
872.656	21800
872.785	21937
872.915	22017
873.044	22040
873.173	21998
873.303	22040
873.432	21861
873.561	22181
873.69	22162
873.819	22059
873.948	22086
874.077	21880
874.206	21823
874.335	21991
874.464	21968
874.593	22150
874.722	22063
874.851	22154
874.979	22242
875.108	22219
875.237	22226
875.365	21998
875.494	22238
875.623	22238
875.751	22219
875.88	22169
876.008	22295
876.136	22459
876.265	22656
876.393	22736
876.521	22733
876.65	22694
876.778	22611
876.906	22554
877.034	22489
877.162	22565
877.29	22523
877.418	22626
877.546	22519
877.674	22580
877.802	22527
877.93	22470
878.058	22481
878.185	22443
878.313	22478
878.441	22466
878.568	22466
878.696	22478
878.824	22569
878.951	22713
879.079	22763
879.206	22839
879.333	22721
879.461	22531
879.588	22721
879.715	22713
879.842	22835
879.97	22645
880.097	22306
880.224	22375
880.351	22424
880.478	22382
880.605	22390
880.732	22417
880.859	22634
880.986	22462
881.112	22398
881.239	22219
881.366	22204
881.493	22025
881.619	21975
881.746	22025
881.872	21983
881.999	21964
882.125	21797
882.252	21949
882.378	21998
882.505	21979
882.631	21774
882.757	21713
882.883	21698
883.01	21770
883.136	21694
883.262	21500
883.388	21469
883.514	21751
883.64	21743
883.766	21435
883.892	21481
884.018	21378
884.143	21667
884.269	21564
884.395	21386
884.52	21279
884.646	21260
884.772	21211
884.897	21283
885.023	21317
885.148	21283
885.274	21462
885.399	21370
885.524	21344
885.65	21298
885.775	21237
885.9	21310
886.025	21473
886.15	21500
886.275	21408
886.4	21249
886.525	21237
886.65	21245
886.775	21310
886.9	21447
887.025	21348
887.149	21230
887.274	21150
887.399	21199
887.523	21036
887.648	20925
887.773	20921
887.897	21184
888.021	21241
888.146	20998
888.27	21112
888.395	21131
888.519	21116
888.643	21138
888.767	21028
888.891	20899
889.015	20929
889.139	20910
889.263	20883
889.387	20929
889.511	21093
889.635	21005
889.759	20853
889.883	20777
890.006	20933
890.13	20925
890.254	20773
890.377	20781
890.501	20598
890.624	20682
890.748	20590
890.871	20495
890.995	20408
891.118	20385
891.241	20419
891.364	20362
891.488	20499
891.611	20446
891.734	20339
891.857	20495
891.98	20495
892.103	20545
892.226	20511
892.349	20313
892.471	20263
892.594	20343
892.717	20415
892.839	20358
892.962	20385
893.085	20328
893.207	20454
893.33	20286
893.452	20153
893.575	20374
893.697	20278
893.819	20522
893.941	20579
894.064	20442
894.186	20324
894.308	20218
894.43	20374
894.552	20298
894.674	20461
894.796	20233
894.918	20252
895.04	20259
895.161	20298
895.283	20343
895.405	20206
895.526	20313
895.648	20381
895.769	20309
895.891	20389
896.012	20358
896.134	20385
896.255	20389
896.376	20320
896.498	20370
896.619	20298
896.74	20282
896.861	20381
896.982	20560
897.103	20758
897.224	20552
897.345	20613
897.466	20419
897.587	20492
897.708	20651
897.828	20537
897.949	20450
898.07	20355
898.19	20545
898.311	20590
898.431	20507
898.552	20640
898.672	20526
898.792	20613
898.913	20514
899.033	20389
899.153	20267
899.273	20176
899.393	20286
899.513	20450
899.633	20305
899.753	20343
899.873	20164
899.993	20336
900.113	20210
900.232	20138
900.352	20221
900.472	20134
900.591	19963
900.711	20107
900.83	20012
900.95	20107
901.069	20153
901.189	19906
901.308	19719
901.427	19590
901.546	19712
901.665	19689
901.784	19601
901.904	19411
902.023	19510
902.141	19274
902.26	19327
902.379	19164
902.498	19171
902.617	19072
902.735	19164
902.854	19046
902.973	19076
903.091	18810
903.21	18814
903.328	18844
903.446	18772
903.565	18559
903.683	18654
903.801	18407
903.919	18589
904.038	18509
904.156	18414
904.274	18513
904.392	18327
904.51	18311
904.627	18346
904.745	18437
904.863	18483
904.981	18152
905.098	18034
905.216	18140
905.334	18091
905.451	18057
905.569	17923
905.686	18011
905.803	18076
905.921	17942
906.038	17920
906.155	17923
906.272	17908
906.389	17733
906.506	17615
906.623	17634
906.74	17493
906.857	17372
906.974	17417
907.091	17627
907.208	17703
907.324	17619
907.441	17417
907.557	17197
907.674	17254
907.79	17128
907.907	17136
908.023	17269
908.139	17269
908.256	17288
908.372	17094
908.488	17170
908.604	16984
908.72	16923
908.836	17014
908.952	16949
909.068	16984
909.184	17159
909.3	16995
909.415	17041
909.531	17022
909.647	16809
909.762	16733
909.878	16660
909.993	16626
910.108	16820
910.224	16691
910.339	16672
910.454	16546
910.57	16474
910.685	16413
910.8	16748
910.915	16721
911.03	16516
911.145	16337
911.259	16390
911.374	16421
911.489	16234
911.604	16143
911.718	16013
911.833	16143
911.947	15930
912.062	15823
912.176	15983
912.291	16059
912.405	16044
912.519	16139
912.633	16223
912.748	16131
912.862	15972
912.976	15941
913.09	15816
913.204	15671
913.318	15937
913.431	15994
913.545	15994
913.659	15964
913.772	15873
913.886	15701
914	15686
914.113	15736
914.226	15819
914.34	15720
914.453	15580
914.566	15644
914.68	15572
914.793	15564
914.906	15321
915.019	15264
915.132	15195
915.245	15192
915.358	15245
915.47	15245
915.583	15370
915.696	15302
915.809	15447
915.921	15256
916.034	15256
916.146	15108
916.259	15127
916.371	15214
916.483	15188
916.595	15222
916.708	15100
916.82	15131
916.932	15066
917.044	15074
917.156	14948
917.268	14960
917.38	14872
917.491	14933
917.603	14880
917.715	15028
917.826	14979
917.938	14807
918.049	14800
918.161	14906
918.272	14994
918.384	14956
918.495	14838
918.606	14560
918.717	14674
918.828	14731
918.939	14625
919.05	14556
919.161	14670
919.272	14431
919.383	14518
919.494	14651
919.604	14811
919.715	14659
919.826	14518
919.936	14571
920.047	14750
920.157	14678
920.267	14781
920.378	14655
920.488	14579
920.598	14777
920.708	14872
920.818	14834
920.928	14731
921.038	14804
921.148	14830
921.258	14522
921.368	14374
921.477	14431
921.587	14385
921.697	14214
921.806	14328
921.916	14134
922.025	14039
922.134	13940
922.244	13921
922.353	14035
922.462	13879
922.571	13807
922.68	13696
922.789	13647
922.898	13632
923.007	13552
923.116	13575
923.224	13620
923.333	13510
923.442	13533
923.55	13544
923.659	13388
923.767	13499
923.876	13388
923.984	13540
924.092	13430
924.201	13422
924.309	13331
924.417	13327
924.525	13316
924.633	13354
924.741	14024
924.849	13122
924.956	13285
925.064	13031
925.172	13065
925.279	12973
925.387	13076
925.494	13069
925.602	13160
925.709	13118
925.816	13042
925.924	13004
926.031	13031
926.138	13012
926.245	12993
926.352	12901
926.459	13110
926.566	13053
926.673	12875
926.779	12814
926.886	12760
926.993	12696
927.099	12662
927.206	12612
927.312	12528
927.419	12677
927.525	12608
927.631	12700
927.737	12467
927.843	12479
927.95	12300
928.056	12361
928.162	12399
928.267	12498
928.373	13133
928.479	12551
928.585	12327
928.69	12380
928.796	12429
928.901	12292
929.007	12197
929.112	12262
929.218	12281
929.323	12148
929.428	12091
929.533	12239
929.638	12030
929.743	12167
929.848	12178
929.953	12068
930.058	12068
930.163	11870
930.267	11836
930.372	11984
930.477	11771
930.581	12064
930.685	11920
930.79	11649
930.894	11779
930.998	11722
931.103	11802
931.207	11490
931.311	11410
931.415	11307
931.519	11151
931.623	11048
