Data from test_V78500241_1331.txt Node
Date: Fri Mar 25 15:19:07 CST 2022
User: usil
Spectrometer: V785-0024
Trigger mode: 0
Integration Time (sec): 4.000000E-1
Scans to average: 1
Nonlinearity correction enabled: false
Boxcar width: 0
Storing dark spectrum: false
XAxis mode: Wavelengths
Number of Pixels in Spectrum: 1024
>>>>>Begin Spectral Data<<<<<
801.071	27972
801.214	27922
801.356	27633
801.499	27660
801.641	27492
801.783	27519
801.926	27507
802.068	27450
802.211	27576
802.353	27317
802.496	27351
802.638	27138
802.78	27142
802.923	27135
803.065	27058
803.208	27028
803.35	27108
803.492	27211
803.635	27389
803.777	27199
803.919	27450
804.061	27599
804.204	27412
804.346	27188
804.488	27211
804.63	27355
804.773	27302
804.915	27481
805.057	27481
805.199	27363
805.341	27420
805.483	27564
805.626	27587
805.768	27287
805.91	27386
806.052	27325
806.194	27424
806.336	27694
806.478	27637
806.62	27492
806.762	27656
806.904	27747
807.046	28017
807.188	27838
807.33	27918
807.472	28162
807.614	27964
807.756	27937
807.898	27895
808.04	27774
808.182	27812
808.324	27751
808.465	27911
808.607	28101
808.749	28154
808.891	28162
809.033	28306
809.174	28253
809.316	28051
809.458	28150
809.6	28253
809.741	28322
809.883	28356
810.025	28443
810.166	28573
810.308	28462
810.45	28272
810.591	28272
810.733	28318
810.875	28169
811.016	28006
811.158	28101
811.299	28219
811.441	28253
811.582	28303
811.724	28253
811.865	28154
812.007	28044
812.148	28044
812.29	28135
812.431	28459
812.573	28569
812.714	28580
812.855	28847
812.997	28618
813.138	28961
813.279	28881
813.421	28649
813.562	28641
813.703	28466
813.845	28443
813.986	28204
814.127	28006
814.268	27888
814.41	27823
814.551	27876
814.692	27785
814.833	27686
814.974	27804
815.115	27895
815.256	27743
815.397	27656
815.539	27694
815.68	27572
815.821	27720
815.962	27587
816.103	27774
816.244	27580
816.385	27405
816.526	27336
816.666	27195
816.807	27169
816.948	27218
817.089	27378
817.23	27268
817.371	27138
817.512	27195
817.653	26982
817.793	27157
817.934	27123
818.075	27176
818.216	27195
818.356	27180
818.497	26971
818.638	26849
818.778	26876
818.919	26880
819.06	26990
819.2	27119
819.341	27127
819.481	27131
819.622	27355
819.762	27485
819.903	27416
820.043	27336
820.184	27180
820.324	27260
820.465	27363
820.605	27256
820.746	27131
820.886	27233
821.026	27272
821.167	27211
821.307	27207
821.447	27138
821.588	27135
821.728	26940
821.868	26678
822.008	26674
822.149	26617
822.289	26583
822.429	26442
822.569	26412
822.709	26263
822.849	26275
822.99	26153
823.13	26183
823.27	26157
823.41	25936
823.55	25845
823.69	25913
823.83	25978
823.97	25856
824.11	25856
824.25	25788
824.389	25750
824.529	25879
824.669	25689
824.809	25963
824.949	25845
825.089	25811
825.228	25822
825.368	25670
825.508	25662
825.648	25628
825.787	25689
825.927	25666
826.067	25556
826.206	25613
826.346	25639
826.485	25670
826.625	25613
826.765	25746
826.904	25719
827.044	25479
827.183	25422
827.323	25426
827.462	25460
827.601	25430
827.741	25415
827.88	25301
828.02	25209
828.159	25278
828.298	25266
828.437	25426
828.577	25384
828.716	25392
828.855	25346
828.994	25137
829.134	25015
829.273	25107
829.412	25126
829.551	24928
829.69	25183
829.829	25164
829.968	25168
830.107	25107
830.246	25031
830.385	25008
830.524	24954
830.663	24939
830.802	24741
830.941	24544
831.08	24768
831.219	24852
831.357	24681
831.496	25034
831.635	24665
831.774	24631
831.913	24540
832.051	24498
832.19	24566
832.329	24570
832.467	24490
832.606	24228
832.744	24372
832.883	24315
833.022	24338
833.16	24251
833.299	24486
833.437	24296
833.576	24376
833.714	24433
833.852	24532
833.991	24631
834.129	24509
834.267	24502
834.406	24486
834.544	24403
834.682	24426
834.821	24528
834.959	24627
835.097	24308
835.235	24597
835.373	24330
835.511	24342
835.65	24262
835.788	24201
835.926	24140
836.064	23912
836.202	24133
836.34	24216
836.478	24228
836.615	24235
836.753	24186
836.891	24311
837.029	24308
837.167	24216
837.305	24114
837.443	24174
837.58	24140
837.718	24174
837.856	23992
837.993	23885
838.131	24038
838.269	23912
838.406	24003
838.544	23965
838.681	23726
838.819	23707
838.956	23604
839.094	23497
839.231	23539
839.369	23771
839.506	23908
839.643	23786
839.781	23672
839.918	23577
840.055	23554
840.193	23486
840.33	23429
840.467	23467
840.604	23505
840.742	23729
840.879	23258
841.016	23448
841.153	23353
841.29	23501
841.427	23490
841.564	23493
841.701	23452
841.838	23452
841.975	23296
842.112	23364
842.249	23242
842.385	23250
842.522	23509
842.659	23280
842.796	23109
842.933	23311
843.069	23265
843.206	23231
843.343	23258
843.479	23181
843.616	23151
843.752	22987
843.889	22972
844.025	23075
844.162	23014
844.298	23132
844.435	23022
844.571	22938
844.708	22953
844.844	22957
844.98	22999
845.117	23041
845.253	22923
845.389	22809
845.525	22881
845.661	22847
845.798	22660
845.934	22774
846.07	22721
846.206	22793
846.342	22923
846.478	22641
846.614	22554
846.75	22295
846.886	22500
847.022	22474
847.158	22443
847.294	22466
847.429	22531
847.565	22276
847.701	22713
847.837	22185
847.972	22188
848.108	22188
848.244	22272
848.379	22021
848.515	22124
848.65	22070
848.786	21937
848.921	22112
849.057	21964
849.192	22215
849.328	22082
849.463	22010
849.598	21949
849.734	21869
849.869	21857
850.004	21766
850.14	21998
850.275	21732
850.41	21861
850.545	21759
850.68	21713
850.815	21899
850.95	21793
851.085	21949
851.22	21903
851.355	21755
851.49	21850
851.625	21789
851.76	21800
851.895	21698
852.03	21766
852.165	21846
852.299	21736
852.434	21823
852.569	21819
852.703	21823
852.838	21873
852.973	21907
853.107	21968
853.242	21652
853.376	21564
853.511	21519
853.645	21583
853.78	21842
853.914	21713
854.048	21530
854.183	21641
854.317	21644
854.451	21873
854.585	21606
854.72	21595
854.854	21637
854.988	21572
855.122	21667
855.256	21542
855.39	21534
855.524	21671
855.658	21553
855.792	21534
855.926	21709
856.06	21625
856.194	21648
856.327	21629
856.461	21667
856.595	21660
856.729	21580
856.862	21606
856.996	21701
857.13	21717
857.263	21709
857.397	21690
857.53	21603
857.664	21679
857.797	21679
857.931	21766
858.064	21724
858.197	21724
858.331	21526
858.464	21618
858.597	21564
858.731	21637
858.864	21534
858.997	21603
859.13	21538
859.263	21545
859.396	21701
859.529	21652
859.662	21614
859.795	21644
859.928	21690
860.061	21865
860.194	21766
860.327	21675
860.46	21694
860.592	21709
860.725	21663
860.858	21629
860.99	21637
861.123	21572
861.256	21728
861.388	21690
861.521	22215
861.653	21561
861.786	21332
861.918	21443
862.05	21469
862.183	21557
862.315	21641
862.447	21599
862.58	21545
862.712	21283
862.844	21389
862.976	21370
863.108	21351
863.24	21622
863.372	21180
863.504	21291
863.636	21397
863.768	21397
863.9	21310
864.032	21180
864.164	21264
864.296	21287
864.428	21454
864.559	21386
864.691	21424
864.823	21424
864.954	21450
865.086	21260
865.217	21180
865.349	21222
865.48	21211
865.612	21294
865.743	21435
865.875	21344
866.006	21192
866.137	21214
866.269	21283
866.4	21108
866.531	21188
866.662	21077
866.793	21207
866.924	21036
867.055	21184
867.186	21100
867.317	21116
867.448	20990
867.579	21116
867.71	20910
867.841	21154
867.972	21180
868.103	21275
868.233	21195
868.364	21154
868.495	21260
868.625	21443
868.756	21488
868.886	21412
869.017	21424
869.147	21367
869.278	21431
869.408	21348
869.539	21462
869.669	21447
869.799	21332
869.929	21561
870.06	21382
870.19	21732
870.32	21682
870.45	21717
870.58	21766
870.71	21987
870.84	21888
870.97	21770
871.1	21842
871.23	21850
871.36	21884
871.489	21979
871.619	22048
871.749	21972
871.879	21956
872.008	22006
872.138	22013
872.267	21873
872.397	21949
872.526	21770
872.656	21888
872.785	21888
872.915	22139
873.044	22215
873.173	21979
873.303	22036
873.432	22048
873.561	22067
873.69	21907
873.819	22032
873.948	21987
874.077	22021
874.206	21972
874.335	21880
874.464	22173
874.593	22177
874.722	22276
874.851	22257
874.979	22325
875.108	22150
875.237	22207
875.365	22192
875.494	22131
875.623	22207
875.751	22211
875.88	22291
876.008	22329
876.136	22318
876.265	22721
876.393	22782
876.521	22672
876.65	22668
876.778	22538
876.906	22462
877.034	22626
877.162	22588
877.29	22417
877.418	22588
877.546	22607
877.674	22599
877.802	22569
877.93	22497
878.058	22512
878.185	22622
878.313	22398
878.441	22527
878.568	22409
878.696	22497
878.824	22603
878.951	22668
879.079	22683
879.206	22847
879.333	22900
879.461	22588
879.588	22649
879.715	22664
879.842	22790
879.97	22603
880.097	22371
880.224	22341
880.351	22451
880.478	22531
880.605	22443
880.732	22466
880.859	22694
880.986	22466
881.112	22394
881.239	22246
881.366	22120
881.493	22101
881.619	22013
881.746	21968
881.872	21857
881.999	21915
882.125	21899
882.252	21983
882.378	21899
882.505	22070
882.631	21930
882.757	21690
882.883	21667
883.01	21701
883.136	21637
883.262	21553
883.388	21428
883.514	21724
883.64	21656
883.766	21595
883.892	21431
884.018	21405
884.143	21534
884.269	21622
884.395	21363
884.52	21233
884.646	21348
884.772	21188
884.897	21135
885.023	21298
885.148	21469
885.274	21310
885.399	21500
885.524	21264
885.65	21313
885.775	21336
885.9	21329
886.025	21416
886.15	21279
886.275	21340
886.4	21173
886.525	21188
886.65	21211
886.775	21203
886.9	21199
887.025	21534
887.149	21420
887.274	21020
887.399	21032
887.523	21070
887.648	21055
887.773	20998
887.897	21100
888.021	21104
888.146	20944
888.27	20937
888.395	21058
888.519	21017
888.643	21119
888.767	21089
888.891	20971
889.015	20887
889.139	20819
889.263	20887
889.387	21005
889.511	21077
889.635	21043
889.759	20861
889.883	20872
890.006	20762
890.13	21127
890.254	20724
890.377	20815
890.501	20648
890.624	20549
890.748	20663
890.871	20419
890.995	20347
891.118	20370
891.241	20393
891.364	20454
891.488	20522
891.611	20351
891.734	20526
891.857	20427
891.98	20370
892.103	20362
892.226	20446
892.349	20313
892.471	20134
892.594	20256
892.717	20343
892.839	20385
892.962	20290
893.085	20408
893.207	20301
893.33	20233
893.452	20317
893.575	20328
893.697	20362
893.819	20465
893.941	20609
894.064	20358
894.186	20187
894.308	20183
894.43	20370
894.552	20522
894.674	20408
894.796	20313
894.918	20210
895.04	20256
895.161	20301
895.283	20423
895.405	20240
895.526	20374
895.648	20324
895.769	20362
895.891	20385
896.012	20381
896.134	20389
896.255	20381
896.376	20199
896.498	20252
896.619	20233
896.74	20298
896.861	20206
896.982	20758
897.103	20667
897.224	20583
897.345	20655
897.466	20362
897.587	20492
897.708	20640
897.828	20617
897.949	20393
898.07	20282
898.19	20499
898.311	20590
898.431	20575
898.552	20590
898.672	20568
898.792	20526
898.913	20438
899.033	20492
899.153	20267
899.273	20202
899.393	20328
899.513	20221
899.633	20271
899.753	20218
899.873	20191
899.993	20195
900.113	20176
900.232	20294
900.352	20164
900.472	20157
900.591	20008
900.711	20050
900.83	20012
900.95	20031
901.069	20050
901.189	19925
901.308	19708
901.427	19620
901.546	19643
901.665	19590
901.784	19578
901.904	19529
902.023	19403
902.141	19225
902.26	19088
902.379	19198
902.498	19179
902.617	19091
902.735	19160
902.854	19061
902.973	18993
903.091	18901
903.21	18787
903.328	18791
903.446	18741
903.565	18563
903.683	18623
903.801	18490
903.919	18658
904.038	18517
904.156	18460
904.274	18483
904.392	18399
904.51	18247
904.627	18334
904.745	18414
904.863	18338
904.981	18133
905.098	18083
905.216	17999
905.334	18019
905.451	18076
905.569	18038
905.686	18076
905.803	18007
905.921	17824
906.038	17977
906.155	17783
906.272	17733
906.389	17691
906.506	17608
906.623	17630
906.74	17539
906.857	17452
906.974	17448
907.091	17532
907.208	17680
907.324	17596
907.441	17471
907.557	17417
907.674	17280
907.79	17212
907.907	17292
908.023	17326
908.139	17250
908.256	17345
908.372	17220
908.488	17204
908.604	17067
908.72	17010
908.836	17075
908.952	17022
909.068	17094
909.184	17071
909.3	17010
909.415	17060
909.531	17006
909.647	16759
909.762	16752
909.878	16615
909.993	16710
910.108	16725
910.224	16702
910.339	16679
910.454	16565
910.57	16561
910.685	16402
910.8	16660
910.915	16630
911.03	16516
911.145	16398
911.259	16272
911.374	16329
911.489	16291
911.604	16139
911.718	16055
911.833	16006
911.947	15797
912.062	15915
912.176	16013
912.291	16017
912.405	16116
912.519	16124
912.633	16226
912.748	15994
912.862	16013
912.976	15899
913.09	15766
913.204	15812
913.318	15850
913.431	15972
913.545	15979
913.659	15975
913.772	15869
913.886	15637
914	15656
914.113	15671
914.226	15835
914.34	15736
914.453	15534
914.566	15694
914.68	15523
914.793	15614
914.906	15351
915.019	15359
915.132	15169
915.245	15154
915.358	15241
915.47	15233
915.583	15188
915.696	15275
915.809	15386
915.921	15344
916.034	15233
916.146	15161
916.259	15211
916.371	15233
916.483	15131
916.595	15074
916.708	15150
916.82	15104
916.932	15013
917.044	15077
917.156	14941
917.268	14842
917.38	14998
917.491	14887
917.603	14815
917.715	15089
917.826	14971
917.938	14773
918.049	14727
918.161	14895
918.272	14982
918.384	14937
918.495	14853
918.606	14785
918.717	14655
918.828	14674
918.939	14716
919.05	14537
919.161	14708
919.272	14400
919.383	14454
919.494	14746
919.604	14872
919.715	14651
919.826	14541
919.936	14655
920.047	14689
920.157	14476
920.267	14765
920.378	14495
920.488	14598
920.598	14777
920.708	14895
920.818	14849
920.928	14720
921.038	14899
921.148	14765
921.258	14598
921.368	14488
921.477	14298
921.587	14415
921.697	14301
921.806	14374
921.916	14294
922.025	14115
922.134	14058
922.244	13921
922.353	14084
922.462	13921
922.571	13799
922.68	13624
922.789	13712
922.898	13605
923.007	13556
923.116	13628
923.224	13586
923.333	13563
923.442	13464
923.55	13434
923.659	13510
923.767	13506
923.876	13464
923.984	13449
924.092	13301
924.201	13445
924.309	13358
924.417	13354
924.525	13339
924.633	13304
924.741	14180
924.849	13156
924.956	13194
925.064	13050
925.172	12962
925.279	13065
925.387	13091
925.494	12973
925.602	13164
925.709	13103
925.816	13027
925.924	12943
926.031	13095
926.138	12958
926.245	12977
926.352	12939
926.459	13008
926.566	13027
926.673	12890
926.779	12753
926.886	12806
926.993	12677
927.099	12593
927.206	12555
927.312	12597
927.419	12677
927.525	12673
927.631	12544
927.737	12509
927.843	12532
927.95	12407
928.056	12346
928.162	12418
928.267	12483
928.373	13076
928.479	12448
928.585	12270
928.69	12365
928.796	12395
928.901	12327
929.007	12129
929.112	12308
929.218	12133
929.323	12152
929.428	12117
929.533	12273
929.638	12106
929.743	12114
929.848	12148
929.953	12098
930.058	11965
930.163	11916
930.267	11901
930.372	11965
930.477	11809
930.581	12057
930.685	11805
930.79	11745
930.894	11809
930.998	11699
931.103	11832
931.207	11528
931.311	11398
931.415	11334
931.519	11048
931.623	11045
