Data from test_V78500241_1843.txt Node
Date: Fri Mar 25 15:22:41 CST 2022
User: usil
Spectrometer: V785-0024
Trigger mode: 0
Integration Time (sec): 4.000000E-1
Scans to average: 1
Nonlinearity correction enabled: false
Boxcar width: 0
Storing dark spectrum: false
XAxis mode: Wavelengths
Number of Pixels in Spectrum: 1024
>>>>>Begin Spectral Data<<<<<
801.071	27785
801.214	27656
801.356	27485
801.499	27557
801.641	27237
801.783	27420
801.926	27386
802.068	27412
802.211	27161
802.353	27351
802.496	27081
802.638	27001
802.78	27085
802.923	26940
803.065	26940
803.208	26849
803.35	26876
803.492	27116
803.635	27226
803.777	27074
803.919	27332
804.061	27595
804.204	27325
804.346	27214
804.488	27039
804.63	27154
804.773	27226
804.915	27131
805.057	27249
805.199	27150
805.341	27150
805.483	27420
805.626	27329
805.768	27256
805.91	27291
806.052	27188
806.194	27245
806.336	27599
806.478	27359
806.62	27230
806.762	27260
806.904	27542
807.046	27789
807.188	27686
807.33	27606
807.472	27808
807.614	27720
807.756	27732
807.898	27572
808.04	27591
808.182	27378
808.324	27614
808.465	27648
808.607	27880
808.749	27865
808.891	27983
809.033	28017
809.174	27968
809.316	27994
809.458	27732
809.6	28070
809.741	28192
809.883	28093
810.025	28257
810.166	28226
810.308	28253
810.45	28112
810.591	28048
810.733	27979
810.875	27941
811.016	27759
811.158	27865
811.299	27831
811.441	28055
811.582	27911
811.724	27991
811.865	27857
812.007	27945
812.148	27903
812.29	27914
812.431	28029
812.573	28249
812.714	28257
812.855	28424
812.997	28470
813.138	28805
813.279	28615
813.421	28382
813.562	28417
813.703	28234
813.845	28128
813.986	27903
814.127	27789
814.268	27720
814.41	27591
814.551	27614
814.692	27724
814.833	27595
814.974	27633
815.115	27545
815.256	27629
815.397	27595
815.539	27389
815.68	27405
815.821	27268
815.962	27447
816.103	27378
816.244	27317
816.385	27317
816.526	27291
816.666	27032
816.807	26914
816.948	26944
817.089	27001
817.23	26940
817.371	26864
817.512	26815
817.653	26986
817.793	26731
817.934	26906
818.075	26940
818.216	26788
818.356	26800
818.497	26815
818.638	26590
818.778	26545
818.919	26697
819.06	26552
819.2	26857
819.341	26777
819.481	26804
819.622	26960
819.762	27222
819.903	27154
820.043	27116
820.184	26921
820.324	27062
820.465	27074
820.605	27036
820.746	26944
820.886	26861
821.026	26998
821.167	26937
821.307	27013
821.447	26838
821.588	26895
821.728	26705
821.868	26625
822.008	26301
822.149	26522
822.289	26408
822.429	26126
822.569	25928
822.709	26008
822.849	25955
822.99	25864
823.13	25864
823.27	25814
823.41	25620
823.55	25624
823.69	25582
823.83	25769
823.97	25655
824.11	25441
824.25	25331
824.389	25578
824.529	25624
824.669	25616
824.809	25655
824.949	25506
825.089	25506
825.228	25578
825.368	25365
825.508	25422
825.648	25438
825.787	25339
825.927	25510
826.067	25529
826.206	25289
826.346	25476
826.485	25483
826.625	25354
826.765	25567
826.904	25540
827.044	25217
827.183	25331
827.323	25145
827.462	25202
827.601	25251
827.741	25175
827.88	25179
828.02	25110
828.159	25046
828.298	25145
828.437	24996
828.577	25057
828.716	25168
828.855	25019
828.994	24817
829.134	24844
829.273	25023
829.412	24749
829.551	24871
829.69	24852
829.829	24894
829.968	24890
830.107	25000
830.246	24875
830.385	24677
830.524	24688
830.663	24642
830.802	24604
830.941	24467
831.08	24418
831.219	24563
831.357	24551
831.496	24677
831.635	24532
831.774	24334
831.913	24384
832.051	24247
832.19	24167
832.329	24235
832.467	24072
832.606	24060
832.744	24133
832.883	24007
833.022	24068
833.16	24155
833.299	24015
833.437	24216
833.576	24304
833.714	24209
833.852	24228
833.991	24201
834.129	24277
834.267	24323
834.406	24239
834.544	24155
834.682	24205
834.821	24167
834.959	24338
835.097	24266
835.235	24300
835.373	24258
835.511	24243
835.65	24022
835.788	23912
835.926	23901
836.064	23828
836.202	23878
836.34	24087
836.478	24098
836.615	23992
836.753	24076
836.891	24205
837.029	24041
837.167	23969
837.305	23992
837.443	23866
837.58	23958
837.718	23904
837.856	23821
837.993	23893
838.131	23840
838.269	23691
838.406	23855
838.544	23630
838.681	23516
838.819	23429
838.956	23337
839.094	23318
839.231	23353
839.369	23486
839.506	23718
839.643	23539
839.781	23482
839.918	23277
840.055	23391
840.193	23235
840.33	23299
840.467	23216
840.604	23277
840.742	23543
840.879	23090
841.016	23162
841.153	23083
841.29	23307
841.427	23360
841.564	23239
841.701	23193
841.838	23250
841.975	23102
842.112	23193
842.249	23071
842.385	23052
842.522	23246
842.659	23140
842.796	22949
842.933	23025
843.069	22953
843.206	22984
843.343	23121
843.479	22957
843.616	23052
843.752	22831
843.889	22927
844.025	22889
844.162	22824
844.298	23025
844.435	22790
844.571	22740
844.708	22778
844.844	22987
844.98	22923
845.117	22930
845.253	22660
845.389	22755
845.525	22710
845.661	22721
845.798	22584
845.934	22542
846.07	22637
846.206	22561
846.342	22607
846.478	22470
846.614	22268
846.75	22242
846.886	22386
847.022	22333
847.158	22348
847.294	22394
847.429	22306
847.565	22360
847.701	22504
847.837	22070
847.972	21873
848.108	22116
848.244	22093
848.379	21865
848.515	21819
848.65	21755
848.786	21766
848.921	21846
849.057	21975
849.192	21918
849.328	22055
849.463	21816
849.598	21781
849.734	21743
849.869	21660
850.004	21603
850.14	21561
850.275	21660
850.41	21530
850.545	21519
850.68	21622
850.815	21564
850.95	21686
851.085	21751
851.22	21747
851.355	21709
851.49	21568
851.625	21469
851.76	21557
851.895	21492
852.03	21412
852.165	21618
852.299	21660
852.434	21637
852.569	21622
852.703	21625
852.838	21644
852.973	21770
853.107	21686
853.242	21618
853.376	21367
853.511	21340
853.645	21393
853.78	21576
853.914	21416
854.048	21287
854.183	21515
854.317	21443
854.451	21633
854.585	21477
854.72	21397
854.854	21481
854.988	21298
855.122	21420
855.256	21374
855.39	21469
855.524	21469
855.658	21477
855.792	21424
855.926	21431
856.06	21504
856.194	21564
856.327	21298
856.461	21401
856.595	21481
856.729	21454
856.862	21568
856.996	21488
857.13	21610
857.263	21564
857.397	21580
857.53	21519
857.664	21412
857.797	21462
857.931	21583
858.064	21466
858.197	21595
858.331	21424
858.464	21370
858.597	21389
858.731	21428
858.864	21507
858.997	21344
859.13	21382
859.263	21538
859.396	21488
859.529	21454
859.662	21393
859.795	21443
859.928	21382
860.061	21690
860.194	21557
860.327	21572
860.46	21374
860.592	21637
860.725	21622
860.858	21652
860.99	21572
861.123	21408
861.256	21321
861.388	21557
861.521	22150
861.653	21313
861.786	21249
861.918	21329
862.05	21416
862.183	21370
862.315	21428
862.447	21469
862.58	21412
862.712	21272
862.844	21100
862.976	21351
863.108	21294
863.24	21454
863.372	21127
863.504	21199
863.636	21112
863.768	21188
863.9	21195
864.032	21116
864.164	21150
864.296	21180
864.428	21287
864.559	21260
864.691	21306
864.823	21131
864.954	21066
865.086	21173
865.217	21070
865.349	20982
865.48	20948
865.612	21173
865.743	21207
865.875	21119
866.006	21024
866.137	20998
866.269	21127
866.4	20948
866.531	20963
866.662	20937
866.793	21036
866.924	21104
867.055	21039
867.186	20956
867.317	21081
867.448	20986
867.579	21001
867.71	20868
867.841	20982
867.972	20918
868.103	20975
868.233	21100
868.364	21013
868.495	20975
868.625	21256
868.756	21348
868.886	21283
869.017	21131
869.147	21363
869.278	21310
869.408	21195
869.539	21279
869.669	21230
869.799	21275
869.929	21207
870.06	21340
870.19	21515
870.32	21473
870.45	21663
870.58	21599
870.71	21888
870.84	21743
870.97	21656
871.1	21644
871.23	21876
871.36	21755
871.489	21747
871.619	21679
871.749	21789
871.879	21937
872.008	21888
872.138	21907
872.267	21865
872.397	21656
872.526	21766
872.656	21652
872.785	21622
872.915	21869
873.044	21918
873.173	21751
873.303	21949
873.432	21941
873.561	21895
873.69	21964
873.819	21804
873.948	21869
874.077	21991
874.206	21827
874.335	21808
874.464	21983
874.593	21983
874.722	22029
874.851	22105
874.979	22051
875.108	22166
875.237	21972
875.365	21903
875.494	21956
875.623	22291
875.751	22067
875.88	22048
876.008	22238
876.136	22325
876.265	22611
876.393	22664
876.521	22550
876.65	22557
876.778	22569
876.906	22531
877.034	22405
877.162	22592
877.29	22390
877.418	22497
877.546	22428
877.674	22508
877.802	22367
877.93	22436
878.058	22421
878.185	22276
878.313	22352
878.441	22375
878.568	22169
878.696	22428
878.824	22550
878.951	22596
879.079	22512
879.206	22759
879.333	22565
879.461	22363
879.588	22550
879.715	22622
879.842	22645
879.97	22428
880.097	22223
880.224	22261
880.351	22196
880.478	22306
880.605	22257
880.732	22272
880.859	22466
880.986	22276
881.112	22303
881.239	22101
881.366	22021
881.493	21945
881.619	21873
881.746	21857
881.872	21713
881.999	21732
882.125	21778
882.252	21850
882.378	21751
882.505	21823
882.631	21739
882.757	21610
882.883	21572
883.01	21583
883.136	21428
883.262	21393
883.388	21439
883.514	21466
883.64	21458
883.766	21401
883.892	21176
884.018	21302
884.143	21397
884.269	21606
884.395	21256
884.52	21150
884.646	21180
884.772	21173
884.897	21009
885.023	21157
885.148	21283
885.274	21340
885.399	21203
885.524	21214
885.65	21188
885.775	21207
885.9	21218
886.025	21336
886.15	21165
886.275	21074
886.4	21074
886.525	21093
886.65	21074
886.775	20994
886.9	21321
887.025	21386
887.149	21192
887.274	21001
887.399	20861
887.523	20914
887.648	20864
887.773	20948
887.897	20998
888.021	21009
888.146	21013
888.27	20963
888.395	20963
888.519	20929
888.643	20948
888.767	20994
888.891	20823
889.015	20708
889.139	20826
889.263	20663
889.387	20830
889.511	20910
889.635	20864
889.759	20750
889.883	20689
890.006	20705
890.13	20739
890.254	20571
890.377	20606
890.501	20587
890.624	20495
890.748	20492
890.871	20343
890.995	20275
891.118	20225
891.241	20244
891.364	20290
891.488	20431
891.611	20180
891.734	20286
891.857	20461
891.98	20294
892.103	20313
892.226	20347
892.349	20313
892.471	20103
892.594	20244
892.717	20301
892.839	20130
892.962	20240
893.085	20298
893.207	20187
893.33	20031
893.452	20088
893.575	20347
893.697	20145
893.819	20389
893.941	20358
894.064	20286
894.186	20111
894.308	20111
894.43	20267
894.552	20431
894.674	20237
894.796	20065
894.918	20202
895.04	20111
895.161	20381
895.283	20122
895.405	20172
895.526	20161
895.648	20233
895.769	20142
895.891	20309
896.012	20263
896.134	20252
896.255	20122
896.376	20214
896.498	20214
896.619	20229
896.74	20237
896.861	20332
896.982	20507
897.103	20583
897.224	20427
897.345	20450
897.466	20412
897.587	20351
897.708	20503
897.828	20343
897.949	20240
898.07	20199
898.19	20301
898.311	20492
898.431	20309
898.552	20366
898.672	20438
898.792	20473
898.913	20351
899.033	20126
899.153	20237
899.273	19932
899.393	20084
899.513	20176
899.633	19986
899.753	20142
899.873	20168
899.993	20210
900.113	20077
900.232	20138
900.352	20016
900.472	19959
900.591	19864
900.711	20020
900.83	19788
900.95	19970
901.069	19940
901.189	19818
901.308	19670
901.427	19537
901.546	19552
901.665	19468
901.784	19445
901.904	19392
902.023	19263
902.141	19038
902.26	19053
902.379	19069
902.498	19080
902.617	18954
902.735	19023
902.854	18981
902.973	18909
903.091	18688
903.21	18768
903.328	18559
903.446	18574
903.565	18460
903.683	18536
903.801	18384
903.919	18437
904.038	18441
904.156	18243
904.274	18330
904.392	18243
904.51	18201
904.627	18201
904.745	18266
904.863	18224
904.981	18053
905.098	17912
905.216	17931
905.334	17923
905.451	17977
905.569	17992
905.686	18034
905.803	17916
905.921	17668
906.038	17866
906.155	17756
906.272	17516
906.389	17642
906.506	17524
906.623	17467
906.74	17532
906.857	17337
906.974	17322
907.091	17592
907.208	17592
907.324	17467
907.441	17265
907.557	17208
907.674	17159
907.79	17216
907.907	17200
908.023	17124
908.139	17124
908.256	17090
908.372	16976
908.488	17064
908.604	16869
908.72	16908
908.836	16938
908.952	16816
909.068	16858
909.184	17018
909.3	16904
909.415	16904
909.531	16854
909.647	16641
909.762	16683
909.878	16607
909.993	16702
910.108	16512
910.224	16535
910.339	16497
910.454	16535
910.57	16481
910.685	16424
910.8	16550
910.915	16462
911.03	16375
911.145	16280
911.259	16192
911.374	16093
911.489	16116
911.604	16101
911.718	15926
911.833	15972
911.947	15789
912.062	15823
912.176	15937
912.291	15964
912.405	15937
912.519	16124
912.633	16109
912.748	16021
912.862	15926
912.976	15755
913.09	15720
913.204	15720
913.318	15797
913.431	15918
913.545	15854
913.659	15884
913.772	15755
913.886	15603
914	15523
914.113	15667
914.226	15610
914.34	15603
914.453	15401
914.566	15496
914.68	15458
914.793	15397
914.906	15306
915.019	15222
915.132	15081
915.245	15039
915.358	15142
915.47	15108
915.583	15127
915.696	15077
915.809	15226
915.921	15313
916.034	15127
916.146	15043
916.259	14914
916.371	15195
916.483	15055
916.595	14971
916.708	14994
916.82	14933
916.932	14910
917.044	14887
917.156	14990
917.268	14807
917.38	14819
917.491	14746
917.603	14815
917.715	14800
917.826	14902
917.938	14762
918.049	14701
918.161	14640
918.272	14811
918.384	14845
918.495	14731
918.606	14625
918.717	14549
918.828	14583
918.939	14575
919.05	14465
919.161	14587
919.272	14290
919.383	14438
919.494	14560
919.604	14781
919.715	14492
919.826	14404
919.936	14530
920.047	14613
920.157	14503
920.267	14765
920.378	14488
920.488	14514
920.598	14765
920.708	14807
920.818	14743
920.928	14552
921.038	14708
921.148	14739
921.258	14495
921.368	14286
921.477	14404
921.587	14210
921.697	14050
921.806	14282
921.916	14130
922.025	13849
922.134	13982
922.244	13951
922.353	13955
922.462	13765
922.571	13731
922.68	13613
922.789	13590
922.898	13518
923.007	13499
923.116	13594
923.224	13601
923.333	13506
923.442	13430
923.55	13339
923.659	13384
923.767	13464
923.876	13358
923.984	13422
924.092	13320
924.201	13270
924.309	13297
924.417	13293
924.525	13293
924.633	13213
924.741	14168
924.849	13027
924.956	13126
925.064	12935
925.172	12894
925.279	12989
925.387	12962
925.494	12973
925.602	13072
925.709	13000
925.816	12920
925.924	12886
926.031	12996
926.138	12894
926.245	12985
926.352	12772
926.459	12840
926.566	12989
926.673	12738
926.779	12711
926.886	12681
926.993	12528
927.099	12578
927.206	12456
927.312	12475
927.419	12494
927.525	12582
927.631	12525
927.737	12464
927.843	12433
927.95	12258
928.056	12361
928.162	12258
928.267	12410
928.373	12966
928.479	12414
928.585	12224
928.69	12209
928.796	12365
928.901	12194
929.007	12129
929.112	12171
929.218	12190
929.323	12159
929.428	12083
929.533	12220
929.638	11939
929.743	12038
929.848	12011
929.953	12049
930.058	11923
930.163	11775
930.267	11805
930.372	11843
930.477	11745
930.581	11950
930.685	11840
930.79	11615
930.894	11676
930.998	11638
931.103	11722
931.207	11490
931.311	11288
931.415	11246
931.519	10930
931.623	11060
