Data from test_V78500241_1396.txt Node
Date: Fri Mar 25 15:19:34 CST 2022
User: usil
Spectrometer: V785-0024
Trigger mode: 0
Integration Time (sec): 4.000000E-1
Scans to average: 1
Nonlinearity correction enabled: false
Boxcar width: 0
Storing dark spectrum: false
XAxis mode: Wavelengths
Number of Pixels in Spectrum: 1024
>>>>>Begin Spectral Data<<<<<
801.071	28109
801.214	28051
801.356	27842
801.499	27785
801.641	27603
801.783	27648
801.926	27625
802.068	27728
802.211	27606
802.353	27545
802.496	27439
802.638	27443
802.78	27310
802.923	27233
803.065	27203
803.208	27325
803.35	27359
803.492	27466
803.635	27561
803.777	27401
803.919	27511
804.061	27793
804.204	27622
804.346	27534
804.488	27530
804.63	27435
804.773	27507
804.915	27694
805.057	27743
805.199	27667
805.341	27675
805.483	27816
805.626	27667
805.768	27530
805.91	27675
806.052	27564
806.194	27701
806.336	27770
806.478	27698
806.62	27679
806.762	27831
806.904	27979
807.046	28131
807.188	28078
807.33	28188
807.472	28207
807.614	28067
807.756	28097
807.898	27998
808.04	27991
808.182	27941
808.324	28017
808.465	28021
808.607	28188
808.749	28352
808.891	28535
809.033	28531
809.174	28325
809.316	28276
809.458	28382
809.6	28303
809.741	28481
809.883	28607
810.025	28641
810.166	28588
810.308	28622
810.45	28573
810.591	28519
810.733	28554
810.875	28257
811.016	28287
811.158	28139
811.299	28478
811.441	28538
811.582	28440
811.724	28401
811.865	28379
812.007	28223
812.148	28462
812.29	28367
812.431	28443
812.573	28740
812.714	28824
812.855	28771
812.997	28919
813.138	29117
813.279	28915
813.421	28896
813.562	28862
813.703	28717
813.845	28592
813.986	28314
814.127	28177
814.268	28105
814.41	28116
814.551	28112
814.692	28017
814.833	27949
814.974	27972
815.115	28105
815.256	27945
815.397	27846
815.539	27895
815.68	27926
815.821	27762
815.962	27827
816.103	27770
816.244	27823
816.385	27728
816.526	27606
816.666	27370
816.807	27279
816.948	27298
817.089	27496
817.23	27321
817.371	27393
817.512	27203
817.653	27317
817.793	27165
817.934	27386
818.075	27370
818.216	27302
818.356	27287
818.497	27287
818.638	27028
818.778	27085
818.919	27001
819.06	27192
819.2	27180
819.341	27466
819.481	27336
819.622	27397
819.762	27694
819.903	27629
820.043	27557
820.184	27443
820.324	27462
820.465	27637
820.605	27401
820.746	27264
820.886	27287
821.026	27492
821.167	27386
821.307	27393
821.447	27344
821.588	27340
821.728	27036
821.868	27005
822.008	26891
822.149	26998
822.289	26887
822.429	26533
822.569	26488
822.709	26473
822.849	26328
822.99	26362
823.13	26393
823.27	26381
823.41	26096
823.55	26111
823.69	26119
823.83	26043
823.97	26008
824.11	25917
824.25	25921
824.389	26092
824.529	26050
824.669	26024
824.809	26191
824.949	26058
825.089	26096
825.228	26046
825.368	25909
825.508	25818
825.648	25925
825.787	25769
825.927	25814
826.067	25765
826.206	25841
826.346	25894
826.485	25826
826.625	25784
826.765	25822
826.904	25818
827.044	25548
827.183	25674
827.323	25582
827.462	25567
827.601	25677
827.741	25582
827.88	25533
828.02	25377
828.159	25400
828.298	25567
828.437	25510
828.577	25495
828.716	25506
828.855	25544
828.994	25247
829.134	25194
829.273	25301
829.412	25251
829.551	25171
829.69	25293
829.829	25312
829.968	25434
830.107	25320
830.246	25187
830.385	25122
830.524	25289
830.663	25095
830.802	25027
830.941	24875
831.08	24901
831.219	24958
831.357	24795
831.496	25084
831.635	24821
831.774	24837
831.913	24722
832.051	24738
832.19	24726
832.329	24604
832.467	24589
832.606	24646
832.744	24509
832.883	24547
833.022	24551
833.16	24623
833.299	24650
833.437	24483
833.576	24623
833.714	24464
833.852	24673
833.991	24681
834.129	24601
834.267	24585
834.406	24540
834.544	24677
834.682	24563
834.821	24570
834.959	24768
835.097	24498
835.235	24715
835.373	24494
835.511	24426
835.65	24479
835.788	24452
835.926	24148
836.064	24121
836.202	24266
836.34	24410
836.478	24536
836.615	24338
836.753	24437
836.891	24483
837.029	24460
837.167	24410
837.305	24292
837.443	24281
837.58	24254
837.718	24441
837.856	24220
837.993	24136
838.131	24213
838.269	24060
838.406	24125
838.544	24106
838.681	23999
838.819	23942
838.956	23707
839.094	23748
839.231	23802
839.369	23809
839.506	24087
839.643	23847
839.781	23710
839.918	23805
840.055	23535
840.193	23783
840.33	23661
840.467	23524
840.604	23741
840.742	23840
840.879	23459
841.016	23630
841.153	23478
841.29	23668
841.427	23516
841.564	23657
841.701	23592
841.838	23547
841.975	23433
842.112	23619
842.249	23509
842.385	23406
842.522	23642
842.659	23467
842.796	23296
842.933	23406
843.069	23387
843.206	23242
843.343	23471
843.479	23356
843.616	23341
843.752	23174
843.889	23277
844.025	23216
844.162	23113
844.298	23174
844.435	23178
844.571	23067
844.708	23075
844.844	23265
844.98	23288
845.117	23246
845.253	23006
845.389	22911
845.525	23094
845.661	22991
845.798	22911
845.934	22869
846.07	22839
846.206	22980
846.342	23037
846.478	22915
846.614	22721
846.75	22485
846.886	22611
847.022	22618
847.158	22493
847.294	22618
847.429	22607
847.565	22622
847.701	22812
847.837	22386
847.972	22291
848.108	22409
848.244	22398
848.379	22257
848.515	22188
848.65	22181
848.786	22207
848.921	22128
849.057	22360
849.192	22287
849.328	22192
849.463	22234
849.598	22048
849.734	22097
849.869	21953
850.004	22040
850.14	21979
850.275	21972
850.41	22006
850.545	21831
850.68	21975
850.815	22032
850.95	21979
851.085	22067
851.22	22070
851.355	21918
851.49	22097
851.625	21987
851.76	21926
851.895	21915
852.03	21899
852.165	21960
852.299	22051
852.434	22093
852.569	21857
852.703	21964
852.838	22013
852.973	22139
853.107	22116
853.242	21979
853.376	21808
853.511	21557
853.645	21751
853.78	21831
853.914	21770
854.048	21743
854.183	21819
854.317	21800
854.451	21945
854.585	21850
854.72	21701
854.854	21899
854.988	21667
855.122	21819
855.256	21667
855.39	21804
855.524	21915
855.658	21709
855.792	21789
855.926	21747
856.06	21846
856.194	21968
856.327	21789
856.461	21724
856.595	21694
856.729	21804
856.862	21930
856.996	21869
857.13	21888
857.263	21968
857.397	21899
857.53	21705
857.664	21804
857.797	21793
857.931	21873
858.064	21774
858.197	21861
858.331	21751
858.464	21797
858.597	21789
858.731	21720
858.864	21736
858.997	21819
859.13	21800
859.263	21728
859.396	21797
859.529	21781
859.662	21667
859.795	21701
859.928	21709
860.061	21854
860.194	21941
860.327	21770
860.46	21838
860.592	21895
860.725	22044
860.858	21987
860.99	21728
861.123	21755
861.256	21648
861.388	21759
861.521	22276
861.653	21679
861.786	21652
861.918	21580
862.05	21667
862.183	21732
862.315	21751
862.447	21800
862.58	21667
862.712	21557
862.844	21485
862.976	21523
863.108	21454
863.24	21915
863.372	21526
863.504	21534
863.636	21504
863.768	21580
863.9	21416
864.032	21393
864.164	21492
864.296	21545
864.428	21568
864.559	21644
864.691	21431
864.823	21420
864.954	21488
865.086	21405
865.217	21389
865.349	21241
865.48	21367
865.612	21233
865.743	21488
865.875	21332
866.006	21329
866.137	21348
866.269	21321
866.4	21382
866.531	21355
866.662	21336
866.793	21287
866.924	21306
867.055	21370
867.186	21211
867.317	21279
867.448	21108
867.579	21298
867.71	21275
867.841	21195
867.972	21275
868.103	21348
868.233	21252
868.364	21329
868.495	21397
868.625	21420
868.756	21603
868.886	21412
869.017	21420
869.147	21622
869.278	21641
869.408	21568
869.539	21481
869.669	21759
869.799	21530
869.929	21637
870.06	21557
870.19	21785
870.32	21876
870.45	21918
870.58	21956
870.71	22025
870.84	21934
870.97	21873
871.1	21934
871.23	22070
871.36	22082
871.489	21991
871.619	22128
871.749	22067
871.879	22169
872.008	22246
872.138	22139
872.267	22135
872.397	21987
872.526	21960
872.656	22032
872.785	21888
872.915	22097
873.044	22211
873.173	22120
873.303	22166
873.432	22181
873.561	22196
873.69	22154
873.819	22185
873.948	22303
874.077	22211
874.206	22112
874.335	22177
874.464	22287
874.593	22432
874.722	22306
874.851	22337
874.979	22402
875.108	22417
875.237	22276
875.365	22261
875.494	22265
875.623	22402
875.751	22314
875.88	22356
876.008	22523
876.136	22489
876.265	22721
876.393	22927
876.521	22850
876.65	22877
876.778	22725
876.906	22744
877.034	22774
877.162	22679
877.29	22672
877.418	22656
877.546	22649
877.674	22637
877.802	22767
877.93	22596
878.058	22603
878.185	22607
878.313	22672
878.441	22771
878.568	22622
878.696	22569
878.824	22847
878.951	22801
879.079	22736
879.206	23025
879.333	22862
879.461	22847
879.588	22710
879.715	22793
879.842	23044
879.97	22668
880.097	22565
880.224	22481
880.351	22645
880.478	22519
880.605	22447
880.732	22542
880.859	22752
880.986	22531
881.112	22565
881.239	22322
881.366	22314
881.493	22154
881.619	22097
881.746	22192
881.872	22036
881.999	22048
882.125	21934
882.252	22131
882.378	22040
882.505	22276
882.631	21880
882.757	21827
882.883	21873
883.01	21789
883.136	21648
883.262	21747
883.388	21614
883.514	21720
883.64	21873
883.766	21724
883.892	21553
884.018	21675
884.143	21762
884.269	21717
884.395	21481
884.52	21408
884.646	21473
884.772	21294
884.897	21359
885.023	21496
885.148	21545
885.274	21526
885.399	21488
885.524	21397
885.65	21454
885.775	21439
885.9	21344
886.025	21523
886.15	21401
886.275	21454
886.4	21287
886.525	21321
886.65	21359
886.775	21393
886.9	21629
887.025	21603
887.149	21389
887.274	21370
887.399	21173
887.523	21108
887.648	21146
887.773	21119
887.897	21317
888.021	21173
888.146	21100
888.27	21348
888.395	21287
888.519	21184
888.643	21184
888.767	21241
888.891	21039
889.015	21009
889.139	21093
889.263	20982
889.387	21188
889.511	21192
889.635	21116
889.759	21024
889.883	20963
890.006	20933
890.13	21081
890.254	20910
890.377	20849
890.501	20724
890.624	20648
890.748	20739
890.871	20651
890.995	20598
891.118	20594
891.241	20598
891.364	20530
891.488	20644
891.611	20507
891.734	20499
891.857	20674
891.98	20514
892.103	20575
892.226	20415
892.349	20541
892.471	20256
892.594	20484
892.717	20385
892.839	20408
892.962	20427
893.085	20552
893.207	20454
893.33	20355
893.452	20400
893.575	20488
893.697	20370
893.819	20640
893.941	20541
894.064	20606
894.186	20305
894.308	20298
894.43	20522
894.552	20590
894.674	20518
894.796	20488
894.918	20370
895.04	20427
895.161	20552
895.283	20492
895.405	20362
895.526	20457
895.648	20442
895.769	20434
895.891	20492
896.012	20549
896.134	20488
896.255	20412
896.376	20454
896.498	20400
896.619	20461
896.74	20370
896.861	20415
896.982	20636
897.103	20880
897.224	20659
897.345	20682
897.466	20393
897.587	20670
897.708	20758
897.828	20724
897.949	20640
898.07	20457
898.19	20598
898.311	20739
898.431	20644
898.552	20655
898.672	20735
898.792	20678
898.913	20590
899.033	20560
899.153	20408
899.273	20370
899.393	20290
899.513	20423
899.633	20442
899.753	20450
899.873	20336
899.993	20377
900.113	20362
900.232	20305
900.352	20244
900.472	20157
900.591	20100
900.711	20119
900.83	20035
900.95	20240
901.069	20256
901.189	19997
901.308	19845
901.427	19849
901.546	19784
901.665	19822
901.784	19765
901.904	19674
902.023	19597
902.141	19331
902.26	19282
902.379	19362
902.498	19263
902.617	19168
902.735	19240
902.854	19099
902.973	19114
903.091	18916
903.21	18882
903.328	18970
903.446	18791
903.565	18795
903.683	18730
903.801	18585
903.919	18612
904.038	18688
904.156	18467
904.274	18604
904.392	18494
904.51	18509
904.627	18536
904.745	18559
904.863	18422
904.981	18266
905.098	18182
905.216	18171
905.334	18209
905.451	18171
905.569	18235
905.686	18216
905.803	18148
905.921	17866
906.038	18038
906.155	17988
906.272	17836
906.389	17904
906.506	17661
906.623	17649
906.74	17646
906.857	17585
906.974	17649
907.091	17718
907.208	17847
907.324	17714
907.441	17486
907.557	17524
907.674	17410
907.79	17315
907.907	17463
908.023	17543
908.139	17467
908.256	17307
908.372	17280
908.488	17231
908.604	17159
908.72	17037
908.836	17223
908.952	17022
909.068	17075
909.184	17166
909.3	17231
909.415	17132
909.531	17025
909.647	16862
909.762	16896
909.878	16778
909.993	16820
910.108	16740
910.224	16820
910.339	16885
910.454	16611
910.57	16588
910.685	16546
910.8	16805
910.915	16763
911.03	16615
911.145	16516
911.259	16424
911.374	16379
911.489	16348
911.604	16257
911.718	16181
911.833	16101
911.947	16036
912.062	15934
912.176	16078
912.291	16158
912.405	16128
912.519	16306
912.633	16295
912.748	16196
912.862	15994
912.976	15960
913.09	15934
913.204	15983
913.318	16021
913.431	16082
913.545	16074
913.659	15922
913.772	15854
913.886	15797
914	15759
914.113	15873
914.226	15808
914.34	15819
914.453	15618
914.566	15759
914.68	15652
914.793	15682
914.906	15458
915.019	15496
915.132	15382
915.245	15397
915.358	15393
915.47	15386
915.583	15351
915.696	15416
915.809	15447
915.921	15504
916.034	15348
916.146	15283
916.259	15249
916.371	15302
916.483	15222
916.595	15173
916.708	15169
916.82	15211
916.932	15211
917.044	15180
917.156	15112
917.268	15032
917.38	14948
917.491	15020
917.603	15066
917.715	15017
917.826	15020
917.938	14982
918.049	14853
918.161	14921
918.272	15005
918.384	15051
918.495	14918
918.606	14754
918.717	14689
918.828	14777
918.939	14739
919.05	14651
919.161	14796
919.272	14461
919.383	14602
919.494	14739
919.604	14925
919.715	14712
919.826	14697
919.936	14796
920.047	14804
920.157	14708
920.267	14861
920.378	14712
920.488	14670
920.598	14849
920.708	14952
920.818	14880
920.928	14830
921.038	14952
921.148	14876
921.258	14613
921.368	14579
921.477	14469
921.587	14434
921.697	14221
921.806	14473
921.916	14301
922.025	14145
922.134	14077
922.244	14058
922.353	14180
922.462	13951
922.571	13875
922.68	13776
922.789	13723
922.898	13738
923.007	13677
923.116	13742
923.224	13708
923.333	13677
923.442	13487
923.55	13537
923.659	13601
923.767	13590
923.876	13521
923.984	13582
924.092	13480
924.201	13525
924.309	13335
924.417	13430
924.525	13381
924.633	13419
924.741	14123
924.849	13168
924.956	13301
925.064	13126
925.172	13122
925.279	13206
925.387	13141
925.494	13152
925.602	13209
925.709	13259
925.816	13038
925.924	13031
926.031	13122
926.138	13038
926.245	13080
926.352	12954
926.459	13126
926.566	13088
926.673	12951
926.779	12791
926.886	12795
926.993	12658
927.099	12662
927.206	12589
927.312	12612
927.419	12760
927.525	12779
927.631	12844
927.737	12601
927.843	12570
927.95	12365
928.056	12559
928.162	12475
928.267	12456
928.373	13099
928.479	12585
928.585	12247
928.69	12422
928.796	12494
928.901	12380
929.007	12171
929.112	12357
929.218	12369
929.323	12327
929.428	12136
929.533	12327
929.638	12224
929.743	12209
929.848	12133
929.953	12098
930.058	12106
930.163	11961
930.267	11958
930.372	11999
930.477	11916
930.581	12015
930.685	11923
930.79	11832
930.894	11764
930.998	11726
931.103	11882
931.207	11577
931.311	11547
931.415	11383
931.519	11197
931.623	11193
