Data from test_V78500241_1521.txt Node
Date: Fri Mar 25 15:20:26 CST 2022
User: usil
Spectrometer: V785-0024
Trigger mode: 0
Integration Time (sec): 4.000000E-1
Scans to average: 1
Nonlinearity correction enabled: false
Boxcar width: 0
Storing dark spectrum: false
XAxis mode: Wavelengths
Number of Pixels in Spectrum: 1024
>>>>>Begin Spectral Data<<<<<
801.071	28093
801.214	28154
801.356	27926
801.499	27766
801.641	27667
801.783	27622
801.926	27797
802.068	27747
802.211	27610
802.353	27530
802.496	27458
802.638	27447
802.78	27268
802.923	27275
803.065	27192
803.208	27146
803.35	27249
803.492	27458
803.635	27450
803.777	27268
803.919	27511
804.061	27778
804.204	27618
804.346	27595
804.488	27435
804.63	27534
804.773	27454
804.915	27500
805.057	27568
805.199	27507
805.341	27507
805.483	27648
805.626	27618
805.768	27614
805.91	27709
806.052	27819
806.194	27583
806.336	27774
806.478	27770
806.62	27728
806.762	27911
806.904	27937
807.046	28211
807.188	28044
807.33	28192
807.472	28265
807.614	28074
807.756	28128
807.898	27854
808.04	27884
808.182	28139
808.324	27975
808.465	27987
808.607	28226
808.749	28287
808.891	28421
809.033	28455
809.174	28428
809.316	28344
809.458	28493
809.6	28363
809.741	28462
809.883	28596
810.025	28778
810.166	28710
810.308	28588
810.45	28500
810.591	28535
810.733	28379
810.875	28344
811.016	28185
811.158	28177
811.299	28455
811.441	28546
811.582	28588
811.724	28367
811.865	28401
812.007	28280
812.148	28424
812.29	28447
812.431	28653
812.573	28717
812.714	28725
812.855	28801
812.997	28934
813.138	29113
813.279	29018
813.421	28786
813.562	28946
813.703	28736
813.845	28607
813.986	28303
814.127	28124
814.268	28128
814.41	28082
814.551	28032
814.692	28074
814.833	27892
814.974	27968
815.115	27975
815.256	27869
815.397	27888
815.539	27785
815.68	27934
815.821	27835
815.962	27781
816.103	27903
816.244	27698
816.385	27641
816.526	27644
816.666	27477
816.807	27332
816.948	27367
817.089	27469
817.23	27222
817.371	27291
817.512	27184
817.653	27397
817.793	27199
817.934	27233
818.075	27405
818.216	27374
818.356	27211
818.497	27131
818.638	27036
818.778	27077
818.919	27100
819.06	27138
819.2	27203
819.341	27233
819.481	27351
819.622	27507
819.762	27675
819.903	27644
820.043	27397
820.184	27348
820.324	27447
820.465	27576
820.605	27466
820.746	27523
820.886	27287
821.026	27306
821.167	27336
821.307	27351
821.447	27207
821.588	27192
821.728	27199
821.868	27028
822.008	26899
822.149	26800
822.289	26792
822.429	26598
822.569	26594
822.709	26541
822.849	26358
822.99	26381
823.13	26176
823.27	26122
823.41	26225
823.55	26031
823.69	26233
823.83	26214
823.97	26069
824.11	26058
824.25	25898
824.389	26016
824.529	25917
824.669	25845
824.809	26012
824.949	26134
825.089	26043
825.228	26046
825.368	25734
825.508	25833
825.648	25852
825.787	25963
825.927	25693
826.067	25803
826.206	25727
826.346	25795
826.485	25860
826.625	25841
826.765	25997
826.904	25837
827.044	25586
827.183	25674
827.323	25613
827.462	25537
827.601	25616
827.741	25514
827.88	25651
828.02	25468
828.159	25434
828.298	25552
828.437	25601
828.577	25396
828.716	25613
828.855	25415
828.994	25164
829.134	25289
829.273	25320
829.412	25274
829.551	25244
829.69	25263
829.829	25114
829.968	25278
830.107	25259
830.246	25266
830.385	25175
830.524	25099
830.663	24977
830.802	24878
830.941	24844
831.08	24863
831.219	24947
831.357	24757
831.496	25065
831.635	24840
831.774	24772
831.913	24726
832.051	24597
832.19	24544
832.329	24585
832.467	24578
832.606	24426
832.744	24582
832.883	24559
833.022	24452
833.16	24486
833.299	24547
833.437	24532
833.576	24585
833.714	24597
833.852	24536
833.991	24639
834.129	24589
834.267	24711
834.406	24452
834.544	24604
834.682	24494
834.821	24517
834.959	24719
835.097	24490
835.235	24707
835.373	24532
835.511	24490
835.65	24380
835.788	24437
835.926	24296
836.064	24232
836.202	24144
836.34	24376
836.478	24525
836.615	24479
836.753	24452
836.891	24563
837.029	24296
837.167	24372
837.305	24262
837.443	24243
837.58	24285
837.718	24361
837.856	24235
837.993	24285
838.131	24220
838.269	24076
838.406	24182
838.544	23984
838.681	23847
838.819	23790
838.956	23741
839.094	23813
839.231	23649
839.369	23885
839.506	24053
839.643	23878
839.781	23718
839.918	23752
840.055	23733
840.193	23649
840.33	23528
840.467	23592
840.604	23680
840.742	23847
840.879	23512
841.016	23516
841.153	23474
841.29	23646
841.427	23661
841.564	23687
841.701	23551
841.838	23608
841.975	23630
842.112	23551
842.249	23440
842.385	23379
842.522	23531
842.659	23311
842.796	23379
842.933	23433
843.069	23376
843.206	23376
843.343	23379
843.479	23315
843.616	23387
843.752	23094
843.889	23124
844.025	23231
844.162	23064
844.298	23246
844.435	23018
844.571	22987
844.708	23239
844.844	23322
844.98	23136
845.117	23265
845.253	23132
845.389	22957
845.525	23048
845.661	22949
845.798	22771
845.934	22904
846.07	22881
846.206	22858
846.342	22930
846.478	22744
846.614	22713
846.75	22550
846.886	22599
847.022	22622
847.158	22592
847.294	22504
847.429	22653
847.565	22546
847.701	22679
847.837	22291
847.972	22371
848.108	22432
848.244	22306
848.379	22169
848.515	22158
848.65	22215
848.786	22238
848.921	22215
849.057	22200
849.192	22253
849.328	22135
849.463	22154
849.598	22143
849.734	22120
849.869	22124
850.004	22006
850.14	21907
850.275	21945
850.41	21907
850.545	21869
850.68	21899
850.815	21994
850.95	21880
851.085	22188
851.22	21953
851.355	21991
851.49	21956
851.625	21915
851.76	21926
851.895	21880
852.03	21850
852.165	21827
852.299	21941
852.434	21911
852.569	21911
852.703	21994
852.838	22025
852.973	21991
853.107	22029
853.242	21873
853.376	21762
853.511	21698
853.645	21652
853.78	21804
853.914	21778
854.048	21713
854.183	21701
854.317	21827
854.451	21934
854.585	21804
854.72	21739
854.854	21880
854.988	21648
855.122	21759
855.256	21789
855.39	21781
855.524	21781
855.658	21785
855.792	21762
855.926	21705
856.06	21838
856.194	21728
856.327	21747
856.461	21778
856.595	21656
856.729	21682
856.862	21819
856.996	21739
857.13	21720
857.263	21751
857.397	21895
857.53	21774
857.664	21770
857.797	21884
857.931	21926
858.064	21819
858.197	21880
858.331	21831
858.464	21728
858.597	21587
858.731	21770
858.864	21774
858.997	21873
859.13	21739
859.263	21694
859.396	21838
859.529	21751
859.662	21652
859.795	21781
859.928	21739
860.061	21804
860.194	21934
860.327	21793
860.46	21850
860.592	21884
860.725	22044
860.858	21793
860.99	21759
861.123	21603
861.256	21781
861.388	21724
861.521	22493
861.653	21572
861.786	21545
861.918	21637
862.05	21583
862.183	21648
862.315	21660
862.447	21698
862.58	21610
862.712	21435
862.844	21458
862.976	21656
863.108	21561
863.24	21850
863.372	21359
863.504	21447
863.636	21431
863.768	21515
863.9	21553
864.032	21389
864.164	21412
864.296	21507
864.428	21675
864.559	21507
864.691	21641
864.823	21576
864.954	21530
865.086	21523
865.217	21439
865.349	21226
865.48	21363
865.612	21405
865.743	21435
865.875	21313
866.006	21351
866.137	21298
866.269	21310
866.4	21355
866.531	21321
866.662	21450
866.793	21252
866.924	21233
867.055	21386
867.186	21249
867.317	21264
867.448	21268
867.579	21230
867.71	21370
867.841	21142
867.972	21188
868.103	21192
868.233	21367
868.364	21317
868.495	21454
868.625	21526
868.756	21587
868.886	21454
869.017	21603
869.147	21694
869.278	21709
869.408	21507
869.539	21507
869.669	21580
869.799	21686
869.929	21663
870.06	21656
870.19	21785
870.32	21755
870.45	21956
870.58	21926
870.71	21991
870.84	21960
870.97	21945
871.1	21892
871.23	22017
871.36	21972
871.489	22032
871.619	22029
871.749	22131
871.879	22082
872.008	22238
872.138	22070
872.267	22192
872.397	22021
872.526	21861
872.656	21915
872.785	21876
872.915	22154
873.044	22322
873.173	22112
873.303	22105
873.432	22219
873.561	22348
873.69	22109
873.819	22032
873.948	22230
874.077	22124
874.206	21972
874.335	22219
874.464	22223
874.593	22284
874.722	22295
874.851	22295
874.979	22352
875.108	22432
875.237	22299
875.365	22177
875.494	22363
875.623	22455
875.751	22230
875.88	22344
876.008	22519
876.136	22565
876.265	22736
876.393	22858
876.521	22713
876.65	22683
876.778	22752
876.906	22691
877.034	22557
877.162	22854
877.29	22615
877.418	22774
877.546	22763
877.674	22691
877.802	22668
877.93	22687
878.058	22615
878.185	22596
878.313	22569
878.441	22691
878.568	22554
878.696	22656
878.824	22645
878.951	22801
879.079	22767
879.206	23018
879.333	22949
879.461	22698
879.588	22854
879.715	22980
879.842	22892
879.97	22721
880.097	22447
880.224	22550
880.351	22519
880.478	22596
880.605	22470
880.732	22428
880.859	22809
880.986	22409
881.112	22538
881.239	22363
881.366	22310
881.493	22185
881.619	22120
881.746	22181
881.872	22048
881.999	21987
882.125	22070
882.252	22070
882.378	22036
882.505	22147
882.631	21937
882.757	21732
882.883	21865
883.01	21717
883.136	21797
883.262	21652
883.388	21542
883.514	21861
883.64	21835
883.766	21747
883.892	21515
884.018	21530
884.143	21705
884.269	21823
884.395	21469
884.52	21359
884.646	21477
884.772	21447
884.897	21279
885.023	21439
885.148	21553
885.274	21557
885.399	21462
885.524	21389
885.65	21386
885.775	21420
885.9	21466
886.025	21538
886.15	21542
886.275	21416
886.4	21260
886.525	21431
886.65	21416
886.775	21443
886.9	21526
887.025	21591
887.149	21355
887.274	21287
887.399	21214
887.523	21173
887.648	21108
887.773	21214
887.897	21283
888.021	21272
888.146	21135
888.27	21294
888.395	21195
888.519	21325
888.643	21180
888.767	21176
888.891	21047
889.015	20971
889.139	20998
889.263	21005
889.387	21199
889.511	21207
889.635	21051
889.759	21009
889.883	20952
890.006	21017
890.13	21077
890.254	20819
890.377	20853
890.501	20762
890.624	20678
890.748	20743
890.871	20674
890.995	20541
891.118	20480
891.241	20511
891.364	20537
891.488	20640
891.611	20507
891.734	20689
891.857	20568
891.98	20560
892.103	20522
892.226	20590
892.349	20461
892.471	20396
892.594	20476
892.717	20286
892.839	20389
892.962	20434
893.085	20499
893.207	20393
893.33	20282
893.452	20305
893.575	20488
893.697	20454
893.819	20564
893.941	20583
894.064	20499
894.186	20305
894.308	20370
894.43	20514
894.552	20552
894.674	20530
894.796	20210
894.918	20324
895.04	20396
895.161	20522
895.283	20419
895.405	20385
895.526	20507
895.648	20450
895.769	20446
895.891	20396
896.012	20431
896.134	20507
896.255	20294
896.376	20450
896.498	20480
896.619	20442
896.74	20446
896.861	20465
896.982	20842
897.103	20906
897.224	20735
897.345	20697
897.466	20556
897.587	20518
897.708	20739
897.828	20583
897.949	20590
898.07	20594
898.19	20545
898.311	20644
898.431	20568
898.552	20655
898.672	20533
898.792	20655
898.913	20545
899.033	20526
899.153	20404
899.273	20381
899.393	20385
899.513	20408
899.633	20438
899.753	20465
899.873	20309
899.993	20389
900.113	20320
900.232	20317
900.352	20294
900.472	20172
900.591	20183
900.711	20191
900.83	20065
900.95	20313
901.069	20191
901.189	20043
901.308	19780
901.427	19750
901.546	19674
901.665	19677
901.784	19727
901.904	19594
902.023	19472
902.141	19274
902.26	19346
902.379	19274
902.498	19259
902.617	19187
902.735	19297
902.854	19160
902.973	19171
903.091	18829
903.21	18970
903.328	18913
903.446	18875
903.565	18726
903.683	18707
903.801	18627
903.919	18684
904.038	18734
904.156	18601
904.274	18494
904.392	18422
904.51	18414
904.627	18433
904.745	18597
904.863	18536
904.981	18296
905.098	18091
905.216	18125
905.334	18197
905.451	18182
905.569	18133
905.686	18182
905.803	18095
905.921	17901
906.038	17939
906.155	17961
906.272	17878
906.389	17897
906.506	17775
906.623	17646
906.74	17649
906.857	17589
906.974	17714
907.091	17687
907.208	17760
907.324	17687
907.441	17699
907.557	17497
907.674	17490
907.79	17345
907.907	17284
908.023	17406
908.139	17299
908.256	17326
908.372	17296
908.488	17239
908.604	17140
908.72	17067
908.836	17060
908.952	17105
909.068	17086
909.184	17143
909.3	17094
909.415	17094
909.531	17132
909.647	16919
909.762	16767
909.878	16805
909.993	16862
910.108	16824
910.224	16752
910.339	16725
910.454	16691
910.57	16603
910.685	16554
910.8	16793
910.915	16755
911.03	16573
911.145	16417
911.259	16360
911.374	16421
911.489	16280
911.604	16284
911.718	16223
911.833	16188
911.947	16048
912.062	15903
912.176	16135
912.291	16139
912.405	16207
912.519	16306
912.633	16436
912.748	16109
912.862	16188
912.976	16010
913.09	15918
913.204	15915
913.318	16048
913.431	16071
913.545	15934
913.659	15956
913.772	15907
913.886	15732
914	15778
914.113	15808
914.226	15823
914.34	15816
914.453	15622
914.566	15751
914.68	15652
914.793	15652
914.906	15488
915.019	15382
915.132	15275
915.245	15382
915.358	15389
915.47	15306
915.583	15287
915.696	15382
915.809	15420
915.921	15416
916.034	15329
916.146	15218
916.259	15131
916.371	15340
916.483	15283
916.595	15188
916.708	15230
916.82	15188
916.932	15199
917.044	15214
917.156	15180
917.268	14929
917.38	15081
917.491	14944
917.603	14944
917.715	14986
917.826	15058
917.938	14933
918.049	14857
918.161	15009
918.272	15028
918.384	15032
918.495	14887
918.606	14826
918.717	14716
918.828	14769
918.939	14724
919.05	14727
919.161	14678
919.272	14537
919.383	14693
919.494	14701
919.604	14880
919.715	14701
919.826	14636
919.936	14613
920.047	14739
920.157	14667
920.267	14895
920.378	14716
920.488	14522
920.598	14933
920.708	15024
920.818	14834
920.928	14788
921.038	14876
921.148	14807
921.258	14674
921.368	14552
921.477	14488
921.587	14408
921.697	14286
921.806	14415
921.916	14294
922.025	14183
922.134	14088
922.244	14020
922.353	14081
922.462	14016
922.571	13921
922.68	13769
922.789	13643
922.898	13731
923.007	13662
923.116	13715
923.224	13715
923.333	13651
923.442	13499
923.55	13578
923.659	13609
923.767	13624
923.876	13426
923.984	13586
924.092	13400
924.201	13529
924.309	13521
924.417	13426
924.525	13365
924.633	13426
924.741	14145
924.849	13209
924.956	13285
925.064	13152
925.172	13088
925.279	13046
925.387	13095
925.494	13126
925.602	13247
925.709	13149
925.816	13008
925.924	13072
926.031	13221
926.138	13008
926.245	13000
926.352	12954
926.459	13069
926.566	13065
926.673	12966
926.779	12859
926.886	12890
926.993	12681
927.099	12612
927.206	12635
927.312	12738
927.419	12768
927.525	12627
927.631	12749
927.737	12585
927.843	12456
927.95	12471
928.056	12521
928.162	12555
928.267	12471
928.373	13110
928.479	12540
928.585	12342
928.69	12452
928.796	12506
928.901	12429
929.007	12163
929.112	12433
929.218	12296
929.323	12330
929.428	12228
929.533	12353
929.638	12197
929.743	12098
929.848	12175
929.953	12190
930.058	12034
930.163	11836
930.267	11927
930.372	11954
930.477	11859
930.581	12148
930.685	11977
930.79	11824
930.894	11851
930.998	11722
931.103	11828
931.207	11657
931.311	11402
931.415	11398
931.519	11064
931.623	11159
