Data from test_V78500241_410.txt Node
Date: Fri Mar 25 15:12:42 CST 2022
User: usil
Spectrometer: V785-0024
Trigger mode: 0
Integration Time (sec): 4.000000E-1
Scans to average: 1
Nonlinearity correction enabled: false
Boxcar width: 0
Storing dark spectrum: false
XAxis mode: Wavelengths
Number of Pixels in Spectrum: 1024
>>>>>Begin Spectral Data<<<<<
801.071	27135
801.214	27116
801.356	26838
801.499	26796
801.641	26670
801.783	26651
801.926	26701
802.068	26773
802.211	26522
802.353	26450
802.496	26393
802.638	26400
802.78	26267
802.923	26351
803.065	26168
803.208	26145
803.35	26290
803.492	26404
803.635	26552
803.777	26385
803.919	26522
804.061	26785
804.204	26465
804.346	26332
804.488	26358
804.63	26522
804.773	26332
804.915	26465
805.057	26739
805.199	26442
805.341	26590
805.483	26632
805.626	26549
805.768	26351
805.91	26609
806.052	26552
806.194	26522
806.336	26697
806.478	26625
806.62	26678
806.762	26705
806.904	26758
807.046	27119
807.188	27009
807.33	26921
807.472	26887
807.614	27020
807.756	26940
807.898	26762
808.04	26716
808.182	26868
808.324	26819
808.465	26811
808.607	27058
808.749	27055
808.891	27192
809.033	27401
809.174	27214
809.316	27233
809.458	27176
809.6	27275
809.741	27344
809.883	27268
810.025	27348
810.166	27462
810.308	27351
810.45	27439
810.591	27431
810.733	27306
810.875	27119
811.016	27001
811.158	27211
811.299	27264
811.441	27340
811.582	27298
811.724	27116
811.865	27074
812.007	27161
812.148	27150
812.29	27154
812.431	27192
812.573	27443
812.714	27542
812.855	27789
812.997	27884
813.138	27930
813.279	27804
813.421	27656
813.562	27652
813.703	27477
813.845	27325
813.986	27135
814.127	26975
814.268	26883
814.41	26727
814.551	26861
814.692	26872
814.833	26697
814.974	26693
815.115	26781
815.256	26765
815.397	26651
815.539	26670
815.68	26655
815.821	26724
815.962	26727
816.103	26621
816.244	26374
816.385	26579
816.526	26374
816.666	26180
816.807	26172
816.948	26256
817.089	26263
817.23	26096
817.371	26096
817.512	26039
817.653	26027
817.793	25864
817.934	26031
818.075	26062
818.216	26134
818.356	26012
818.497	26058
818.638	25871
818.778	25788
818.919	25887
819.06	25913
819.2	26046
819.341	26035
819.481	26134
819.622	26180
819.762	26415
819.903	26370
820.043	26298
820.184	26320
820.324	26214
820.465	26225
820.605	26256
820.746	26176
820.886	26149
821.026	26263
821.167	26096
821.307	26244
821.447	26043
821.588	26020
821.728	25769
821.868	25788
822.008	25548
822.149	25590
822.289	25556
822.429	25217
822.569	25297
822.709	25209
822.849	25046
822.99	25069
823.13	25012
823.27	24992
823.41	25004
823.55	24924
823.69	24814
823.83	24867
823.97	24814
824.11	24681
824.25	24726
824.389	24669
824.529	24821
824.669	24688
824.809	24738
824.949	24753
825.089	24692
825.228	24814
825.368	24585
825.508	24673
825.648	24460
825.787	24604
825.927	24734
826.067	24517
826.206	24563
826.346	24513
826.485	24646
826.625	24505
826.765	24696
826.904	24532
827.044	24243
827.183	24357
827.323	24239
827.462	24350
827.601	24251
827.741	24232
827.88	24429
828.02	24098
828.159	24258
828.298	24391
828.437	24346
828.577	24266
828.716	24441
828.855	24182
828.994	23866
829.134	24064
829.273	24011
829.412	23916
829.551	23942
829.69	24018
829.829	24038
829.968	23973
830.107	24022
830.246	24057
830.385	23843
830.524	23984
830.663	23802
830.802	23790
830.941	23573
831.08	23566
831.219	23783
831.357	23551
831.496	23855
831.635	23604
831.774	23505
831.913	23471
832.051	23387
832.19	23425
832.329	23414
832.467	23231
832.606	23311
832.744	23216
832.883	23353
833.022	23258
833.16	23349
833.299	23398
833.437	23356
833.576	23360
833.714	23284
833.852	23421
833.991	23383
834.129	23482
834.267	23269
834.406	23185
834.544	23315
834.682	23345
834.821	23284
834.959	23478
835.097	23364
835.235	23334
835.373	23463
835.511	23414
835.65	23261
835.788	23345
835.926	22972
836.064	23056
836.202	23090
836.34	23117
836.478	23349
836.615	23212
836.753	23307
836.891	23299
837.029	23277
837.167	23208
837.305	23132
837.443	23094
837.58	23067
837.718	23166
837.856	23132
837.993	22946
838.131	23140
838.269	22850
838.406	22980
838.544	22873
838.681	22767
838.819	22611
838.956	22447
839.094	22516
839.231	22645
839.369	22809
839.506	22881
839.643	22733
839.781	22596
839.918	22516
840.055	22557
840.193	22493
840.33	22478
840.467	22436
840.604	22497
840.742	22835
840.879	22322
841.016	22402
841.153	22337
841.29	22523
841.427	22569
841.564	22538
841.701	22436
841.838	22421
841.975	22360
842.112	22306
842.249	22291
842.385	22070
842.522	22390
842.659	22192
842.796	22219
842.933	22261
843.069	22215
843.206	22265
843.343	22280
843.479	22124
843.616	22341
843.752	22093
843.889	22063
844.025	22173
844.162	22017
844.298	22101
844.435	21983
844.571	22021
844.708	22044
844.844	22169
844.98	22177
845.117	22032
845.253	21991
845.389	22010
845.525	21956
845.661	21876
845.798	21831
845.934	21694
846.07	21819
846.206	21873
846.342	21766
846.478	21781
846.614	21652
846.75	21393
846.886	21492
847.022	21492
847.158	21504
847.294	21466
847.429	21610
847.565	21454
847.701	21857
847.837	21260
847.972	21211
848.108	21325
848.244	21310
848.379	21184
848.515	21070
848.65	21138
848.786	21039
848.921	21142
849.057	21298
849.192	21131
849.328	21085
849.463	21058
849.598	21036
849.734	21047
849.869	20842
850.004	20883
850.14	20849
850.275	20796
850.41	20701
850.545	20804
850.68	20800
850.815	20765
850.95	20868
851.085	20982
851.22	20838
851.355	20762
851.49	20933
851.625	20724
851.76	20819
851.895	20712
852.03	20773
852.165	20826
852.299	20880
852.434	20994
852.569	20937
852.703	20994
852.838	20830
852.973	20994
853.107	20902
853.242	20731
853.376	20678
853.511	20648
853.645	20724
853.78	20899
853.914	20788
854.048	20594
854.183	20689
854.317	20617
854.451	20743
854.585	20511
854.72	20648
854.854	20712
854.988	20701
855.122	20686
855.256	20526
855.39	20667
855.524	20830
855.658	20781
855.792	20697
855.926	20807
856.06	20807
856.194	20697
856.327	20617
856.461	20575
856.595	20724
856.729	20609
856.862	20788
856.996	20743
857.13	20769
857.263	20765
857.397	20834
857.53	20629
857.664	20659
857.797	20826
857.931	20712
858.064	20693
858.197	20769
858.331	20617
858.464	20590
858.597	20503
858.731	20724
858.864	20632
858.997	20575
859.13	20598
859.263	20758
859.396	20826
859.529	20705
859.662	20609
859.795	20758
859.928	20609
860.061	20921
860.194	20883
860.327	20667
860.46	20651
860.592	20701
860.725	20857
860.858	20845
860.99	20602
861.123	20667
861.256	20727
861.388	20667
861.521	21393
861.653	20488
861.786	20476
861.918	20549
862.05	20716
862.183	20507
862.315	20644
862.447	20716
862.58	20602
862.712	20282
862.844	20457
862.976	20541
863.108	20511
863.24	20910
863.372	20317
863.504	20438
863.636	20461
863.768	20454
863.9	20351
864.032	20229
864.164	20358
864.296	20427
864.428	20469
864.559	20514
864.691	20438
864.823	20347
864.954	20393
865.086	20446
865.217	20366
865.349	20183
865.48	20233
865.612	20267
865.743	20457
865.875	20256
866.006	20168
866.137	20336
866.269	20233
866.4	20267
866.531	20336
866.662	20221
866.793	20263
866.924	20199
867.055	20202
867.186	20233
867.317	20172
867.448	20157
867.579	20122
867.71	20206
867.841	20168
867.972	20210
868.103	20317
868.233	20180
868.364	20111
868.495	20263
868.625	20469
868.756	20625
868.886	20389
869.017	20495
869.147	20564
869.278	20511
869.408	20598
869.539	20473
869.669	20526
869.799	20571
869.929	20587
870.06	20693
870.19	20807
870.32	20826
870.45	20861
870.58	20861
870.71	20994
870.84	20994
870.97	20819
871.1	20880
871.23	21039
871.36	21169
871.489	21028
871.619	20994
871.749	21009
871.879	21096
872.008	21081
872.138	21112
872.267	21108
872.397	20895
872.526	20925
872.656	21074
872.785	20941
872.915	21157
873.044	21096
873.173	21165
873.303	21123
873.432	21051
873.561	21188
873.69	21157
873.819	21077
873.948	21237
874.077	21032
874.206	21066
874.335	21074
874.464	21203
874.593	21275
874.722	21283
874.851	21359
874.979	21298
875.108	21481
875.237	21268
875.365	21272
875.494	21230
875.623	21359
875.751	21264
875.88	21306
876.008	21473
876.136	21534
876.265	21679
876.393	21922
876.521	21778
876.65	21816
876.778	21660
876.906	21610
877.034	21648
877.162	21652
877.29	21720
877.418	21770
877.546	21690
877.674	21694
877.802	21766
877.93	21690
878.058	21663
878.185	21504
878.313	21625
878.441	21629
878.568	21549
878.696	21656
878.824	21705
878.951	21819
879.079	21778
879.206	21922
879.333	21850
879.461	21793
879.588	21774
879.715	21873
879.842	22067
879.97	21816
880.097	21610
880.224	21473
880.351	21530
880.478	21572
880.605	21511
880.732	21591
880.859	21759
880.986	21553
881.112	21625
881.239	21447
881.366	21192
881.493	21112
881.619	21085
881.746	21138
881.872	21176
881.999	21161
882.125	20998
882.252	21249
882.378	21055
882.505	21131
882.631	20979
882.757	20765
882.883	20929
883.01	20849
883.136	20762
883.262	20800
883.388	20651
883.514	20880
883.64	20788
883.766	20762
883.892	20537
884.018	20644
884.143	20735
884.269	20807
884.395	20488
884.52	20461
884.646	20404
884.772	20457
884.897	20374
885.023	20423
885.148	20507
885.274	20678
885.399	20533
885.524	20488
885.65	20442
885.775	20393
885.9	20461
886.025	20659
886.15	20446
886.275	20427
886.4	20351
886.525	20396
886.65	20393
886.775	20377
886.9	20404
887.025	20571
887.149	20446
887.274	20317
887.399	20221
887.523	20309
887.648	20100
887.773	20202
887.897	20278
888.021	20237
888.146	20115
888.27	20282
888.395	20301
888.519	20248
888.643	20256
888.767	20252
888.891	20172
889.015	20218
889.139	20081
889.263	19936
889.387	20100
889.511	20278
889.635	20081
889.759	19947
889.883	20005
890.006	20069
890.13	20176
890.254	19947
890.377	19978
890.501	19921
890.624	19753
890.748	19879
890.871	19746
890.995	19616
891.118	19506
891.241	19628
891.364	19632
891.488	19738
891.611	19613
891.734	19499
891.857	19647
891.98	19518
892.103	19552
892.226	19632
892.349	19601
892.471	19343
892.594	19670
892.717	19514
892.839	19578
892.962	19506
893.085	19544
893.207	19575
893.33	19396
893.452	19441
893.575	19635
893.697	19537
893.819	19628
893.941	19597
894.064	19689
894.186	19381
894.308	19388
894.43	19563
894.552	19727
894.674	19613
894.796	19506
894.918	19514
895.04	19510
895.161	19632
895.283	19495
895.405	19514
895.526	19472
895.648	19502
895.769	19609
895.891	19502
896.012	19586
896.134	19689
896.255	19582
896.376	19556
896.498	19480
896.619	19563
896.74	19514
896.861	19567
896.982	19879
897.103	19947
897.224	19811
897.345	19753
897.466	19689
897.587	19822
897.708	19864
897.828	19841
897.949	19791
898.07	19582
898.19	19677
898.311	19795
898.431	19708
898.552	19803
898.672	19890
898.792	19864
898.913	19791
899.033	19655
899.153	19639
899.273	19533
899.393	19502
899.513	19559
899.633	19620
899.753	19563
899.873	19441
899.993	19590
900.113	19491
900.232	19529
900.352	19487
900.472	19324
900.591	19301
900.711	19251
900.83	19343
900.95	19324
901.069	19483
901.189	19274
901.308	18977
901.427	18787
901.546	18909
901.665	18916
901.784	18871
901.904	18791
902.023	18631
902.141	18460
902.26	18486
902.379	18528
902.498	18429
902.617	18300
902.735	18433
902.854	18357
902.973	18258
903.091	18117
903.21	18022
903.328	18003
903.446	17996
903.565	17920
903.683	18030
903.801	17866
903.919	17863
904.038	17775
904.156	17741
904.274	17760
904.392	17665
904.51	17634
904.627	17573
904.745	17638
904.863	17615
904.981	17452
905.098	17341
905.216	17402
905.334	17353
905.451	17429
905.569	17349
905.686	17425
905.803	17303
905.921	17220
906.038	17231
906.155	17204
906.272	16991
906.389	17117
906.506	16873
906.623	16980
906.74	16911
906.857	16850
906.974	16805
907.091	16949
907.208	17006
907.324	16911
907.441	16850
907.557	16706
907.674	16710
907.79	16466
907.907	16660
908.023	16592
908.139	16592
908.256	16611
908.372	16512
908.488	16474
908.604	16424
908.72	16333
908.836	16421
908.952	16177
909.068	16325
909.184	16417
909.3	16325
909.415	16417
909.531	16291
909.647	16150
909.762	15979
909.878	16059
909.993	16128
910.108	16017
910.224	15945
910.339	15964
910.454	15922
910.57	15793
910.685	15743
910.8	16196
910.915	16044
911.03	15835
911.145	15671
911.259	15644
911.374	15690
911.489	15576
911.604	15545
911.718	15439
911.833	15405
911.947	15260
912.062	15233
912.176	15340
912.291	15374
912.405	15378
912.519	15492
912.633	15523
912.748	15386
912.862	15443
912.976	15157
913.09	15039
913.204	15154
913.318	15302
913.431	15287
913.545	15275
913.659	15283
913.772	15184
913.886	15093
914	15005
914.113	15157
914.226	15218
914.34	15100
914.453	14941
914.566	15077
914.68	14948
914.793	14975
914.906	14731
915.019	14667
915.132	14640
915.245	14640
915.358	14716
915.47	14708
915.583	14625
915.696	14648
915.809	14857
915.921	14800
916.034	14613
916.146	14541
916.259	14488
916.371	14648
916.483	14564
916.595	14457
916.708	14503
916.82	14541
916.932	14514
917.044	14461
917.156	14275
917.268	14339
917.38	14301
917.491	14320
917.603	14259
917.715	14366
917.826	14351
917.938	14324
918.049	14126
918.161	14305
918.272	14328
918.384	14396
918.495	14252
918.606	14123
918.717	14050
918.828	14107
918.939	14134
919.05	14153
919.161	14081
919.272	13925
919.383	13982
919.494	14130
919.604	14343
919.715	14100
919.826	14050
919.936	14008
920.047	14100
920.157	14103
920.267	14206
920.378	14069
920.488	14084
920.598	14206
920.708	14385
920.818	14225
920.928	14206
921.038	14366
921.148	14294
921.258	13982
921.368	13940
921.477	13875
921.587	13799
921.697	13689
921.806	13731
921.916	13597
922.025	13502
922.134	13495
922.244	13441
922.353	13445
922.462	13434
922.571	13198
922.68	13091
922.789	13190
922.898	13103
923.007	13038
923.116	13145
923.224	13145
923.333	13099
923.442	12989
923.55	12878
923.659	12962
923.767	13046
923.876	12901
923.984	12939
924.092	12871
924.201	12867
924.309	12897
924.417	12871
924.525	12798
924.633	12871
924.741	13769
924.849	12688
924.956	12772
925.064	12521
925.172	12536
925.279	12536
925.387	12597
925.494	12559
925.602	12658
925.709	12563
925.816	12517
925.924	12494
926.031	12608
926.138	12452
926.245	12521
926.352	12414
926.459	12528
926.566	12559
926.673	12437
926.779	12300
926.886	12369
926.993	12216
927.099	12060
927.206	12049
927.312	12038
927.419	12205
927.525	12076
927.631	12159
927.737	12076
927.843	11973
927.95	11882
928.056	11866
928.162	11992
928.267	12064
928.373	12623
928.479	12083
928.585	11847
928.69	12026
928.796	11969
928.901	11817
929.007	11676
929.112	11802
929.218	11741
929.323	11798
929.428	11665
929.533	11828
929.638	11558
929.743	11611
929.848	11688
929.953	11653
930.058	11554
930.163	11379
930.267	11425
930.372	11577
930.477	11395
930.581	11596
930.685	11471
930.79	11315
930.894	11311
930.998	11269
931.103	11349
931.207	10991
931.311	11037
931.415	10889
931.519	10725
931.623	10683
