Data from test_V78500241_22.txt Node
Date: Fri Mar 25 15:10:01 CST 2022
User: usil
Spectrometer: V785-0024
Trigger mode: 0
Integration Time (sec): 4.000000E-1
Scans to average: 1
Nonlinearity correction enabled: false
Boxcar width: 0
Storing dark spectrum: false
XAxis mode: Wavelengths
Number of Pixels in Spectrum: 1024
>>>>>Begin Spectral Data<<<<<
801.071	28432
801.214	28265
801.356	28029
801.499	27960
801.641	27895
801.783	27717
801.926	27701
802.068	27800
802.211	27728
802.353	27690
802.496	27443
802.638	27507
802.78	27382
802.923	27378
803.065	27283
803.208	27321
803.35	27283
803.492	27367
803.635	27412
803.777	27485
803.919	27534
804.061	27861
804.204	27511
804.346	27393
804.488	27408
804.63	27454
804.773	27378
804.915	27447
805.057	27553
805.199	27287
805.341	27401
805.483	27557
805.626	27450
805.768	27435
805.91	27382
806.052	27542
806.194	27294
806.336	27690
806.478	27427
806.62	27443
806.762	27633
806.904	27622
807.046	28002
807.188	27736
807.33	27778
807.472	27770
807.614	27679
807.756	27709
807.898	27606
808.04	27572
808.182	27496
808.324	27572
808.465	27580
808.607	27709
808.749	27907
808.891	27869
809.033	28074
809.174	27880
809.316	27960
809.458	27972
809.6	27823
809.741	28063
809.883	27926
810.025	28276
810.166	28150
810.308	28219
810.45	28093
810.591	28086
810.733	27930
810.875	27823
811.016	27698
811.158	27671
811.299	27770
811.441	27960
811.582	27987
811.724	27663
811.865	27709
812.007	27846
812.148	27838
812.29	27785
812.431	27804
812.573	28173
812.714	28097
812.855	28230
812.997	28500
813.138	28485
813.279	28447
813.421	28344
813.562	28356
813.703	28029
813.845	27972
813.986	27770
814.127	27519
814.268	27389
814.41	27374
814.551	27450
814.692	27481
814.833	27268
814.974	27211
815.115	27310
815.256	27127
815.397	27279
815.539	27264
815.68	27051
815.821	26963
815.962	27135
816.103	27176
816.244	26963
816.385	26929
816.526	26815
816.666	26560
816.807	26480
816.948	26492
817.089	26678
817.23	26609
817.371	26438
817.512	26461
817.653	26408
817.793	26419
817.934	26503
818.075	26488
818.216	26507
818.356	26499
818.497	26298
818.638	26111
818.778	26221
818.919	26221
819.06	26199
819.2	26233
819.341	26355
819.481	26484
819.622	26552
819.762	26598
819.903	26629
820.043	26541
820.184	26499
820.324	26404
820.465	26632
820.605	26457
820.746	26389
820.886	26336
821.026	26415
821.167	26381
821.307	26396
821.447	26263
821.588	26221
821.728	26202
821.868	25871
822.008	25902
822.149	25788
822.289	25662
822.429	25632
822.569	25548
822.709	25537
822.849	25316
822.99	25297
823.13	25304
823.27	25141
823.41	25065
823.55	24939
823.69	25050
823.83	24947
823.97	24943
824.11	24814
824.25	24795
824.389	24814
824.529	24875
824.669	24844
824.809	24943
824.949	24806
825.089	24985
825.228	24776
825.368	24616
825.508	24642
825.648	24509
825.787	24745
825.927	24589
826.067	24589
826.206	24513
826.346	24661
826.485	24757
826.625	24620
826.765	24730
826.904	24608
827.044	24376
827.183	24224
827.323	24228
827.462	24319
827.601	24251
827.741	24232
827.88	24319
828.02	24076
828.159	24163
828.298	24178
828.437	24178
828.577	24239
828.716	24327
828.855	24140
828.994	23920
829.134	24022
829.273	23999
829.412	23927
829.551	23965
829.69	23878
829.829	23973
829.968	23939
830.107	23977
830.246	24003
830.385	23775
830.524	23809
830.663	23710
830.802	23562
830.941	23463
831.08	23433
831.219	23642
831.357	23558
831.496	23642
831.635	23421
831.774	23288
831.913	23288
832.051	23284
832.19	23216
832.329	23311
832.467	23143
832.606	23109
832.744	23014
832.883	23010
833.022	22976
833.16	23075
833.299	23197
833.437	22999
833.576	23121
833.714	23041
833.852	23200
833.991	23200
834.129	23189
834.267	23044
834.406	23071
834.544	23094
834.682	22995
834.821	22984
834.959	23315
835.097	22911
835.235	22995
835.373	23018
835.511	23056
835.65	22976
835.788	23003
835.926	22717
836.064	22645
836.202	22721
836.34	23003
836.478	23003
836.615	22911
836.753	22904
836.891	23022
837.029	22946
837.167	22987
837.305	22831
837.443	22748
837.58	22744
837.718	22793
837.856	22839
837.993	22679
838.131	22634
838.269	22634
838.406	22717
838.544	22485
838.681	22409
838.819	22344
838.956	22211
839.094	22173
839.231	22276
839.369	22253
839.506	22584
839.643	22417
839.781	22223
839.918	22128
840.055	22070
840.193	22051
840.33	22093
840.467	22150
840.604	22044
840.742	22310
840.879	21899
841.016	21930
841.153	22013
841.29	22226
841.427	22036
841.564	22090
841.701	21998
841.838	21972
841.975	21922
842.112	21949
842.249	21823
842.385	21701
842.522	21880
842.659	21766
842.796	21728
842.933	21793
843.069	21804
843.206	21618
843.343	21827
843.479	21667
843.616	21819
843.752	21545
843.889	21519
844.025	21595
844.162	21447
844.298	21629
844.435	21526
844.571	21378
844.708	21572
844.844	21614
844.98	21610
845.117	21599
845.253	21332
845.389	21340
845.525	21447
845.661	21298
845.798	21310
845.934	21332
846.07	21146
846.206	21161
846.342	21439
846.478	21169
846.614	21024
846.75	20868
846.886	20807
847.022	20804
847.158	21036
847.294	20914
847.429	20918
847.565	20788
847.701	21146
847.837	20640
847.972	20621
848.108	20807
848.244	20648
848.379	20522
848.515	20480
848.65	20351
848.786	20419
848.921	20511
849.057	20613
849.192	20545
849.328	20476
849.463	20412
849.598	20358
849.734	20400
849.869	20339
850.004	20183
850.14	20206
850.275	20138
850.41	20214
850.545	20240
850.68	20107
850.815	20214
850.95	20157
851.085	20396
851.22	20210
851.355	20225
851.49	20168
851.625	20020
851.76	20081
851.895	20031
852.03	19940
852.165	20122
852.299	20142
852.434	20126
852.569	20103
852.703	20172
852.838	20229
852.973	20259
853.107	20286
853.242	20043
853.376	19967
853.511	19856
853.645	19906
853.78	20142
853.914	19944
854.048	19955
854.183	19955
854.317	20005
854.451	20092
854.585	19982
854.72	19986
854.854	20084
854.988	19871
855.122	19986
855.256	19864
855.39	19989
855.524	20107
855.658	19978
855.792	19898
855.926	20046
856.06	20012
856.194	20107
856.327	20054
856.461	19955
856.595	19959
856.729	19982
856.862	20069
856.996	19951
857.13	19947
857.263	20058
857.397	20107
857.53	19898
857.664	19883
857.797	20031
857.931	20088
858.064	19944
858.197	20092
858.331	19932
858.464	19887
858.597	19871
858.731	19887
858.864	19925
858.997	19898
859.13	19936
859.263	19887
859.396	19989
859.529	19814
859.662	19856
859.795	19894
859.928	19852
860.061	19993
860.194	19997
860.327	19799
860.46	19947
860.592	20027
860.725	20012
860.858	20031
860.99	19917
861.123	19677
861.256	19807
861.388	19925
861.521	20457
861.653	19845
861.786	19655
861.918	19799
862.05	19868
862.183	19909
862.315	19963
862.447	19989
862.58	19738
862.712	19772
862.844	19586
862.976	19772
863.108	19696
863.24	20001
863.372	19624
863.504	19594
863.636	19567
863.768	19670
863.9	19624
864.032	19407
864.164	19457
864.296	19757
864.428	19552
864.559	19605
864.691	19616
864.823	19643
864.954	19605
865.086	19502
865.217	19453
865.349	19354
865.48	19525
865.612	19441
865.743	19693
865.875	19483
866.006	19464
866.137	19556
866.269	19434
866.4	19480
866.531	19441
866.662	19407
866.793	19350
866.924	19392
867.055	19430
867.186	19506
867.317	19369
867.448	19259
867.579	19411
867.71	19346
867.841	19308
867.972	19487
868.103	19384
868.233	19365
868.364	19438
868.495	19575
868.625	19674
868.756	19761
868.886	19529
869.017	19521
869.147	19852
869.278	19822
869.408	19601
869.539	19628
869.669	19712
869.799	19670
869.929	19765
870.06	19719
870.19	19868
870.32	19936
870.45	19989
870.58	20119
870.71	20153
870.84	20161
870.97	20073
871.1	20012
871.23	20290
871.36	20240
871.489	20043
871.619	20172
871.749	20237
871.879	20431
872.008	20412
872.138	20244
872.267	20142
872.397	19989
872.526	20157
872.656	20142
872.785	19986
872.915	20294
873.044	20370
873.173	20309
873.303	20298
873.432	20271
873.561	20404
873.69	20324
873.819	20332
873.948	20408
874.077	20259
874.206	20195
874.335	20275
874.464	20442
874.593	20492
874.722	20503
874.851	20625
874.979	20446
875.108	20583
875.237	20522
875.365	20499
875.494	20469
875.623	20636
875.751	20385
875.88	20701
876.008	20712
876.136	20777
876.265	21005
876.393	21157
876.521	21009
876.65	21112
876.778	20986
876.906	20880
877.034	20811
877.162	20899
877.29	20800
877.418	20994
877.546	20887
877.674	20914
877.802	20998
877.93	20956
878.058	20785
878.185	20792
878.313	20975
878.441	20944
878.568	20663
878.696	20788
878.824	20952
878.951	20796
879.079	21127
879.206	21116
879.333	21043
879.461	20986
879.588	20998
879.715	21024
879.842	21195
879.97	20891
880.097	20678
880.224	20739
880.351	20861
880.478	20674
880.605	20663
880.732	20796
880.859	21066
880.986	20705
881.112	20686
881.239	20659
881.366	20514
881.493	20377
881.619	20244
881.746	20240
881.872	20362
881.999	20263
882.125	20351
882.252	20339
882.378	20294
882.505	20438
882.631	20286
882.757	20031
882.883	20145
883.01	20130
883.136	20111
883.262	19963
883.388	19928
883.514	20054
883.64	20122
883.766	20020
883.892	19769
884.018	19856
884.143	20050
884.269	20206
884.395	19837
884.52	19757
884.646	19772
884.772	19712
884.897	19662
885.023	19674
885.148	19913
885.274	19883
885.399	19860
885.524	19780
885.65	19647
885.775	19715
885.9	19753
886.025	19814
886.15	19753
886.275	19651
886.4	19670
886.525	19753
886.65	19647
886.775	19537
886.9	19856
887.025	19845
887.149	19700
887.274	19533
887.399	19400
887.523	19449
887.648	19373
887.773	19343
887.897	19518
888.021	19434
888.146	19365
888.27	19476
888.395	19552
888.519	19514
888.643	19506
888.767	19495
888.891	19403
889.015	19228
889.139	19270
889.263	19240
889.387	19533
889.511	19521
889.635	19339
889.759	19232
889.883	19209
890.006	19278
890.13	19407
890.254	19114
890.377	19232
890.501	19023
890.624	18947
890.748	19076
890.871	18886
890.995	18757
891.118	18764
891.241	18814
891.364	18859
891.488	19008
891.611	18878
891.734	18905
891.857	18886
891.98	19012
892.103	18920
892.226	18776
892.349	18817
892.471	18642
892.594	18787
892.717	18787
892.839	18837
892.962	18886
893.085	18821
893.207	18821
893.33	18798
893.452	18840
893.575	18882
893.697	18719
893.819	18973
893.941	18947
894.064	18875
894.186	18757
894.308	18726
894.43	18817
894.552	18935
894.674	18825
894.796	18730
894.918	18821
895.04	18719
895.161	18894
895.283	18901
895.405	18833
895.526	18764
895.648	18753
895.769	18738
895.891	18810
896.012	18913
896.134	18863
896.255	18875
896.376	18802
896.498	18688
896.619	18939
896.74	18878
896.861	18947
896.982	19164
897.103	19365
897.224	19152
897.345	19069
897.466	19069
897.587	19164
897.708	19331
897.828	19160
897.949	19088
898.07	18954
898.19	18977
898.311	19194
898.431	19027
898.552	19095
898.672	19251
898.792	19122
898.913	19091
899.033	18993
899.153	18764
899.273	18681
899.393	18741
899.513	18833
899.633	18817
899.753	18757
899.873	18814
899.993	18757
900.113	18806
900.232	18776
900.352	18696
900.472	18681
900.591	18608
900.711	18593
900.83	18441
900.95	18696
901.069	18730
901.189	18509
901.308	18304
901.427	18171
901.546	18182
901.665	18228
901.784	18159
901.904	18087
902.023	17977
902.141	17779
902.26	17741
902.379	17855
902.498	17695
902.617	17714
902.735	17718
902.854	17551
902.973	17657
903.091	17364
903.21	17353
903.328	17318
903.446	17280
903.565	17231
903.683	17208
903.801	17105
903.919	17159
904.038	17181
904.156	16995
904.274	17151
904.392	16991
904.51	17018
904.627	16995
904.745	17018
904.863	17010
904.981	16740
905.098	16698
905.216	16618
905.334	16736
905.451	16736
905.569	16618
905.686	16611
905.803	16580
905.921	16413
906.038	16565
906.155	16470
906.272	16211
906.389	16382
906.506	16086
906.623	16265
906.74	16211
906.857	16101
906.974	16093
907.091	16314
907.208	16333
907.324	16177
907.441	16074
907.557	15987
907.674	15850
907.79	15918
907.907	15701
908.023	15888
908.139	15937
908.256	15717
908.372	15720
908.488	15781
908.604	15580
908.72	15671
908.836	15591
908.952	15439
909.068	15584
909.184	15599
909.3	15519
909.415	15591
909.531	15515
909.647	15348
909.762	15302
909.878	15230
909.993	15279
910.108	15226
910.224	15173
910.339	15207
910.454	15142
910.57	15119
910.685	14914
910.8	15218
910.915	15359
911.03	15066
911.145	14948
911.259	14918
911.374	14880
911.489	14906
911.604	14750
911.718	14625
911.833	14651
911.947	14476
912.062	14385
912.176	14522
912.291	14530
912.405	14674
912.519	14819
912.633	14708
912.748	14617
912.862	14590
912.976	14495
913.09	14244
913.204	14385
913.318	14454
913.431	14579
913.545	14484
913.659	14545
913.772	14355
913.886	14210
914	14282
914.113	14320
914.226	14278
914.34	14351
914.453	14149
914.566	14275
914.68	14187
914.793	14115
914.906	14008
915.019	13906
915.132	13841
915.245	13879
915.358	13955
915.47	13898
915.583	13982
915.696	13963
915.809	14046
915.921	13989
916.034	13788
916.146	13860
916.259	13704
916.371	13887
916.483	13864
916.595	13693
916.708	13856
916.82	13791
916.932	13727
917.044	13624
917.156	13696
917.268	13723
917.38	13670
917.491	13529
917.603	13594
917.715	13628
917.826	13822
917.938	13464
918.049	13415
918.161	13643
918.272	13696
918.384	13689
918.495	13620
918.606	13502
918.717	13468
918.828	13396
918.939	13464
919.05	13190
919.161	13308
919.272	13080
919.383	13255
919.494	13419
919.604	13601
919.715	13339
919.826	13346
919.936	13346
920.047	13320
920.157	13396
920.267	13529
920.378	13396
920.488	13255
920.598	13460
920.708	13677
920.818	13480
920.928	13445
921.038	13715
921.148	13590
921.258	13293
921.368	13251
921.477	13057
921.587	13072
921.697	12943
921.806	13103
921.916	12970
922.025	12779
922.134	12738
922.244	12715
922.353	12681
922.462	12654
922.571	12494
922.68	12426
922.789	12350
922.898	12452
923.007	12315
923.116	12414
923.224	12289
923.333	12292
923.442	12247
923.55	12175
923.659	12209
923.767	12380
923.876	12152
923.984	12213
924.092	12098
924.201	12228
924.309	12098
924.417	12175
924.525	12060
924.633	12049
924.741	12852
924.849	11920
924.956	12060
925.064	11836
925.172	11779
925.279	11874
925.387	11832
925.494	11882
925.602	11988
925.709	11916
925.816	11783
925.924	11836
926.031	11866
926.138	11889
926.245	11893
926.352	11843
926.459	11859
926.566	11935
926.673	11745
926.779	11676
926.886	11592
926.993	11421
927.099	11421
927.206	11421
927.312	11379
927.419	11627
927.525	11414
927.631	11478
927.737	11318
927.843	11334
927.95	11223
928.056	11406
928.162	11356
928.267	11379
928.373	12034
928.479	11273
928.585	11132
928.69	11181
928.796	11322
928.901	11162
929.007	11064
929.112	11185
929.218	11121
929.323	11079
929.428	11094
929.533	11208
929.638	10976
929.743	11048
929.848	10972
929.953	10953
930.058	10892
930.163	10714
930.267	10831
930.372	10835
930.477	10782
930.581	10961
930.685	10854
930.79	10637
930.894	10672
930.998	10615
931.103	10725
931.207	10310
931.311	10352
931.415	10196
931.519	10112
931.623	10036
