Data from test_V78500241_2178.txt Node
Date: Fri Mar 25 15:25:01 CST 2022
User: usil
Spectrometer: V785-0024
Trigger mode: 0
Integration Time (sec): 4.000000E-1
Scans to average: 1
Nonlinearity correction enabled: false
Boxcar width: 0
Storing dark spectrum: false
XAxis mode: Wavelengths
Number of Pixels in Spectrum: 1024
>>>>>Begin Spectral Data<<<<<
801.071	27698
801.214	27614
801.356	27458
801.499	27336
801.641	27260
801.783	27203
801.926	27230
802.068	27310
802.211	27169
802.353	26998
802.496	26864
802.638	26872
802.78	26960
802.923	26807
803.065	26811
803.208	26914
803.35	27055
803.492	27062
803.635	27096
803.777	27020
803.919	27142
804.061	27389
804.204	27195
804.346	27074
804.488	27058
804.63	27108
804.773	27127
804.915	26975
805.057	27260
805.199	27039
805.341	27112
805.483	27119
805.626	27173
805.768	27085
805.91	27127
806.052	27112
806.194	27264
806.336	27488
806.478	27230
806.62	27195
806.762	27131
806.904	27462
807.046	27747
807.188	27663
807.33	27823
807.472	27667
807.614	27553
807.756	27663
807.898	27538
808.04	27298
808.182	27416
808.324	27370
808.465	27443
808.607	27724
808.749	27713
808.891	27953
809.033	27994
809.174	27922
809.316	27869
809.458	27751
809.6	27816
809.741	28017
809.883	27945
810.025	28002
810.166	27953
810.308	27941
810.45	27911
810.591	27960
810.733	27755
810.875	27865
811.016	27610
811.158	27671
811.299	27899
811.441	27876
811.582	27873
811.724	27876
811.865	27682
812.007	27682
812.148	27762
812.29	27774
812.431	27949
812.573	28238
812.714	28173
812.855	28371
812.997	28306
813.138	28622
813.279	28436
813.421	28375
813.562	28268
813.703	28257
813.845	28051
813.986	27808
814.127	27603
814.268	27587
814.41	27663
814.551	27549
814.692	27583
814.833	27549
814.974	27534
815.115	27469
815.256	27367
815.397	27443
815.539	27435
815.68	27313
815.821	27241
815.962	27317
816.103	27325
816.244	27169
816.385	27131
816.526	27024
816.666	26963
816.807	26899
816.948	26823
817.089	26948
817.23	26686
817.371	26762
817.512	26777
817.653	26689
817.793	26674
817.934	26743
818.075	26674
818.216	26769
818.356	26686
818.497	26579
818.638	26393
818.778	26434
818.919	26446
819.06	26667
819.2	26651
819.341	26686
819.481	26716
819.622	26998
819.762	27074
819.903	27039
820.043	26963
820.184	26975
820.324	26842
820.465	26861
820.605	26887
820.746	26845
820.886	26678
821.026	26861
821.167	26895
821.307	26902
821.447	26762
821.588	26697
821.728	26511
821.868	26355
822.008	26267
822.149	26294
822.289	26218
822.429	26005
822.569	25951
822.709	25772
822.849	25799
822.99	25731
823.13	25632
823.27	25772
823.41	25609
823.55	25438
823.69	25502
823.83	25586
823.97	25544
824.11	25373
824.25	25278
824.389	25407
824.529	25635
824.669	25346
824.809	25552
824.949	25346
825.089	25483
825.228	25320
825.368	25255
825.508	25187
825.648	25263
825.787	25365
825.927	25354
826.067	25217
826.206	25339
826.346	25320
826.485	25148
826.625	25381
826.765	25228
826.904	25335
827.044	25038
827.183	25019
827.323	25012
827.462	25019
827.601	24859
827.741	24951
827.88	24913
828.02	24821
828.159	24928
828.298	24985
828.437	24973
828.577	24829
828.716	25095
828.855	24878
828.994	24639
829.134	24635
829.273	24601
829.412	24544
829.551	24574
829.69	24646
829.829	24677
829.968	24677
830.107	24757
830.246	24692
830.385	24589
830.524	24570
830.663	24410
830.802	24460
830.941	24163
831.08	24285
831.219	24414
831.357	24174
831.496	24540
831.635	24114
831.774	24106
831.913	24163
832.051	23996
832.19	24034
832.329	24114
832.467	23927
832.606	23824
832.744	23939
832.883	23927
833.022	23859
833.16	23885
833.299	23859
833.437	24064
833.576	23992
833.714	23942
833.852	24053
833.991	23999
834.129	24011
834.267	23912
834.406	23958
834.544	24076
834.682	23870
834.821	23980
834.959	24136
835.097	23847
835.235	23965
835.373	23855
835.511	23885
835.65	23775
835.788	23866
835.926	23691
836.064	23608
836.202	23535
836.34	23745
836.478	23828
836.615	23813
836.753	23790
836.891	23923
837.029	23836
837.167	23779
837.305	23543
837.443	23627
837.58	23710
837.718	23764
837.856	23524
837.993	23668
838.131	23589
838.269	23463
838.406	23551
838.544	23512
838.681	23197
838.819	23197
838.956	23193
839.094	23113
839.231	23277
839.369	23204
839.506	23452
839.643	23311
839.781	23014
839.918	22927
840.055	23071
840.193	23212
840.33	23014
840.467	22999
840.604	22957
840.742	23311
840.879	22957
841.016	22957
841.153	22927
841.29	23178
841.427	23025
841.564	23041
841.701	22946
841.838	22987
841.975	22957
842.112	22961
842.249	22721
842.385	22736
842.522	22866
842.659	22736
842.796	22744
842.933	22786
843.069	22687
843.206	22626
843.343	22797
843.479	22710
843.616	22782
843.752	22478
843.889	22603
844.025	22672
844.162	22493
844.298	22653
844.435	22550
844.571	22573
844.708	22535
844.844	22596
844.98	22752
845.117	22565
845.253	22466
845.389	22360
845.525	22462
845.661	22428
845.798	22276
845.934	22207
846.07	22287
846.206	22318
846.342	22352
846.478	22196
846.614	21968
846.75	22025
846.886	22109
847.022	22158
847.158	21983
847.294	22067
847.429	21937
847.565	21922
847.701	22158
847.837	21865
847.972	21705
848.108	21869
848.244	21800
848.379	21698
848.515	21568
848.65	21496
848.786	21545
848.921	21682
849.057	21679
849.192	21774
849.328	21728
849.463	21587
849.598	21580
849.734	21466
849.869	21519
850.004	21302
850.14	21408
850.275	21287
850.41	21192
850.545	21340
850.68	21241
850.815	21321
850.95	21344
851.085	21545
851.22	21530
851.355	21397
851.49	21351
851.625	21260
851.76	21374
851.895	21230
852.03	21336
852.165	21405
852.299	21443
852.434	21405
852.569	21310
852.703	21401
852.838	21462
852.973	21553
853.107	21530
853.242	21321
853.376	21249
853.511	21108
853.645	21245
853.78	21268
853.914	21203
854.048	21203
854.183	21249
854.317	21184
854.451	21447
854.585	21302
854.72	21180
854.854	21260
854.988	21203
855.122	21264
855.256	21036
855.39	21108
855.524	21294
855.658	21188
855.792	21310
855.926	21154
856.06	21154
856.194	21272
856.327	21222
856.461	21043
856.595	21207
856.729	21199
856.862	21173
856.996	21108
857.13	21203
857.263	21340
857.397	21310
857.53	21154
857.664	21245
857.797	21203
857.931	21233
858.064	21150
858.197	21294
858.331	21036
858.464	21100
858.597	21043
858.731	21218
858.864	21184
858.997	21176
859.13	21165
859.263	21340
859.396	21313
859.529	21176
859.662	21070
859.795	21123
859.928	21241
860.061	21260
860.194	21298
860.327	21306
860.46	21195
860.592	21287
860.725	21332
860.858	21393
860.99	21222
861.123	21207
861.256	21131
861.388	21192
861.521	21850
861.653	21047
861.786	20986
861.918	20971
862.05	21119
862.183	21062
862.315	21207
862.447	21077
862.58	21222
862.712	20944
862.844	20773
862.976	20982
863.108	20952
863.24	21329
863.372	20864
863.504	20800
863.636	20883
863.768	20811
863.9	20800
864.032	20746
864.164	20815
864.296	20849
864.428	21024
864.559	21036
864.691	21020
864.823	20891
864.954	20967
865.086	20876
865.217	20754
865.349	20735
865.48	20804
865.612	20876
865.743	20842
865.875	20754
866.006	20739
866.137	20823
866.269	20804
866.4	20845
866.531	20708
866.662	20587
866.793	20674
866.924	20788
867.055	20781
867.186	20739
867.317	20777
867.448	20594
867.579	20602
867.71	20625
867.841	20579
867.972	20739
868.103	20731
868.233	20716
868.364	20765
868.495	20739
868.625	20971
868.756	21058
868.886	20868
869.017	20933
869.147	21070
869.278	21127
869.408	20967
869.539	20895
869.669	21116
869.799	20971
869.929	21013
870.06	21085
870.19	21226
870.32	21226
870.45	21370
870.58	21241
870.71	21424
870.84	21511
870.97	21393
871.1	21310
871.23	21519
871.36	21515
871.489	21458
871.619	21553
871.749	21530
871.879	21549
872.008	21667
872.138	21557
872.267	21557
872.397	21401
872.526	21431
872.656	21458
872.785	21454
872.915	21644
873.044	21568
873.173	21610
873.303	21606
873.432	21652
873.561	21675
873.69	21519
873.819	21561
873.948	21709
874.077	21698
874.206	21534
874.335	21549
874.464	21675
874.593	21747
874.722	21686
874.851	21819
874.979	21937
875.108	21720
875.237	21682
875.365	21743
875.494	21819
875.623	21911
875.751	21816
875.88	21869
876.008	21911
876.136	22078
876.265	22234
876.393	22379
876.521	22215
876.65	22261
876.778	22249
876.906	22265
877.034	22150
877.162	22166
877.29	22124
877.418	22185
877.546	22230
877.674	22158
877.802	22169
877.93	22207
878.058	22017
878.185	22059
878.313	22116
878.441	22150
878.568	22021
878.696	22074
878.824	22181
878.951	22196
879.079	22409
879.206	22550
879.333	22249
879.461	22158
879.588	22147
879.715	22192
879.842	22382
879.97	22128
880.097	21979
880.224	22017
880.351	21956
880.478	21876
880.605	21823
880.732	21937
880.859	22169
880.986	21895
881.112	21895
881.239	21869
881.366	21717
881.493	21595
881.619	21625
881.746	21538
881.872	21454
881.999	21545
882.125	21439
882.252	21599
882.378	21633
882.505	21542
882.631	21462
882.757	21317
882.883	21359
883.01	21291
883.136	21279
883.262	21165
883.388	21093
883.514	21211
883.64	21233
883.766	21199
883.892	20944
884.018	21131
884.143	21233
884.269	21260
884.395	20941
884.52	20880
884.646	20994
884.772	20910
884.897	20674
885.023	20971
885.148	20838
885.274	20952
885.399	21009
885.524	20857
885.65	20948
885.775	20872
885.9	20899
886.025	21005
886.15	20994
886.275	20697
886.4	20720
886.525	20842
886.65	20906
886.775	20925
886.9	20960
887.025	21051
887.149	20876
887.274	20746
887.399	20678
887.523	20773
887.648	20655
887.773	20590
887.897	20769
888.021	20705
888.146	20541
888.27	20640
888.395	20754
888.519	20674
888.643	20731
888.767	20697
888.891	20598
889.015	20389
889.139	20530
889.263	20465
889.387	20663
889.511	20697
889.635	20613
889.759	20507
889.883	20381
890.006	20461
890.13	20431
890.254	20415
890.377	20377
890.501	20210
890.624	20252
890.748	20275
890.871	20122
890.995	20062
891.118	20005
891.241	20126
891.364	20031
891.488	20157
891.611	20092
891.734	20016
891.857	20035
891.98	20092
892.103	20111
892.226	20183
892.349	19997
892.471	19757
892.594	20016
892.717	19947
892.839	19864
892.962	19955
893.085	20031
893.207	20077
893.33	19875
893.452	19936
893.575	19993
893.697	20035
893.819	20096
893.941	20259
894.064	20073
894.186	19803
894.308	19833
894.43	20084
894.552	20001
894.674	20084
894.796	19997
894.918	19921
895.04	19921
895.161	20115
895.283	20096
895.405	19879
895.526	19986
895.648	19936
895.769	20031
895.891	20031
896.012	20046
896.134	20035
896.255	19951
896.376	19982
896.498	20081
896.619	19932
896.74	19959
896.861	20020
896.982	20263
897.103	20362
897.224	20294
897.345	20176
897.466	20065
897.587	20214
897.708	20282
897.828	20172
897.949	20180
898.07	19978
898.19	20103
898.311	20282
898.431	20077
898.552	20263
898.672	20298
898.792	20450
898.913	20248
899.033	20229
899.153	19887
899.273	19875
899.393	19974
899.513	20027
899.633	19913
899.753	20005
899.873	19925
899.993	20005
900.113	19993
900.232	19814
900.352	19795
900.472	19746
900.591	19738
900.711	19822
900.83	19696
900.95	19879
901.069	19780
901.189	19635
901.308	19525
901.427	19339
901.546	19377
901.665	19339
901.784	19301
901.904	19251
902.023	19122
902.141	18924
902.26	18878
902.379	18958
902.498	18787
902.617	18821
902.735	18837
902.854	18768
902.973	18772
903.091	18498
903.21	18521
903.328	18528
903.446	18509
903.565	18338
903.683	18369
903.801	18254
903.919	18289
904.038	18239
904.156	18076
904.274	18121
904.392	18159
904.51	18038
904.627	18076
904.745	18106
904.863	18178
904.981	17916
905.098	17817
905.216	17726
905.334	17729
905.451	17802
905.569	17760
905.686	17783
905.803	17813
905.921	17570
906.038	17596
906.155	17646
906.272	17471
906.389	17406
906.506	17364
906.623	17383
906.74	17299
906.857	17353
906.974	17231
907.091	17284
907.208	17452
907.324	17265
907.441	17193
907.557	17037
907.674	16995
907.79	16991
907.907	16953
908.023	16980
908.139	17006
908.256	17064
908.372	17014
908.488	16862
908.604	16820
908.72	16713
908.836	16694
908.952	16786
909.068	16710
909.184	16824
909.3	16721
909.415	16740
909.531	16649
909.647	16485
909.762	16379
909.878	16417
909.993	16470
910.108	16356
910.224	16318
910.339	16421
910.454	16310
910.57	16192
910.685	16185
910.8	16459
910.915	16421
911.03	16249
911.145	16116
911.259	16025
911.374	16002
911.489	15915
911.604	15861
911.718	15778
911.833	15831
911.947	15686
912.062	15610
912.176	15793
912.291	15701
912.405	15789
912.519	15869
912.633	15956
912.748	15797
912.862	15793
912.976	15603
913.09	15557
913.204	15504
913.318	15629
913.431	15724
913.545	15667
913.659	15701
913.772	15610
913.886	15378
914	15329
914.113	15454
914.226	15534
914.34	15412
914.453	15279
914.566	15420
914.68	15184
914.793	15230
914.906	15036
915.019	14952
915.132	14929
915.245	15009
915.358	14979
915.47	15093
915.583	14982
915.696	14960
915.809	15131
915.921	15062
916.034	14960
916.146	14967
916.259	14773
916.371	14975
916.483	14929
916.595	14815
916.708	14815
916.82	14754
916.932	14769
917.044	14735
917.156	14796
917.268	14705
917.38	14697
917.491	14625
917.603	14724
917.715	14712
917.826	14575
917.938	14552
918.049	14476
918.161	14640
918.272	14712
918.384	14712
918.495	14644
918.606	14381
918.717	14461
918.828	14415
918.939	14408
919.05	14355
919.161	14427
919.272	14157
919.383	14237
919.494	14377
919.604	14530
919.715	14301
919.826	14290
919.936	14347
920.047	14480
920.157	14431
920.267	14556
920.378	14358
920.488	14362
920.598	14461
920.708	14663
920.818	14610
920.928	14503
921.038	14617
921.148	14632
921.258	14366
921.368	14271
921.477	14126
921.587	14107
921.697	13955
921.806	14024
921.916	13978
922.025	13742
922.134	13734
922.244	13742
922.353	13803
922.462	13696
922.571	13525
922.68	13445
922.789	13373
922.898	13373
923.007	13350
923.116	13464
923.224	13457
923.333	13301
923.442	13327
923.55	13213
923.659	13183
923.767	13377
923.876	13183
923.984	13244
924.092	13179
924.201	13217
924.309	13240
924.417	13149
924.525	13164
924.633	13046
924.741	13833
924.849	12947
924.956	13000
925.064	12783
925.172	12772
925.279	12863
925.387	12875
925.494	12928
925.602	13015
925.709	12890
925.816	12642
925.924	12741
926.031	12844
926.138	12817
926.245	12856
926.352	12616
926.459	12833
926.566	12856
926.673	12722
926.779	12646
926.886	12544
926.993	12566
927.099	12494
927.206	12365
927.312	12319
927.419	12407
927.525	12342
927.631	12422
927.737	12281
927.843	12220
927.95	12148
928.056	12273
928.162	12239
928.267	12216
928.373	12932
928.479	12315
928.585	12098
928.69	12251
928.796	12163
928.901	12064
929.007	11931
929.112	12186
929.218	12049
929.323	11927
929.428	11969
929.533	12129
929.638	11798
929.743	11870
929.848	11973
929.953	11988
930.058	11771
930.163	11623
930.267	11684
930.372	11847
930.477	11570
930.581	11828
930.685	11707
930.79	11452
930.894	11524
930.998	11448
931.103	11699
931.207	11337
931.311	11258
931.415	11109
931.519	11045
931.623	10869
