Data from test_V78500241_1746.txt Node
Date: Fri Mar 25 15:22:00 CST 2022
User: usil
Spectrometer: V785-0024
Trigger mode: 0
Integration Time (sec): 4.000000E-1
Scans to average: 1
Nonlinearity correction enabled: false
Boxcar width: 0
Storing dark spectrum: false
XAxis mode: Wavelengths
Number of Pixels in Spectrum: 1024
>>>>>Begin Spectral Data<<<<<
801.071	27945
801.214	27835
801.356	27595
801.499	27595
801.641	27374
801.783	27412
801.926	27500
802.068	27401
802.211	27382
802.353	27195
802.496	27009
802.638	26914
802.78	26948
802.923	26906
803.065	26963
803.208	26819
803.35	27043
803.492	27020
803.635	27207
803.777	27154
803.919	27195
804.061	27538
804.204	27313
804.346	27176
804.488	27245
804.63	27173
804.773	27173
804.915	27291
805.057	27291
805.199	27188
805.341	27245
805.483	27492
805.626	27462
805.768	27119
805.91	27386
806.052	27207
806.194	27241
806.336	27488
806.478	27367
806.62	27310
806.762	27591
806.904	27648
807.046	27838
807.188	27694
807.33	27762
807.472	27705
807.614	27618
807.756	27808
807.898	27682
808.04	27622
808.182	27583
808.324	27682
808.465	27568
808.607	27770
808.749	27880
808.891	28029
809.033	28067
809.174	28059
809.316	28010
809.458	28059
809.6	27972
809.741	28025
809.883	28105
810.025	28242
810.166	28150
810.308	28070
810.45	28158
810.591	27937
810.733	27968
810.875	27880
811.016	27926
811.158	27759
811.299	27964
811.441	27937
811.582	28093
811.724	28074
811.865	27922
812.007	27926
812.148	27892
812.29	27972
812.431	28337
812.573	28246
812.714	28428
812.855	28512
812.997	28611
813.138	28721
813.279	28577
813.421	28413
813.562	28367
813.703	28382
813.845	28185
813.986	27854
814.127	27648
814.268	27610
814.41	27656
814.551	27652
814.692	27797
814.833	27549
814.974	27686
815.115	27492
815.256	27534
815.397	27492
815.539	27466
815.68	27317
815.821	27397
815.962	27606
816.103	27420
816.244	27298
816.385	27150
816.526	27207
816.666	27039
816.807	26948
816.948	27062
817.089	27051
817.23	26940
817.371	26921
817.512	26982
817.653	26952
817.793	26785
817.934	26823
818.075	26785
818.216	26868
818.356	26864
818.497	26788
818.638	26640
818.778	26682
818.919	26655
819.06	26792
819.2	26762
819.341	26956
819.481	26781
819.622	27070
819.762	27325
819.903	27214
820.043	27165
820.184	26960
820.324	26998
820.465	27039
820.605	27192
820.746	26956
820.886	26937
821.026	27123
821.167	26963
821.307	26971
821.447	26990
821.588	26785
821.728	26788
821.868	26484
822.008	26377
822.149	26434
822.289	26396
822.429	26103
822.569	26153
822.709	25909
822.849	25852
822.99	25936
823.13	25940
823.27	25856
823.41	25731
823.55	25609
823.69	25784
823.83	25662
823.97	25674
824.11	25563
824.25	25510
824.389	25525
824.529	25597
824.669	25533
824.809	25635
824.949	25594
825.089	25563
825.228	25601
825.368	25449
825.508	25529
825.648	25510
825.787	25540
825.927	25468
826.067	25445
826.206	25457
826.346	25449
826.485	25453
826.625	25419
826.765	25506
826.904	25373
827.044	25209
827.183	25209
827.323	25141
827.462	25225
827.601	25126
827.741	25206
827.88	25133
828.02	25061
828.159	25194
828.298	25091
828.437	25129
828.577	24989
828.716	25099
828.855	25088
828.994	24821
829.134	25004
829.273	24825
829.412	24829
829.551	24749
829.69	24779
829.829	24810
829.968	24894
830.107	24916
830.246	24848
830.385	24692
830.524	24741
830.663	24635
830.802	24650
830.941	24582
831.08	24471
831.219	24475
831.357	24521
831.496	24623
831.635	24475
831.774	24346
831.913	24304
832.051	24235
832.19	24224
832.329	24167
832.467	24216
832.606	24087
832.744	24011
832.883	24121
833.022	24079
833.16	24125
833.299	24144
833.437	24167
833.576	24228
833.714	24125
833.852	24182
833.991	24148
834.129	24216
834.267	24311
834.406	24277
834.544	24384
834.682	24197
834.821	24209
834.959	24437
835.097	24205
835.235	24182
835.373	24232
835.511	24213
835.65	24125
835.788	24121
835.926	23897
836.064	23958
836.202	23901
836.34	24038
836.478	24079
836.615	24072
836.753	23946
836.891	24106
837.029	24015
837.167	23954
837.305	23878
837.443	23954
837.58	23798
837.718	23927
837.856	23832
837.993	23851
838.131	23977
838.269	23615
838.406	23710
838.544	23760
838.681	23512
838.819	23501
838.956	23402
839.094	23296
839.231	23376
839.369	23592
839.506	23672
839.643	23748
839.781	23455
839.918	23235
840.055	23208
840.193	23311
840.33	23356
840.467	23345
840.604	23330
840.742	23531
840.879	23102
841.016	23212
841.153	23212
841.29	23372
841.427	23311
841.564	23288
841.701	23223
841.838	23166
841.975	23189
842.112	23151
842.249	23086
842.385	23029
842.522	23261
842.659	23204
842.796	23075
842.933	22953
843.069	23033
843.206	22972
843.343	23109
843.479	22984
843.616	22942
843.752	22869
843.889	22904
844.025	22877
844.162	22729
844.298	22744
844.435	22809
844.571	22820
844.708	22752
844.844	23094
844.98	22854
845.117	22953
845.253	22641
845.389	22653
845.525	22683
845.661	22599
845.798	22436
845.934	22588
846.07	22500
846.206	22527
846.342	22656
846.478	22470
846.614	22272
846.75	22215
846.886	22295
847.022	22325
847.158	22257
847.294	22382
847.429	22223
847.565	22253
847.701	22405
847.837	22112
847.972	22078
848.108	21991
848.244	22120
848.379	21922
848.515	21808
848.65	21709
848.786	21857
848.921	21899
849.057	21941
849.192	21937
849.328	21915
849.463	21827
849.598	21861
849.734	21800
849.869	21701
850.004	21614
850.14	21682
850.275	21675
850.41	21454
850.545	21583
850.68	21549
850.815	21720
850.95	21660
851.085	21709
851.22	21728
851.355	21656
851.49	21603
851.625	21526
851.76	21614
851.895	21523
852.03	21473
852.165	21720
852.299	21568
852.434	21793
852.569	21542
852.703	21686
852.838	21660
852.973	21865
853.107	21800
853.242	21545
853.376	21408
853.511	21230
853.645	21477
853.78	21462
853.914	21458
854.048	21469
854.183	21462
854.317	21405
854.451	21778
854.585	21428
854.72	21473
854.854	21435
854.988	21389
855.122	21412
855.256	21180
855.39	21481
855.524	21401
855.658	21462
855.792	21458
855.926	21397
856.06	21466
856.194	21526
856.327	21374
856.461	21393
856.595	21397
856.729	21389
856.862	21477
856.996	21370
857.13	21504
857.263	21545
857.397	21500
857.53	21374
857.664	21454
857.797	21466
857.931	21549
858.064	21454
858.197	21473
858.331	21363
858.464	21325
858.597	21443
858.731	21386
858.864	21268
858.997	21389
859.13	21401
859.263	21424
859.396	21424
859.529	21374
859.662	21450
859.795	21310
859.928	21462
860.061	21549
860.194	21660
860.327	21481
860.46	21469
860.592	21572
860.725	21629
860.858	21622
860.99	21557
861.123	21291
861.256	21408
861.388	21469
861.521	22017
861.653	21275
861.786	21283
861.918	21264
862.05	21192
862.183	21355
862.315	21393
862.447	21545
862.58	21363
862.712	21233
862.844	21055
862.976	21302
863.108	21279
863.24	21515
863.372	21131
863.504	21192
863.636	21138
863.768	21169
863.9	21055
864.032	21024
864.164	21039
864.296	21199
864.428	21218
864.559	21146
864.691	21226
864.823	21211
864.954	21116
865.086	21093
865.217	21146
865.349	20921
865.48	21039
865.612	21146
865.743	21203
865.875	20975
866.006	20918
866.137	21055
866.269	20944
866.4	21013
866.531	21013
866.662	20895
866.793	20876
866.924	20941
867.055	20952
867.186	20845
867.317	20891
867.448	20849
867.579	20910
867.71	20849
867.841	20891
867.972	20895
868.103	20979
868.233	20956
868.364	21058
868.495	21138
868.625	21165
868.756	21378
868.886	21142
869.017	21188
869.147	21298
869.278	21268
869.408	21317
869.539	21116
869.669	21218
869.799	21237
869.929	21306
870.06	21355
870.19	21625
870.32	21473
870.45	21526
870.58	21561
870.71	21720
870.84	21599
870.97	21553
871.1	21469
871.23	21778
871.36	21785
871.489	21766
871.619	21808
871.749	21717
871.879	21892
872.008	21880
872.138	21884
872.267	21778
872.397	21690
872.526	21656
872.656	21679
872.785	21523
872.915	21854
873.044	21827
873.173	21884
873.303	21861
873.432	21869
873.561	21899
873.69	21899
873.819	21827
873.948	21842
874.077	21838
874.206	21743
874.335	21823
874.464	21827
874.593	22101
874.722	21918
874.851	22158
874.979	22109
875.108	22032
875.237	22029
875.365	21865
875.494	21945
875.623	22059
875.751	22010
875.88	22143
876.008	22112
876.136	22276
876.265	22493
876.393	22512
876.521	22508
876.65	22466
876.778	22413
876.906	22432
877.034	22398
877.162	22424
877.29	22371
877.418	22405
877.546	22386
877.674	22436
877.802	22432
877.93	22310
878.058	22424
878.185	22265
878.313	22314
878.441	22523
878.568	22196
878.696	22344
878.824	22310
878.951	22538
879.079	22527
879.206	22793
879.333	22649
879.461	22428
879.588	22436
879.715	22687
879.842	22713
879.97	22519
880.097	22211
880.224	22219
880.351	22280
880.478	22196
880.605	22166
880.732	22226
880.859	22436
880.986	22341
881.112	22249
881.239	22074
881.366	22067
881.493	21854
881.619	21926
881.746	21785
881.872	21823
881.999	21709
882.125	21720
882.252	21709
882.378	21755
882.505	21816
882.631	21705
882.757	21408
882.883	21583
883.01	21477
883.136	21435
883.262	21435
883.388	21382
883.514	21485
883.64	21492
883.766	21462
883.892	21256
884.018	21355
884.143	21488
884.269	21542
884.395	21142
884.52	21119
884.646	21230
884.772	21108
884.897	20925
885.023	21142
885.148	21279
885.274	21313
885.399	21268
885.524	21119
885.65	21146
885.775	21138
885.9	21062
886.025	21283
886.15	21157
886.275	21051
886.4	21028
886.525	21188
886.65	21135
886.775	21100
886.9	21230
887.025	21218
887.149	21074
887.274	20921
887.399	20830
887.523	20864
887.648	20853
887.773	20979
887.897	21009
888.021	20883
888.146	20845
888.27	20815
888.395	20937
888.519	20842
888.643	21047
888.767	20998
888.891	20826
889.015	20716
889.139	20792
889.263	20663
889.387	20842
889.511	20876
889.635	20811
889.759	20636
889.883	20697
890.006	20815
890.13	20788
890.254	20579
890.377	20590
890.501	20473
890.624	20389
890.748	20511
890.871	20317
890.995	20366
891.118	20259
891.241	20332
891.364	20324
891.488	20412
891.611	20282
891.734	20256
891.857	20320
891.98	20267
892.103	20336
892.226	20229
892.349	20157
892.471	20077
892.594	20157
892.717	20214
892.839	19997
892.962	20119
893.085	20180
893.207	20126
893.33	20126
893.452	20069
893.575	20218
893.697	20134
893.819	20362
893.941	20400
894.064	20377
894.186	20039
894.308	20069
894.43	20381
894.552	20362
894.674	20233
894.796	20134
894.918	20161
895.04	20046
895.161	20294
895.283	20191
895.405	20081
895.526	20100
895.648	20176
895.769	20054
895.891	20218
896.012	20336
896.134	20240
896.255	20164
896.376	20149
896.498	20161
896.619	20111
896.74	20084
896.861	20164
896.982	20495
897.103	20488
897.224	20362
897.345	20263
897.466	20301
897.587	20366
897.708	20480
897.828	20457
897.949	20305
898.07	20233
898.19	20244
898.311	20404
898.431	20301
898.552	20396
898.672	20389
898.792	20419
898.913	20328
899.033	20240
899.153	20229
899.273	20100
899.393	20115
899.513	20138
899.633	20153
899.753	20107
899.873	20100
899.993	20172
900.113	20001
900.232	20115
900.352	20039
900.472	19989
900.591	19856
900.711	19883
900.83	19803
900.95	19970
901.069	19925
901.189	19765
901.308	19571
901.427	19624
901.546	19533
901.665	19350
901.784	19495
901.904	19228
902.023	19259
902.141	19099
902.26	19080
902.379	18970
902.498	19031
902.617	18970
902.735	19019
902.854	19053
902.973	18844
903.091	18661
903.21	18669
903.328	18642
903.446	18559
903.565	18521
903.683	18475
903.801	18361
903.919	18388
904.038	18372
904.156	18270
904.274	18266
904.392	18213
904.51	18159
904.627	18266
904.745	18197
904.863	18266
904.981	18079
905.098	17916
905.216	17988
905.334	17984
905.451	18060
905.569	17741
905.686	17847
905.803	17840
905.921	17745
906.038	17832
906.155	17714
906.272	17649
906.389	17592
906.506	17478
906.623	17551
906.74	17379
906.857	17200
906.974	17387
907.091	17532
907.208	17573
907.324	17448
907.441	17360
907.557	17162
907.674	17155
907.79	17147
907.907	17178
908.023	17261
908.139	17155
908.256	17143
908.372	17037
908.488	17022
908.604	16900
908.72	16831
908.836	16968
908.952	16801
909.068	16968
909.184	16961
909.3	16843
909.415	16953
909.531	16885
909.647	16592
909.762	16660
909.878	16611
909.993	16497
910.108	16561
910.224	16443
910.339	16519
910.454	16382
910.57	16432
910.685	16344
910.8	16611
910.915	16504
911.03	16394
911.145	16219
911.259	16211
911.374	16101
911.489	16215
911.604	16177
911.718	15937
911.833	15819
911.947	15816
912.062	15713
912.176	15846
912.291	15907
912.405	15869
912.519	16006
912.633	16063
912.748	15991
912.862	15953
912.976	15759
913.09	15686
913.204	15679
913.318	15717
913.431	15778
913.545	15835
913.659	15884
913.772	15690
913.886	15606
914	15485
914.113	15633
914.226	15644
914.34	15576
914.453	15447
914.566	15576
914.68	15481
914.793	15378
914.906	15237
915.019	15195
915.132	15032
915.245	15218
915.358	15066
915.47	15104
915.583	15142
915.696	15180
915.809	15272
915.921	15279
916.034	15097
916.146	15055
916.259	15009
916.371	15146
916.483	15039
916.595	14956
916.708	14982
916.82	14941
916.932	15070
917.044	14941
917.156	14925
917.268	14777
917.38	14819
917.491	14769
917.603	14777
917.715	14853
917.826	14933
917.938	14788
918.049	14659
918.161	14716
918.272	14804
918.384	14849
918.495	14712
918.606	14579
918.717	14469
918.828	14568
918.939	14644
919.05	14419
919.161	14469
919.272	14317
919.383	14389
919.494	14514
919.604	14804
919.715	14533
919.826	14408
919.936	14514
920.047	14571
920.157	14552
920.267	14632
920.378	14503
920.488	14518
920.598	14655
920.708	14815
920.818	14670
920.928	14659
921.038	14705
921.148	14686
921.258	14427
921.368	14339
921.477	14313
921.587	14206
921.697	14081
921.806	14206
921.916	14103
922.025	13944
922.134	13860
922.244	13898
922.353	13841
922.462	13708
922.571	13700
922.68	13506
922.789	13575
922.898	13628
923.007	13529
923.116	13575
923.224	13529
923.333	13582
923.442	13304
923.55	13308
923.659	13426
923.767	13434
923.876	13320
923.984	13373
924.092	13228
924.201	13335
924.309	13236
924.417	13316
924.525	13289
924.633	13217
924.741	13947
924.849	12924
924.956	13061
925.064	12977
925.172	12852
925.279	13027
925.387	13008
925.494	12856
925.602	13141
925.709	12973
925.816	12924
925.924	12985
926.031	12996
926.138	12817
926.245	12897
926.352	12825
926.459	12973
926.566	12954
926.673	12791
926.779	12681
926.886	12768
926.993	12555
927.099	12559
927.206	12528
927.312	12483
927.419	12475
927.525	12513
927.631	12445
927.737	12414
927.843	12247
927.95	12194
928.056	12319
928.162	12327
928.267	12353
928.373	13046
928.479	12410
928.585	12216
928.69	12353
928.796	12327
928.901	12155
929.007	12106
929.112	12178
929.218	12106
929.323	12038
929.428	12049
929.533	12129
929.638	11946
929.743	12022
929.848	11958
929.953	11950
930.058	11851
930.163	11775
930.267	11764
930.372	11923
930.477	11672
930.581	11935
930.685	11745
930.79	11661
930.894	11596
930.998	11623
931.103	11661
931.207	11311
931.311	11322
931.415	11147
931.519	10968
931.623	10961
