Data from test_V78500241_3252.txt Node
Date: Fri Mar 25 15:32:30 CST 2022
User: usil
Spectrometer: V785-0024
Trigger mode: 0
Integration Time (sec): 4.000000E-1
Scans to average: 1
Nonlinearity correction enabled: false
Boxcar width: 0
Storing dark spectrum: false
XAxis mode: Wavelengths
Number of Pixels in Spectrum: 1024
>>>>>Begin Spectral Data<<<<<
801.071	27272
801.214	27154
801.356	27096
801.499	26804
801.641	26800
801.783	26800
801.926	26807
802.068	26746
802.211	26834
802.353	26640
802.496	26739
802.638	26446
802.78	26461
802.923	26389
803.065	26191
803.208	26446
803.35	26499
803.492	26522
803.635	26583
803.777	26438
803.919	26625
804.061	26868
804.204	26670
804.346	26522
804.488	26446
804.63	26590
804.773	26461
804.915	26606
805.057	26621
805.199	26514
805.341	26606
805.483	26667
805.626	26598
805.768	26686
805.91	26689
806.052	26731
806.194	26651
806.336	26849
806.478	26655
806.62	26598
806.762	26754
806.904	26861
807.046	27070
807.188	27119
807.33	27112
807.472	27188
807.614	27085
807.756	27150
807.898	27051
808.04	26765
808.182	26914
808.324	26921
808.465	26986
808.607	27211
808.749	27256
808.891	27363
809.033	27435
809.174	27393
809.316	27386
809.458	27340
809.6	27298
809.741	27329
809.883	27443
810.025	27610
810.166	27572
810.308	27606
810.45	27523
810.591	27530
810.733	27131
810.875	27249
811.016	27154
811.158	27313
811.299	27477
811.441	27507
811.582	27469
811.724	27355
811.865	27291
812.007	27249
812.148	27325
812.29	27386
812.431	27443
812.573	27660
812.714	27545
812.855	27717
812.997	27732
813.138	27899
813.279	27869
813.421	27800
813.562	27580
813.703	27519
813.845	27462
813.986	27207
814.127	27005
814.268	26864
814.41	26960
814.551	26937
814.692	26891
814.833	26853
814.974	26902
815.115	27005
815.256	26811
815.397	26864
815.539	26864
815.68	26712
815.821	26705
815.962	26754
816.103	26724
816.244	26636
816.385	26412
816.526	26495
816.666	26191
816.807	26122
816.948	26286
817.089	26347
817.23	26240
817.371	26191
817.512	26267
817.653	26119
817.793	26168
817.934	26115
818.075	26259
818.216	26168
818.356	26210
818.497	26020
818.638	25955
818.778	25894
818.919	25898
819.06	26020
819.2	26073
819.341	26263
819.481	26218
819.622	26271
819.762	26545
819.903	26427
820.043	26412
820.184	26301
820.324	26271
820.465	26488
820.605	26362
820.746	26298
820.886	26176
821.026	26278
821.167	26332
821.307	26259
821.447	26202
821.588	26161
821.728	25955
821.868	25723
822.008	25693
822.149	25643
822.289	25696
822.429	25426
822.569	25373
822.709	25289
822.849	25255
822.99	25244
823.13	25213
823.27	25152
823.41	24909
823.55	24772
823.69	25053
823.83	24886
823.97	24996
824.11	24760
824.25	24814
824.389	24840
824.529	24935
824.669	24768
824.809	24878
824.949	24924
825.089	24989
825.228	24856
825.368	24616
825.508	24578
825.648	24684
825.787	24661
825.927	24738
826.067	24776
826.206	24707
826.346	24852
826.485	24882
826.625	24806
826.765	24703
826.904	24821
827.044	24479
827.183	24414
827.323	24372
827.462	24608
827.601	24559
827.741	24433
827.88	24505
828.02	24391
828.159	24467
828.298	24399
828.437	24445
828.577	24376
828.716	24528
828.855	24353
828.994	24148
829.134	24098
829.273	24194
829.412	24068
829.551	24068
829.69	24270
829.829	24197
829.968	24201
830.107	24178
830.246	24155
830.385	24155
830.524	23961
830.663	23927
830.802	23851
830.941	23733
831.08	23592
831.219	23908
831.357	23901
831.496	23958
831.635	23756
831.774	23585
831.913	23592
832.051	23531
832.19	23433
832.329	23592
832.467	23452
832.606	23395
832.744	23486
832.883	23417
833.022	23486
833.16	23364
833.299	23440
833.437	23433
833.576	23482
833.714	23512
833.852	23505
833.991	23440
834.129	23604
834.267	23615
834.406	23585
834.544	23577
834.682	23543
834.821	23531
834.959	23726
835.097	23341
835.235	23539
835.373	23600
835.511	23501
835.65	23414
835.788	23467
835.926	23315
836.064	23166
836.202	23151
836.34	23455
836.478	23531
836.615	23490
836.753	23250
836.891	23417
837.029	23459
837.167	23326
837.305	23204
837.443	23239
837.58	23174
837.718	23318
837.856	23121
837.993	23208
838.131	23128
838.269	23155
838.406	23204
838.544	23029
838.681	22725
838.819	22885
838.956	22645
839.094	22626
839.231	22713
839.369	22843
839.506	23155
839.643	22889
839.781	22592
839.918	22786
840.055	22645
840.193	22656
840.33	22687
840.467	22622
840.604	22759
840.742	22904
840.879	22535
841.016	22554
841.153	22500
841.29	22797
841.427	22516
841.564	22626
841.701	22466
841.838	22481
841.975	22584
842.112	22554
842.249	22462
842.385	22402
842.522	22538
842.659	22546
842.796	22394
842.933	22386
843.069	22436
843.206	22261
843.343	22428
843.479	22432
843.616	22440
843.752	22074
843.889	22238
844.025	22329
844.162	22063
844.298	22405
844.435	22344
844.571	22196
844.708	22158
844.844	22299
844.98	22268
845.117	22284
845.253	22112
845.389	21983
845.525	22021
845.661	21983
845.798	21846
845.934	21953
846.07	21865
846.206	21975
846.342	21911
846.478	21842
846.614	21781
846.75	21549
846.886	21732
847.022	21625
847.158	21671
847.294	21660
847.429	21629
847.565	21641
847.701	21819
847.837	21272
847.972	21340
848.108	21477
848.244	21378
848.379	21256
848.515	21348
848.65	21089
848.786	21157
848.921	21245
849.057	21294
849.192	21287
849.328	21344
849.463	21230
849.598	21169
849.734	21123
849.869	21047
850.004	21032
850.14	20960
850.275	21055
850.41	20963
850.545	20982
850.68	20994
850.815	20971
850.95	20952
851.085	21256
851.22	21142
851.355	20933
851.49	20982
851.625	20826
851.76	20937
851.895	20819
852.03	20739
852.165	20982
852.299	20986
852.434	21119
852.569	21009
852.703	20986
852.838	20975
852.973	21093
853.107	20990
853.242	20914
853.376	20895
853.511	20712
853.645	20834
853.78	20944
853.914	20762
854.048	20800
854.183	20724
854.317	20819
854.451	21081
854.585	20811
854.72	20746
854.854	20819
854.988	20769
855.122	20826
855.256	20636
855.39	20758
855.524	20975
855.658	20838
855.792	20921
855.926	20785
856.06	20895
856.194	20853
856.327	20689
856.461	20792
856.595	20720
856.729	20792
856.862	20899
856.996	20716
857.13	20895
857.263	20910
857.397	20899
857.53	20712
857.664	20845
857.797	20834
857.931	20864
858.064	20815
858.197	20838
858.331	20804
858.464	20845
858.597	20746
858.731	20891
858.864	20720
858.997	20788
859.13	20902
859.263	20826
859.396	20960
859.529	20845
859.662	20777
859.795	20682
859.928	20849
860.061	20956
860.194	20963
860.327	20918
860.46	20800
860.592	20849
860.725	20994
860.858	21028
860.99	20815
861.123	20716
861.256	20769
861.388	20868
861.521	21370
861.653	20750
861.786	20552
861.918	20629
862.05	20621
862.183	20708
862.315	20800
862.447	20735
862.58	20716
862.712	20667
862.844	20526
862.976	20655
863.108	20545
863.24	21081
863.372	20541
863.504	20571
863.636	20621
863.768	20552
863.9	20518
864.032	20507
864.164	20514
864.296	20632
864.428	20530
864.559	20488
864.691	20640
864.823	20511
864.954	20465
865.086	20549
865.217	20343
865.349	20385
865.48	20389
865.612	20457
865.743	20697
865.875	20492
866.006	20377
866.137	20434
866.269	20233
866.4	20385
866.531	20374
866.662	20343
866.793	20301
866.924	20328
867.055	20412
867.186	20370
867.317	20438
867.448	20427
867.579	20389
867.71	20218
867.841	20210
867.972	20339
868.103	20370
868.233	20328
868.364	20381
868.495	20336
868.625	20655
868.756	20651
868.886	20568
869.017	20579
869.147	20765
869.278	20735
869.408	20655
869.539	20583
869.669	20663
869.799	20788
869.929	20724
870.06	20807
870.19	20979
870.32	20887
870.45	20906
870.58	21055
870.71	21169
870.84	20960
870.97	20967
871.1	21005
871.23	21203
871.36	21268
871.489	21123
871.619	21150
871.749	21325
871.879	21237
872.008	21321
872.138	21176
872.267	21203
872.397	21089
872.526	21039
872.656	21017
872.785	21169
872.915	21241
873.044	21211
873.173	21252
873.303	21275
873.432	21237
873.561	21252
873.69	21317
873.819	21268
873.948	21389
874.077	21176
874.206	21256
874.335	21279
874.464	21283
874.593	21519
874.722	21462
874.851	21500
874.979	21412
875.108	21462
875.237	21443
875.365	21416
875.494	21439
875.623	21504
875.751	21393
875.88	21424
876.008	21591
876.136	21675
876.265	21915
876.393	21979
876.521	21930
876.65	21983
876.778	21968
876.906	21797
877.034	21819
877.162	21846
877.29	21717
877.418	21762
877.546	21827
877.674	21781
877.802	21941
877.93	21857
878.058	21747
878.185	21637
878.313	21759
878.441	21766
878.568	21614
878.696	21808
878.824	21747
878.951	21812
879.079	22036
879.206	22112
879.333	22040
879.461	21861
879.588	21937
879.715	22036
879.842	22017
879.97	21994
880.097	21717
880.224	21625
880.351	21603
880.478	21705
880.605	21515
880.732	21610
880.859	21895
880.986	21660
881.112	21679
881.239	21515
881.366	21504
881.493	21256
881.619	21176
881.746	21332
881.872	21233
881.999	21077
882.125	21214
882.252	21317
882.378	21089
882.505	21268
882.631	21146
882.757	20910
882.883	21039
883.01	21005
883.136	20880
883.262	20849
883.388	20777
883.514	20948
883.64	20998
883.766	20933
883.892	20727
884.018	20670
884.143	20895
884.269	20979
884.395	20602
884.52	20667
884.646	20655
884.772	20522
884.897	20514
885.023	20598
885.148	20617
885.274	20583
885.399	20674
885.524	20602
885.65	20590
885.775	20590
885.9	20495
886.025	20632
886.15	20636
886.275	20473
886.4	20457
886.525	20712
886.65	20526
886.775	20514
886.9	20636
887.025	20838
887.149	20708
887.274	20374
887.399	20370
887.523	20339
887.648	20320
887.773	20271
887.897	20343
888.021	20465
888.146	20214
888.27	20503
888.395	20442
888.519	20423
888.643	20324
888.767	20351
888.891	20271
889.015	20248
889.139	20275
889.263	20107
889.387	20252
889.511	20358
889.635	20317
889.759	20142
889.883	20130
890.006	20199
890.13	20278
890.254	20058
890.377	20149
890.501	19898
890.624	19879
890.748	19833
890.871	19864
890.995	19772
891.118	19643
891.241	19712
891.364	19738
891.488	19883
891.611	19811
891.734	19693
891.857	19738
891.98	19845
892.103	19746
892.226	19719
892.349	19769
892.471	19544
892.594	19723
892.717	19613
892.839	19540
892.962	19723
893.085	19742
893.207	19715
893.33	19605
893.452	19628
893.575	19769
893.697	19563
893.819	19704
893.941	19830
894.064	19731
894.186	19582
894.308	19571
894.43	19761
894.552	19708
894.674	19689
894.796	19605
894.918	19674
895.04	19704
895.161	19700
895.283	19719
895.405	19533
895.526	19708
895.648	19521
895.769	19681
895.891	19765
896.012	19807
896.134	19704
896.255	19772
896.376	19696
896.498	19544
896.619	19597
896.74	19609
896.861	19605
896.982	20081
897.103	20058
897.224	19894
897.345	19753
897.466	19772
897.587	19837
897.708	20100
897.828	19925
897.949	19837
898.07	19772
898.19	19811
898.311	19898
898.431	19811
898.552	19841
898.672	19970
898.792	19932
898.913	19921
899.033	19742
899.153	19677
899.273	19556
899.393	19704
899.513	19700
899.633	19628
899.753	19655
899.873	19460
899.993	19525
900.113	19540
900.232	19609
900.352	19510
900.472	19487
900.591	19365
900.711	19499
900.83	19320
900.95	19453
901.069	19468
901.189	19320
901.308	19023
901.427	18962
901.546	18966
901.665	19080
901.784	19038
901.904	18764
902.023	18772
902.141	18642
902.26	18597
902.379	18791
902.498	18585
902.617	18555
902.735	18540
902.854	18490
902.973	18391
903.091	18140
903.21	18213
903.328	18262
903.446	18038
903.565	18095
903.683	18022
903.801	17866
903.919	18038
904.038	17916
904.156	17767
904.274	17798
904.392	17748
904.51	17745
904.627	17767
904.745	17832
904.863	17767
904.981	17570
905.098	17554
905.216	17402
905.334	17467
905.451	17486
905.569	17474
905.686	17372
905.803	17459
905.921	17216
906.038	17258
906.155	17288
906.272	17121
906.389	17250
906.506	16980
906.623	17083
906.74	16965
906.857	16816
906.974	16843
907.091	17022
907.208	17052
907.324	17033
907.441	16919
907.557	16672
907.674	16755
907.79	16717
907.907	16755
908.023	16782
908.139	16759
908.256	16725
908.372	16637
908.488	16641
908.604	16459
908.72	16432
908.836	16474
908.952	16440
909.068	16500
909.184	16622
909.3	16371
909.415	16504
909.531	16440
909.647	16120
909.762	16139
909.878	16196
909.993	16135
910.108	16051
910.224	16044
910.339	16105
910.454	15987
910.57	16032
910.685	15949
910.8	16086
910.915	16196
911.03	15930
911.145	15751
911.259	15762
911.374	15778
911.489	15720
911.604	15679
911.718	15523
911.833	15523
911.947	15408
912.062	15291
912.176	15519
912.291	15526
912.405	15568
912.519	15587
912.633	15625
912.748	15549
912.862	15564
912.976	15397
913.09	15249
913.204	15230
913.318	15287
913.431	15412
913.545	15405
913.659	15481
913.772	15340
913.886	15108
914	15180
914.113	15260
914.226	15188
914.34	15154
914.453	15039
914.566	15176
914.68	14971
914.793	14963
914.906	14731
915.019	14887
915.132	14705
915.245	14693
915.358	14735
915.47	14796
915.583	14750
915.696	14773
915.809	14902
915.921	14823
916.034	14720
916.146	14705
916.259	14667
916.371	14750
916.483	14682
916.595	14590
916.708	14625
916.82	14621
916.932	14541
917.044	14552
917.156	14537
917.268	14389
917.38	14415
917.491	14446
917.603	14442
917.715	14530
917.826	14499
917.938	14351
918.049	14343
918.161	14339
918.272	14511
918.384	14438
918.495	14298
918.606	14180
918.717	14153
918.828	14123
918.939	14256
919.05	14073
919.161	14142
919.272	13970
919.383	14027
919.494	14221
919.604	14294
919.715	14168
919.826	14077
919.936	14138
920.047	14218
920.157	14164
920.267	14286
920.378	14172
920.488	14077
920.598	14259
920.708	14396
920.818	14244
920.928	14320
921.038	14469
921.148	14412
921.258	14096
921.368	14077
921.477	13898
921.587	13856
921.697	13704
921.806	13890
921.916	13719
922.025	13590
922.134	13502
922.244	13453
922.353	13495
922.462	13377
922.571	13308
922.68	13194
922.789	13187
922.898	13293
923.007	13179
923.116	13270
923.224	13221
923.333	13141
923.442	13027
923.55	13050
923.659	13004
923.767	13168
923.876	12875
923.984	13046
924.092	12905
924.201	12939
924.309	12958
924.417	12890
924.525	12878
924.633	12863
924.741	13784
924.849	12635
924.956	12852
925.064	12688
925.172	12593
925.279	12646
925.387	12703
925.494	12669
925.602	12760
925.709	12692
925.816	12589
925.924	12582
926.031	12604
926.138	12639
926.245	12445
926.352	12467
926.459	12642
926.566	12627
926.673	12551
926.779	12464
926.886	12414
926.993	12247
927.099	12266
927.206	12163
927.312	12190
927.419	12197
927.525	12136
927.631	12292
927.737	12136
927.843	12133
927.95	11931
928.056	12060
928.162	11923
928.267	12148
928.373	12677
928.479	12083
928.585	11920
928.69	11942
928.796	12057
928.901	11935
929.007	11729
929.112	11893
929.218	11874
929.323	11767
929.428	11737
929.533	11908
929.638	11592
929.743	11672
929.848	11733
929.953	11722
930.058	11619
930.163	11474
930.267	11360
930.372	11547
930.477	11429
930.581	11688
930.685	11490
930.79	11368
930.894	11406
930.998	11315
931.103	11512
931.207	11045
931.311	11102
931.415	10946
931.519	10782
931.623	10759
