Data from test_V78500241_1036.txt Node
Date: Fri Mar 25 15:17:04 CST 2022
User: usil
Spectrometer: V785-0024
Trigger mode: 0
Integration Time (sec): 4.000000E-1
Scans to average: 1
Nonlinearity correction enabled: false
Boxcar width: 0
Storing dark spectrum: false
XAxis mode: Wavelengths
Number of Pixels in Spectrum: 1024
>>>>>Begin Spectral Data<<<<<
801.071	28211
801.214	27979
801.356	27922
801.499	27808
801.641	27812
801.783	27797
801.926	27949
802.068	27789
802.211	27667
802.353	27599
802.496	27427
802.638	27405
802.78	27351
802.923	27382
803.065	27325
803.208	27207
803.35	27427
803.492	27420
803.635	27583
803.777	27481
803.919	27656
804.061	27880
804.204	27599
804.346	27542
804.488	27500
804.63	27530
804.773	27637
804.915	27618
805.057	27690
805.199	27728
805.341	27800
805.483	27728
805.626	27895
805.768	27568
805.91	27747
806.052	27766
806.194	27671
806.336	27888
806.478	27793
806.62	27835
806.762	27743
806.904	28048
807.046	28341
807.188	28211
807.33	28162
807.472	28226
807.614	28078
807.756	28124
807.898	27941
808.04	27922
808.182	27960
808.324	28131
808.465	28150
808.607	28219
808.749	28409
808.891	28421
809.033	28584
809.174	28390
809.316	28546
809.458	28497
809.6	28459
809.741	28588
809.883	28611
810.025	28668
810.166	28740
810.308	28664
810.45	28816
810.591	28622
810.733	28497
810.875	28535
811.016	28310
811.158	28367
811.299	28478
811.441	28455
811.582	28462
811.724	28314
811.865	28455
812.007	28424
812.148	28557
812.29	28413
812.431	28672
812.573	28744
812.714	28877
812.855	28881
812.997	29003
813.138	29162
813.279	29121
813.421	29197
813.562	28904
813.703	28953
813.845	28812
813.986	28421
814.127	28238
814.268	28223
814.41	28074
814.551	28097
814.692	28124
814.833	28124
814.974	28055
815.115	28276
815.256	28059
815.397	27983
815.539	28017
815.68	27956
815.821	27907
815.962	27953
816.103	27888
816.244	27842
816.385	27774
816.526	27679
816.666	27542
816.807	27504
816.948	27583
817.089	27587
817.23	27481
817.371	27454
817.512	27401
817.653	27450
817.793	27412
817.934	27469
818.075	27443
818.216	27568
818.356	27519
818.497	27416
818.638	27146
818.778	27199
818.919	27272
819.06	27287
819.2	27393
819.341	27545
819.481	27534
819.622	27644
819.762	27789
819.903	27728
820.043	27561
820.184	27511
820.324	27538
820.465	27606
820.605	27530
820.746	27660
820.886	27439
821.026	27530
821.167	27507
821.307	27625
821.447	27500
821.588	27454
821.728	27264
821.868	27043
822.008	26937
822.149	26899
822.289	27036
822.429	26735
822.569	26697
822.709	26545
822.849	26488
822.99	26476
823.13	26492
823.27	26434
823.41	26244
823.55	26138
823.69	26400
823.83	26278
823.97	26122
824.11	26039
824.25	26020
824.389	26119
824.529	26172
824.669	26130
824.809	26161
824.949	26092
825.089	26206
825.228	26157
825.368	25921
825.508	25917
825.648	26096
825.787	25955
825.927	26043
826.067	26020
826.206	25947
826.346	26062
826.485	26084
826.625	25963
826.765	26088
826.904	26001
827.044	25750
827.183	25731
827.323	25696
827.462	25715
827.601	25750
827.741	25734
827.88	25772
828.02	25559
828.159	25628
828.298	25616
828.437	25727
828.577	25594
828.716	25822
828.855	25662
828.994	25377
829.134	25502
829.273	25460
829.412	25472
829.551	25301
829.69	25453
829.829	25392
829.968	25525
830.107	25369
830.246	25479
830.385	25263
830.524	25259
830.663	25164
830.802	25156
830.941	25099
831.08	25072
831.219	25114
831.357	25099
831.496	25187
831.635	24848
831.774	25061
831.913	25091
832.051	24825
832.19	24833
832.329	24821
832.467	24719
832.606	24650
832.744	24696
832.883	24738
833.022	24749
833.16	24760
833.299	24779
833.437	24825
833.576	24943
833.714	24681
833.852	24916
833.991	24817
834.129	24867
834.267	24878
834.406	24722
834.544	24920
834.682	24905
834.821	24821
834.959	25046
835.097	24635
835.235	24859
835.373	24795
835.511	24764
835.65	24711
835.788	24585
835.926	24517
836.064	24426
836.202	24445
836.34	24601
836.478	24703
836.615	24563
836.753	24601
836.891	24688
837.029	24688
837.167	24525
837.305	24601
837.443	24505
837.58	24464
837.718	24623
837.856	24544
837.993	24239
838.131	24403
838.269	24251
838.406	24391
838.544	24399
838.681	23984
838.819	24057
838.956	24022
839.094	23893
839.231	24102
839.369	24194
839.506	24330
839.643	24251
839.781	23992
839.918	23893
840.055	23942
840.193	23874
840.33	23828
840.467	23942
840.604	23840
840.742	24076
840.879	23805
841.016	23882
841.153	23741
841.29	23901
841.427	23863
841.564	23927
841.701	23859
841.838	23843
841.975	23786
842.112	23699
842.249	23627
842.385	23691
842.522	23866
842.659	23684
842.796	23562
842.933	23630
843.069	23531
843.206	23630
843.343	23729
843.479	23596
843.616	23619
843.752	23349
843.889	23341
844.025	23528
844.162	23433
844.298	23551
844.435	23490
844.571	23315
844.708	23307
844.844	23486
844.98	23429
845.117	23406
845.253	23341
845.389	23258
845.525	23277
845.661	23181
845.798	23174
845.934	23166
846.07	23136
846.206	23151
846.342	23208
846.478	23128
846.614	22972
846.75	22908
846.886	22904
847.022	22904
847.158	22831
847.294	22809
847.429	22862
847.565	22824
847.701	23124
847.837	22550
847.972	22634
848.108	22584
848.244	22641
848.379	22432
848.515	22508
848.65	22398
848.786	22394
848.921	22432
849.057	22466
849.192	22592
849.328	22550
849.463	22436
849.598	22413
849.734	22314
849.869	22363
850.004	22284
850.14	22207
850.275	22196
850.41	22162
850.545	22029
850.68	22173
850.815	22105
850.95	22303
851.085	22379
851.22	22276
851.355	22265
851.49	22211
851.625	22226
851.76	22215
851.895	21983
852.03	22196
852.165	22131
852.299	22196
852.434	22238
852.569	22219
852.703	22169
852.838	22287
852.973	22394
853.107	22375
853.242	22143
853.376	22200
853.511	21934
853.645	22040
853.78	22162
853.914	22048
854.048	22166
854.183	22051
854.317	22128
854.451	22238
854.585	22044
854.72	22090
854.854	22082
854.988	21991
855.122	22055
855.256	21808
855.39	21998
855.524	22150
855.658	22044
855.792	21983
855.926	21953
856.06	22181
856.194	22124
856.327	21899
856.461	22124
856.595	21880
856.729	22025
856.862	22139
856.996	22093
857.13	22086
857.263	22070
857.397	22196
857.53	22032
857.664	21975
857.797	22086
857.931	22055
858.064	22124
858.197	22135
858.331	21979
858.464	21922
858.597	21892
858.731	21979
858.864	22082
858.997	22017
859.13	21899
859.263	22013
859.396	22059
859.529	21960
859.662	22010
859.795	22017
859.928	22044
860.061	22287
860.194	22249
860.327	22169
860.46	21972
860.592	22078
860.725	22181
860.858	22074
860.99	22017
861.123	21960
861.256	21934
861.388	22044
861.521	22611
861.653	21975
861.786	21739
861.918	21873
862.05	21835
862.183	21800
862.315	22036
862.447	22124
862.58	21816
862.712	21808
862.844	21755
862.976	21842
863.108	21823
863.24	22234
863.372	21564
863.504	21637
863.636	21732
863.768	21808
863.9	21709
864.032	21747
864.164	21667
864.296	21732
864.428	21835
864.559	21888
864.691	21732
864.823	21793
864.954	21705
865.086	21663
865.217	21682
865.349	21466
865.48	21591
865.612	21618
865.743	21701
865.875	21766
866.006	21553
866.137	21618
866.269	21610
866.4	21599
866.531	21511
866.662	21534
866.793	21408
866.924	21545
867.055	21515
867.186	21675
867.317	21526
867.448	21496
867.579	21515
867.71	21416
867.841	21488
867.972	21534
868.103	21587
868.233	21656
868.364	21644
868.495	21660
868.625	21732
868.756	21857
868.886	21580
869.017	21759
869.147	21930
869.278	21941
869.408	21941
869.539	21812
869.669	21854
869.799	21838
869.929	21808
870.06	21854
870.19	22025
870.32	22135
870.45	22166
870.58	22097
870.71	22226
870.84	22306
870.97	22169
871.1	22101
871.23	22230
871.36	22341
871.489	22295
871.619	22341
871.749	22409
871.879	22375
872.008	22405
872.138	22322
872.267	22371
872.397	22291
872.526	22177
872.656	22204
872.785	22173
872.915	22276
873.044	22417
873.173	22375
873.303	22390
873.432	22344
873.561	22455
873.69	22371
873.819	22394
873.948	22554
874.077	22413
874.206	22367
874.335	22489
874.464	22485
874.593	22664
874.722	22493
874.851	22634
874.979	22683
875.108	22641
875.237	22580
875.365	22580
875.494	22603
875.623	22592
875.751	22573
875.88	22557
876.008	22607
876.136	22759
876.265	22866
876.393	23132
876.521	22915
876.65	23014
876.778	22915
876.906	22889
877.034	22987
877.162	22999
877.29	22866
877.418	22911
877.546	22904
877.674	22873
877.802	23075
877.93	22835
878.058	22991
878.185	22835
878.313	22919
878.441	22927
878.568	22736
878.696	22953
878.824	22923
878.951	22885
879.079	23079
879.206	23223
879.333	23220
879.461	22934
879.588	22953
879.715	23064
879.842	23242
879.97	22919
880.097	22713
880.224	22759
880.351	22801
880.478	22820
880.605	22763
880.732	22729
880.859	22919
880.986	22847
881.112	22763
881.239	22599
881.366	22459
881.493	22310
881.619	22295
881.746	22417
881.872	22325
881.999	22310
882.125	22299
882.252	22337
882.378	22284
882.505	22432
882.631	22185
882.757	22025
882.883	22067
883.01	21994
883.136	22013
883.262	21975
883.388	21857
883.514	22063
883.64	22025
883.766	21922
883.892	21743
884.018	21785
884.143	21865
884.269	22036
884.395	21762
884.52	21671
884.646	21671
884.772	21576
884.897	21530
885.023	21553
885.148	21800
885.274	21698
885.399	21785
885.524	21568
885.65	21603
885.775	21686
885.9	21595
886.025	21709
886.15	21781
886.275	21743
886.4	21564
886.525	21564
886.65	21637
886.775	21473
886.9	21709
887.025	21766
887.149	21724
887.274	21298
887.399	21329
887.523	21405
887.648	21477
887.773	21233
887.897	21420
888.021	21488
888.146	21507
888.27	21469
888.395	21504
888.519	21447
888.643	21557
888.767	21329
888.891	21272
889.015	21287
889.139	21264
889.263	21119
889.387	21287
889.511	21420
889.635	21260
889.759	21135
889.883	21226
890.006	21146
890.13	21363
890.254	21100
890.377	21024
890.501	21020
890.624	20830
890.748	20971
890.871	20842
890.995	20769
891.118	20693
891.241	20811
891.364	20754
891.488	20967
891.611	20811
891.734	20705
891.857	20876
891.98	20746
892.103	20807
892.226	20815
892.349	20826
892.471	20545
892.594	20743
892.717	20651
892.839	20640
892.962	20568
893.085	20617
893.207	20602
893.33	20571
893.452	20526
893.575	20644
893.697	20720
893.819	20792
893.941	20834
894.064	20773
894.186	20575
894.308	20549
894.43	20609
894.552	20716
894.674	20579
894.796	20621
894.918	20621
895.04	20545
895.161	20682
895.283	20651
895.405	20507
895.526	20625
895.648	20465
895.769	20632
895.891	20716
896.012	20678
896.134	20640
896.255	20625
896.376	20617
896.498	20674
896.619	20663
896.74	20754
896.861	20590
896.982	20986
897.103	21195
897.224	20960
897.345	20982
897.466	20838
897.587	20838
897.708	20960
897.828	20944
897.949	20720
898.07	20705
898.19	20735
898.311	20880
898.431	20781
898.552	20762
898.672	20906
898.792	20910
898.913	20758
899.033	20697
899.153	20625
899.273	20492
899.393	20670
899.513	20545
899.633	20526
899.753	20568
899.873	20568
899.993	20465
900.113	20522
900.232	20465
900.352	20492
900.472	20507
900.591	20370
900.711	20298
900.83	20317
900.95	20480
901.069	20412
901.189	20256
901.308	20111
901.427	19887
901.546	19860
901.665	19875
901.784	19947
901.904	19772
902.023	19807
902.141	19510
902.26	19392
902.379	19533
902.498	19480
902.617	19327
902.735	19449
902.854	19358
902.973	19346
903.091	19198
903.21	19107
903.328	19175
903.446	18996
903.565	19012
903.683	18913
903.801	18890
903.919	18875
904.038	18897
904.156	18707
904.274	18817
904.392	18635
904.51	18578
904.627	18696
904.745	18677
904.863	18623
904.981	18502
905.098	18281
905.216	18281
905.334	18479
905.451	18334
905.569	18369
905.686	18350
905.803	18365
905.921	18136
906.038	18281
906.155	18224
906.272	17988
906.389	17980
906.506	17824
906.623	17912
906.74	17855
906.857	17760
906.974	17828
907.091	17885
907.208	17980
907.324	17935
907.441	17878
907.557	17573
907.674	17570
907.79	17509
907.907	17497
908.023	17581
908.139	17615
908.256	17566
908.372	17490
908.488	17425
908.604	17303
908.72	17277
908.836	17322
908.952	17379
909.068	17429
909.184	17383
909.3	17277
909.415	17296
909.531	17200
909.647	16991
909.762	16995
909.878	17022
909.993	16976
910.108	16946
910.224	16968
910.339	16957
910.454	16980
910.57	16816
910.685	16752
910.8	16987
910.915	17010
911.03	16835
911.145	16664
911.259	16577
911.374	16653
911.489	16538
911.604	16550
911.718	16402
911.833	16360
911.947	16249
912.062	16230
912.176	16382
912.291	16207
912.405	16291
912.519	16527
912.633	16451
912.748	16310
912.862	16333
912.976	16181
913.09	16082
913.204	16211
913.318	16177
913.431	16185
913.545	16109
913.659	16223
913.772	16112
913.886	15922
914	15979
914.113	16147
914.226	16059
914.34	16006
914.453	15876
914.566	15915
914.68	15823
914.793	15755
914.906	15671
915.019	15477
915.132	15473
915.245	15545
915.358	15561
915.47	15557
915.583	15496
915.696	15473
915.809	15663
915.921	15709
916.034	15568
916.146	15488
916.259	15473
916.371	15530
916.483	15492
916.595	15492
916.708	15424
916.82	15393
916.932	15313
917.044	15344
917.156	15294
917.268	15192
917.38	15199
917.491	15161
917.603	15180
917.715	15214
917.826	15275
917.938	15066
918.049	15009
918.161	15203
918.272	15332
918.384	15275
918.495	15104
918.606	14876
918.717	14929
918.828	15055
918.939	14967
919.05	14785
919.161	14861
919.272	14739
919.383	14826
919.494	14899
919.604	15089
919.715	14887
919.826	14807
919.936	14933
920.047	14914
920.157	14952
920.267	15077
920.378	14895
920.488	14887
920.598	15028
920.708	15142
920.818	14933
920.928	15032
921.038	15154
921.148	15100
921.258	14807
921.368	14682
921.477	14682
921.587	14575
921.697	14431
921.806	14636
921.916	14465
922.025	14328
922.134	14294
922.244	14183
922.353	14252
922.462	14084
922.571	14096
922.68	13921
922.789	13917
922.898	13944
923.007	13917
923.116	13925
923.224	13913
923.333	13906
923.442	13753
923.55	13742
923.659	13715
923.767	13723
923.876	13704
923.984	13727
924.092	13594
924.201	13575
924.309	13563
924.417	13658
924.525	13559
924.633	13502
924.741	14503
924.849	13346
924.956	13480
925.064	13362
925.172	13312
925.279	13285
925.387	13381
925.494	13274
925.602	13365
925.709	13365
925.816	13202
925.924	13350
926.031	13324
926.138	13164
926.245	13236
926.352	13209
926.459	13126
926.566	13327
926.673	13088
926.779	13069
926.886	13023
926.993	12901
927.099	12886
927.206	12821
927.312	12848
927.419	12791
927.525	12779
927.631	12798
927.737	12707
927.843	12677
927.95	12623
928.056	12753
928.162	12635
928.267	12688
928.373	13278
928.479	12726
928.585	12509
928.69	12559
928.796	12654
928.901	12486
929.007	12380
929.112	12479
929.218	12426
929.323	12441
929.428	12365
929.533	12483
929.638	12292
929.743	12254
929.848	12395
929.953	12262
930.058	12319
930.163	12053
930.267	12060
930.372	12148
930.477	12053
930.581	12213
930.685	12053
930.79	11912
930.894	11923
930.998	11965
931.103	11984
931.207	11729
931.311	11589
931.415	11562
931.519	11311
931.623	11311
