Data from test_V78500241_1281.txt Node
Date: Fri Mar 25 15:18:46 CST 2022
User: usil
Spectrometer: V785-0024
Trigger mode: 0
Integration Time (sec): 4.000000E-1
Scans to average: 1
Nonlinearity correction enabled: false
Boxcar width: 0
Storing dark spectrum: false
XAxis mode: Wavelengths
Number of Pixels in Spectrum: 1024
>>>>>Begin Spectral Data<<<<<
801.071	28070
801.214	28002
801.356	27774
801.499	27789
801.641	27561
801.783	27568
801.926	27713
802.068	27534
802.211	27473
802.353	27572
802.496	27382
802.638	27500
802.78	27416
802.923	27313
803.065	27397
803.208	27214
803.35	27306
803.492	27359
803.635	27538
803.777	27477
803.919	27519
804.061	27660
804.204	27671
804.346	27355
804.488	27576
804.63	27599
804.773	27439
804.915	27534
805.057	27629
805.199	27603
805.341	27538
805.483	27652
805.626	27629
805.768	27458
805.91	27614
806.052	27648
806.194	27682
806.336	27633
806.478	27663
806.62	27637
806.762	27819
806.904	27808
807.046	28166
807.188	28067
807.33	27991
807.472	28082
807.614	28063
807.756	28116
807.898	28010
808.04	27857
808.182	27934
808.324	27960
808.465	28070
808.607	28002
808.749	28234
808.891	28478
809.033	28493
809.174	28379
809.316	28257
809.458	28303
809.6	28219
809.741	28500
809.883	28538
810.025	28630
810.166	28497
810.308	28603
810.45	28493
810.591	28588
810.733	28428
810.875	28325
811.016	28390
811.158	28249
811.299	28470
811.441	28443
811.582	28470
811.724	28246
811.865	28337
812.007	28234
812.148	28303
812.29	28177
812.431	28607
812.573	28687
812.714	28809
812.855	28786
812.997	28866
813.138	29006
813.279	29014
813.421	28873
813.562	28885
813.703	28736
813.845	28683
813.986	28211
814.127	28173
814.268	28204
814.41	27937
814.551	28010
814.692	27991
814.833	27907
814.974	27903
815.115	28044
815.256	27926
815.397	27865
815.539	28036
815.68	27785
815.821	27724
815.962	27911
816.103	27732
816.244	27717
816.385	27675
816.526	27553
816.666	27431
816.807	27408
816.948	27408
817.089	27294
817.23	27336
817.371	27287
817.512	27351
817.653	27412
817.793	27256
817.934	27325
818.075	27420
818.216	27370
818.356	27165
818.497	27074
818.638	27020
818.778	27005
818.919	27116
819.06	27119
819.2	27325
819.341	27199
819.481	27317
819.622	27370
819.762	27637
819.903	27564
820.043	27447
820.184	27427
820.324	27317
820.465	27519
820.605	27477
820.746	27458
820.886	27336
821.026	27363
821.167	27389
821.307	27507
821.447	27348
821.588	27203
821.728	27112
821.868	26986
822.008	26933
822.149	26800
822.289	26739
822.429	26438
822.569	26522
822.709	26374
822.849	26301
822.99	26393
823.13	26488
823.27	26263
823.41	26046
823.55	26020
823.69	26187
823.83	26008
823.97	26024
824.11	25940
824.25	25921
824.389	26001
824.529	26225
824.669	26024
824.809	26107
824.949	26012
825.089	26122
825.228	26115
825.368	25750
825.508	25826
825.648	25769
825.787	25989
825.927	25982
826.067	25803
826.206	25871
826.346	25849
826.485	25921
826.625	25704
826.765	25936
826.904	25887
827.044	25704
827.183	25578
827.323	25601
827.462	25582
827.601	25445
827.741	25529
827.88	25643
828.02	25548
828.159	25487
828.298	25620
828.437	25639
828.577	25734
828.716	25635
828.855	25453
828.994	25156
829.134	25320
829.273	25301
829.412	25327
829.551	25164
829.69	25411
829.829	25289
829.968	25400
830.107	25308
830.246	25285
830.385	25175
830.524	25202
830.663	25076
830.802	24897
830.941	24939
831.08	24859
831.219	25034
831.357	24909
831.496	25194
831.635	24875
831.774	24890
831.913	24867
832.051	24616
832.19	24711
832.329	24692
832.467	24585
832.606	24445
832.744	24570
832.883	24642
833.022	24521
833.16	24582
833.299	24566
833.437	24627
833.576	24802
833.714	24559
833.852	24779
833.991	24665
834.129	24749
834.267	24570
834.406	24707
834.544	24616
834.682	24604
834.821	24627
834.959	24852
835.097	24673
835.235	24852
835.373	24612
835.511	24540
835.65	24479
835.788	24521
835.926	24407
836.064	24346
836.202	24258
836.34	24555
836.478	24631
836.615	24407
836.753	24410
836.891	24563
837.029	24544
837.167	24464
837.305	24418
837.443	24319
837.58	24285
837.718	24429
837.856	24281
837.993	24319
838.131	24281
838.269	24262
838.406	24167
838.544	24049
838.681	23984
838.819	23969
838.956	23764
839.094	23699
839.231	23863
839.369	24026
839.506	24209
839.643	23870
839.781	23790
839.918	23691
840.055	23809
840.193	23798
840.33	23646
840.467	23752
840.604	23859
840.742	23904
840.879	23562
841.016	23604
841.153	23558
841.29	23802
841.427	23714
841.564	23684
841.701	23596
841.838	23661
841.975	23577
842.112	23501
842.249	23554
842.385	23452
842.522	23566
842.659	23482
842.796	23425
842.933	23429
843.069	23452
843.206	23406
843.343	23482
843.479	23444
843.616	23452
843.752	23254
843.889	23265
844.025	23258
844.162	23121
844.298	23155
844.435	23181
844.571	23147
844.708	23231
844.844	23402
844.98	23429
845.117	23292
845.253	23162
845.389	23128
845.525	23159
845.661	23113
845.798	22972
845.934	22892
846.07	22904
846.206	22995
846.342	22984
846.478	23083
846.614	22835
846.75	22664
846.886	22618
847.022	22733
847.158	22759
847.294	22740
847.429	22656
847.565	22630
847.701	22942
847.837	22421
847.972	22409
848.108	22577
848.244	22512
848.379	22280
848.515	22219
848.65	22192
848.786	22341
848.921	22329
849.057	22390
849.192	22211
849.328	22447
849.463	22173
849.598	22246
849.734	22128
849.869	22192
850.004	21979
850.14	22109
850.275	22131
850.41	21953
850.545	22013
850.68	22112
850.815	22082
850.95	21949
851.085	22333
851.22	22124
851.355	22017
851.49	22051
851.625	21987
851.76	21926
851.895	21941
852.03	21941
852.165	21998
852.299	21975
852.434	22070
852.569	22078
852.703	22097
852.838	22010
852.973	22207
853.107	22215
853.242	21979
853.376	21895
853.511	21728
853.645	21884
853.78	21945
853.914	21827
854.048	21785
854.183	21903
854.317	21831
854.451	21953
854.585	21876
854.72	21850
854.854	22021
854.988	21781
855.122	21743
855.256	21675
855.39	21895
855.524	21892
855.658	21907
855.792	21915
855.926	21854
856.06	21869
856.194	21968
856.327	21747
856.461	21766
856.595	21713
856.729	21770
856.862	21956
856.996	21827
857.13	21926
857.263	22154
857.397	21945
857.53	21819
857.664	21907
857.797	22032
857.931	21918
858.064	21975
858.197	22036
858.331	21789
858.464	21728
858.597	21747
858.731	21953
858.864	21842
858.997	21766
859.13	22006
859.263	21876
859.396	21854
859.529	21827
859.662	21774
859.795	21724
859.928	21808
860.061	21994
860.194	21991
860.327	21998
860.46	21934
860.592	21907
860.725	22070
860.858	21960
860.99	21755
861.123	21804
861.256	21857
861.388	21812
861.521	22546
861.653	21850
861.786	21652
861.918	21675
862.05	21762
862.183	21762
862.315	21816
862.447	21835
862.58	21736
862.712	21492
862.844	21583
862.976	21610
863.108	21717
863.24	21876
863.372	21481
863.504	21534
863.636	21538
863.768	21595
863.9	21420
864.032	21542
864.164	21534
864.296	21660
864.428	21549
864.559	21625
864.691	21770
864.823	21576
864.954	21587
865.086	21435
865.217	21466
865.349	21401
865.48	21428
865.612	21405
865.743	21599
865.875	21473
866.006	21504
866.137	21298
866.269	21340
866.4	21481
866.531	21329
866.662	21283
866.793	21355
866.924	21363
867.055	21378
867.186	21462
867.317	21393
867.448	21332
867.579	21268
867.71	21302
867.841	21192
867.972	21420
868.103	21340
868.233	21325
868.364	21325
868.495	21416
868.625	21580
868.756	21690
868.886	21572
869.017	21625
869.147	21614
869.278	21637
869.408	21614
869.539	21698
869.669	21720
869.799	21595
869.929	21759
870.06	21759
870.19	21918
870.32	21835
870.45	21975
870.58	22070
870.71	22131
870.84	22070
870.97	22036
871.1	22116
871.23	22226
871.36	22211
871.489	22097
871.619	22063
871.749	22086
871.879	22234
872.008	22360
872.138	22090
872.267	22219
872.397	22082
872.526	22055
872.656	22002
872.785	22063
872.915	22188
873.044	22310
873.173	22162
873.303	22219
873.432	22299
873.561	22329
873.69	22299
873.819	22356
873.948	22337
874.077	22314
874.206	22188
874.335	22188
874.464	22348
874.593	22462
874.722	22398
874.851	22554
874.979	22459
875.108	22569
875.237	22443
875.365	22284
875.494	22398
875.623	22493
875.751	22356
875.88	22436
876.008	22523
876.136	22535
876.265	22809
876.393	22957
876.521	22831
876.65	22847
876.778	22767
876.906	22828
877.034	22542
877.162	22748
877.29	22752
877.418	22778
877.546	22729
877.674	22793
877.802	22630
877.93	22782
878.058	22725
878.185	22694
878.313	22797
878.441	22797
878.568	22679
878.696	22599
878.824	22854
878.951	22873
879.079	23022
879.206	23041
879.333	22900
879.461	22809
879.588	22801
879.715	22786
879.842	22991
879.97	22885
880.097	22637
880.224	22584
880.351	22622
880.478	22698
880.605	22485
880.732	22599
880.859	22930
880.986	22634
881.112	22535
881.239	22478
881.366	22428
881.493	22246
881.619	22051
881.746	22280
881.872	22120
881.999	22169
882.125	22177
882.252	22261
882.378	22112
882.505	22249
882.631	22010
882.757	21930
882.883	21975
883.01	21937
883.136	21850
883.262	21823
883.388	21800
883.514	21739
883.64	21983
883.766	21831
883.892	21663
884.018	21663
884.143	21835
884.269	21808
884.395	21504
884.52	21458
884.646	21507
884.772	21447
884.897	21424
885.023	21424
885.148	21618
885.274	21511
885.399	21523
885.524	21576
885.65	21526
885.775	21583
885.9	21507
886.025	21511
886.15	21507
886.275	21294
886.4	21370
886.525	21462
886.65	21408
886.775	21348
886.9	21424
887.025	21778
887.149	21401
887.274	21184
887.399	21306
887.523	21363
887.648	21085
887.773	21241
887.897	21367
888.021	21306
888.146	21058
888.27	21367
888.395	21412
888.519	21252
888.643	21298
888.767	21226
888.891	21173
889.015	21036
889.139	21055
889.263	21043
889.387	21112
889.511	21207
889.635	21104
889.759	21047
889.883	21135
890.006	21066
890.13	21252
890.254	20998
890.377	20921
890.501	20811
890.624	20777
890.748	20838
890.871	20689
890.995	20663
891.118	20552
891.241	20663
891.364	20613
891.488	20712
891.611	20613
891.734	20670
891.857	20754
891.98	20689
892.103	20674
892.226	20594
892.349	20602
892.471	20431
892.594	20473
892.717	20568
892.839	20552
892.962	20522
893.085	20469
893.207	20469
893.33	20442
893.452	20457
893.575	20530
893.697	20541
893.819	20644
893.941	20785
894.064	20648
894.186	20320
894.308	20442
894.43	20598
894.552	20629
894.674	20640
894.796	20427
894.918	20526
895.04	20415
895.161	20636
895.283	20526
895.405	20381
895.526	20476
895.648	20473
895.769	20461
895.891	20480
896.012	20514
896.134	20575
896.255	20473
896.376	20404
896.498	20473
896.619	20530
896.74	20473
896.861	20568
896.982	20777
897.103	20842
897.224	20762
897.345	20644
897.466	20636
897.587	20632
897.708	20830
897.828	20701
897.949	20644
898.07	20518
898.19	20617
898.311	20727
898.431	20648
898.552	20598
898.672	20838
898.792	20724
898.913	20587
899.033	20552
899.153	20526
899.273	20404
899.393	20396
899.513	20488
899.633	20351
899.753	20408
899.873	20313
899.993	20427
900.113	20225
900.232	20476
900.352	20377
900.472	20317
900.591	20195
900.711	20081
900.83	20107
900.95	20252
901.069	20278
901.189	20012
901.308	19845
901.427	19772
901.546	19795
901.665	19856
901.784	19803
901.904	19704
902.023	19403
902.141	19362
902.26	19327
902.379	19453
902.498	19187
902.617	19274
902.735	19255
902.854	19293
902.973	19316
903.091	19046
903.21	18970
903.328	18951
903.446	18875
903.565	18711
903.683	18837
903.801	18585
903.919	18669
904.038	18700
904.156	18620
904.274	18593
904.392	18620
904.51	18582
904.627	18456
904.745	18616
904.863	18502
904.981	18330
905.098	18266
905.216	18235
905.334	18144
905.451	18266
905.569	18140
905.686	18300
905.803	18201
905.921	18057
906.038	18102
906.155	18041
906.272	17916
906.389	17889
906.506	17843
906.623	17817
906.74	17699
906.857	17661
906.974	17687
907.091	17760
907.208	17897
907.324	17798
907.441	17710
907.557	17493
907.674	17455
907.79	17440
907.907	17463
908.023	17383
908.139	17566
908.256	17395
908.372	17356
908.488	17455
908.604	17280
908.72	17105
908.836	17166
908.952	17185
909.068	17254
909.184	17242
909.3	17212
909.415	17227
909.531	17239
909.647	16961
909.762	16786
909.878	16866
909.993	16972
910.108	16812
910.224	16835
910.339	16927
910.454	16797
910.57	16649
910.685	16641
910.8	16972
910.915	16866
911.03	16691
911.145	16611
911.259	16512
911.374	16462
911.489	16493
911.604	16344
911.718	16196
911.833	16440
911.947	16230
912.062	16006
912.176	16143
912.291	16177
912.405	16150
912.519	16356
912.633	16432
912.748	16299
912.862	16200
912.976	16082
913.09	15956
913.204	15998
913.318	16048
913.431	16246
913.545	16025
913.659	16139
913.772	15945
913.886	15835
914	15876
914.113	15953
914.226	15899
914.34	15873
914.453	15747
914.566	15926
914.68	15686
914.793	15728
914.906	15496
915.019	15492
915.132	15420
915.245	15386
915.358	15485
915.47	15458
915.583	15488
915.696	15401
915.809	15542
915.921	15488
916.034	15351
916.146	15313
916.259	15310
916.371	15317
916.483	15344
916.595	15249
916.708	15226
916.82	15260
916.932	15214
917.044	15256
917.156	15127
917.268	15043
917.38	15207
917.491	14994
917.603	15085
917.715	15123
917.826	15180
917.938	15055
918.049	14929
918.161	15097
918.272	15081
918.384	15138
918.495	14982
918.606	14910
918.717	14720
918.828	14902
918.939	14845
919.05	14800
919.161	14804
919.272	14610
919.383	14678
919.494	14880
919.604	14979
919.715	14746
919.826	14651
919.936	14785
920.047	14872
920.157	14720
920.267	14975
920.378	14781
920.488	14765
920.598	14952
920.708	14975
920.818	14872
920.928	14861
921.038	15036
921.148	15043
921.258	14792
921.368	14625
921.477	14632
921.587	14488
921.697	14358
921.806	14533
921.916	14366
922.025	14206
922.134	14142
922.244	14142
922.353	14153
922.462	13986
922.571	14005
922.68	13833
922.789	13795
922.898	13852
923.007	13727
923.116	13765
923.224	13742
923.333	13715
923.442	13643
923.55	13658
923.659	13677
923.767	13696
923.876	13594
923.984	13639
924.092	13521
924.201	13533
924.309	13510
924.417	13563
924.525	13476
924.633	13411
924.741	14438
924.849	13236
924.956	13415
925.064	13289
925.172	13183
925.279	13240
925.387	13213
925.494	13244
925.602	13316
925.709	13236
925.816	12958
925.924	13206
926.031	13236
926.138	13156
926.245	13240
926.352	13069
926.459	13183
926.566	13232
926.673	13008
926.779	12943
926.886	12886
926.993	12738
927.099	12707
927.206	12608
927.312	12646
927.419	12730
927.525	12722
927.631	12707
927.737	12612
927.843	12658
927.95	12536
928.056	12585
928.162	12502
928.267	12673
928.373	13175
928.479	12597
928.585	12407
928.69	12521
928.796	12589
928.901	12441
929.007	12270
929.112	12380
929.218	12342
929.323	12315
929.428	12376
929.533	12418
929.638	12186
929.743	12247
929.848	12277
929.953	12308
930.058	12049
930.163	11954
930.267	11961
930.372	12125
930.477	11984
930.581	12079
930.685	12072
930.79	11836
930.894	11813
930.998	11832
931.103	11961
931.207	11649
931.311	11486
931.415	11387
931.519	11201
931.623	11102
