Data from test_V78500241_1553.txt Node
Date: Fri Mar 25 15:20:40 CST 2022
User: usil
Spectrometer: V785-0024
Trigger mode: 0
Integration Time (sec): 4.000000E-1
Scans to average: 1
Nonlinearity correction enabled: false
Boxcar width: 0
Storing dark spectrum: false
XAxis mode: Wavelengths
Number of Pixels in Spectrum: 1024
>>>>>Begin Spectral Data<<<<<
801.071	27926
801.214	27926
801.356	27576
801.499	27660
801.641	27367
801.783	27408
801.926	27427
802.068	27348
802.211	27500
802.353	27359
802.496	27108
802.638	27135
802.78	27214
802.923	27165
803.065	27119
803.208	27009
803.35	26971
803.492	27192
803.635	27367
803.777	27199
803.919	27218
804.061	27633
804.204	27325
804.346	27443
804.488	27233
804.63	27260
804.773	27245
804.915	27294
805.057	27454
805.199	27203
805.341	27325
805.483	27397
805.626	27553
805.768	27313
805.91	27405
806.052	27424
806.194	27237
806.336	27580
806.478	27466
806.62	27386
806.762	27462
806.904	27694
807.046	27899
807.188	27937
807.33	27846
807.472	27819
807.614	27766
807.756	27751
807.898	27793
808.04	27682
808.182	27739
808.324	27755
808.465	27682
808.607	27911
808.749	28010
808.891	28105
809.033	28219
809.174	28109
809.316	27941
809.458	28013
809.6	27975
809.741	28158
809.883	28272
810.025	28455
810.166	28219
810.308	28405
810.45	28325
810.591	28246
810.733	28204
810.875	28166
811.016	27979
811.158	27793
811.299	28230
811.441	28238
811.582	28268
811.724	28048
811.865	28124
812.007	28109
812.148	28158
812.29	27968
812.431	28177
812.573	28390
812.714	28394
812.855	28759
812.997	28592
813.138	28774
813.279	28786
813.421	28599
813.562	28523
813.703	28375
813.845	28211
813.986	28017
814.127	27785
814.268	27774
814.41	27846
814.551	27743
814.692	27914
814.833	27789
814.974	27717
815.115	27781
815.256	27610
815.397	27583
815.539	27793
815.68	27694
815.821	27348
815.962	27576
816.103	27519
816.244	27424
816.385	27302
816.526	27439
816.666	27195
816.807	27036
816.948	27077
817.089	27157
817.23	27028
817.371	27062
817.512	27085
817.653	27112
817.793	26979
817.934	27070
818.075	26998
818.216	27039
818.356	26986
818.497	27001
818.638	26644
818.778	26750
818.919	26746
819.06	26883
819.2	26937
819.341	27051
819.481	27005
819.622	27184
819.762	27439
819.903	27302
820.043	27351
820.184	27161
820.324	27237
820.465	27173
820.605	27085
820.746	27199
820.886	26975
821.026	27096
821.167	27062
821.307	27089
821.447	27146
821.588	26952
821.728	26758
821.868	26796
822.008	26530
822.149	26465
822.289	26419
822.429	26237
822.569	26256
822.709	26122
822.849	26096
822.99	26020
823.13	25966
823.27	25852
823.41	25989
823.55	25845
823.69	25837
823.83	25818
823.97	25875
824.11	25719
824.25	25628
824.389	25734
824.529	25731
824.669	25582
824.809	25780
824.949	25791
825.089	25803
825.228	25647
825.368	25472
825.508	25430
825.648	25533
825.787	25616
825.927	25506
826.067	25464
826.206	25502
826.346	25472
826.485	25537
826.625	25483
826.765	25662
826.904	25502
827.044	25133
827.183	25270
827.323	25190
827.462	25293
827.601	25304
827.741	25129
827.88	25232
828.02	25225
828.159	25091
828.298	25255
828.437	25297
828.577	25137
828.716	25285
828.855	25126
828.994	24939
829.134	24810
829.273	24863
829.412	24802
829.551	24977
829.69	24909
829.829	25129
829.968	24935
830.107	24977
830.246	25019
830.385	24852
830.524	24863
830.663	24787
830.802	24741
830.941	24483
831.08	24547
831.219	24646
831.357	24521
831.496	24722
831.635	24650
831.774	24540
831.913	24422
832.051	24376
832.19	24346
832.329	24361
832.467	24201
832.606	24155
832.744	24079
832.883	24140
833.022	24308
833.16	24186
833.299	24194
833.437	24174
833.576	24285
833.714	24167
833.852	24254
833.991	24262
834.129	24357
834.267	24384
834.406	24140
834.544	24216
834.682	24258
834.821	24148
834.959	24376
835.097	24334
835.235	24380
835.373	24247
835.511	24178
835.65	23988
835.788	24129
835.926	23950
836.064	23908
836.202	23828
836.34	24106
836.478	24129
836.615	24003
836.753	24011
836.891	24254
837.029	24083
837.167	24038
837.305	23843
837.443	23889
837.58	23904
837.718	23863
837.856	24003
837.993	23980
838.131	23912
838.269	23805
838.406	23794
838.544	23687
838.681	23501
838.819	23623
838.956	23402
839.094	23395
839.231	23402
839.369	23573
839.506	23684
839.643	23649
839.781	23406
839.918	23311
840.055	23277
840.193	23368
840.33	23227
840.467	23364
840.604	23429
840.742	23547
840.879	23181
841.016	23265
841.153	23246
841.29	23356
841.427	23402
841.564	23414
841.701	23360
841.838	23227
841.975	23155
842.112	23147
842.249	22957
842.385	23025
842.522	23280
842.659	22999
842.796	23037
842.933	23105
843.069	23052
843.206	23018
843.343	23174
843.479	23022
843.616	23136
843.752	22812
843.889	22961
844.025	23094
844.162	22755
844.298	22854
844.435	22835
844.571	22999
844.708	22831
844.844	22938
844.98	22828
845.117	22980
845.253	22752
845.389	22698
845.525	22675
845.661	22584
845.798	22485
845.934	22637
846.07	22478
846.206	22500
846.342	22687
846.478	22607
846.614	22409
846.75	22356
846.886	22230
847.022	22352
847.158	22409
847.294	22318
847.429	22402
847.565	22177
847.701	22455
847.837	22059
847.972	21987
848.108	22101
848.244	22082
848.379	21945
848.515	21854
848.65	21911
848.786	21838
848.921	21960
849.057	21975
849.192	22021
849.328	21964
849.463	21850
849.598	21823
849.734	21766
849.869	21671
850.004	21690
850.14	21739
850.275	21705
850.41	21610
850.545	21572
850.68	21732
850.815	21736
850.95	21656
851.085	21873
851.22	21701
851.355	21599
851.49	21663
851.625	21603
851.76	21557
851.895	21458
852.03	21542
852.165	21675
852.299	21583
852.434	21641
852.569	21701
852.703	21679
852.838	21808
852.973	21770
853.107	21816
853.242	21576
853.376	21534
853.511	21363
853.645	21542
853.78	21648
853.914	21511
854.048	21378
854.183	21466
854.317	21622
854.451	21690
854.585	21534
854.72	21405
854.854	21496
854.988	21561
855.122	21447
855.256	21256
855.39	21485
855.524	21515
855.658	21469
855.792	21492
855.926	21477
856.06	21538
856.194	21504
856.327	21363
856.461	21279
856.595	21355
856.729	21405
856.862	21641
856.996	21641
857.13	21488
857.263	21587
857.397	21488
857.53	21294
857.664	21538
857.797	21447
857.931	21572
858.064	21545
858.197	21507
858.331	21443
858.464	21329
858.597	21302
858.731	21485
858.864	21389
858.997	21481
859.13	21466
859.263	21462
859.396	21553
859.529	21397
859.662	21416
859.795	21420
859.928	21458
860.061	21610
860.194	21667
860.327	21557
860.46	21603
860.592	21629
860.725	21675
860.858	21614
860.99	21504
861.123	21477
861.256	21431
861.388	21504
861.521	22158
861.653	21336
861.786	21135
861.918	21310
862.05	21283
862.183	21332
862.315	21450
862.447	21530
862.58	21313
862.712	21256
862.844	21222
862.976	21237
863.108	21340
863.24	21587
863.372	21112
863.504	21260
863.636	21192
863.768	21207
863.9	21199
864.032	21051
864.164	21150
864.296	21226
864.428	21211
864.559	21302
864.691	21161
864.823	21268
864.954	21043
865.086	21157
865.217	21028
865.349	21043
865.48	21081
865.612	21104
865.743	21135
865.875	21112
866.006	20986
866.137	21001
866.269	21081
866.4	21093
866.531	20941
866.662	20990
866.793	20994
866.924	20975
867.055	20937
867.186	20910
867.317	20883
867.448	20937
867.579	20994
867.71	20819
867.841	20902
867.972	21066
868.103	20937
868.233	21005
868.364	21055
868.495	21180
868.625	21199
868.756	21245
868.886	21176
869.017	21222
869.147	21249
869.278	21401
869.408	21241
869.539	21260
869.669	21329
869.799	21214
869.929	21408
870.06	21275
870.19	21538
870.32	21454
870.45	21564
870.58	21576
870.71	21633
870.84	21717
870.97	21591
871.1	21656
871.23	21816
871.36	21850
871.489	21793
871.619	21857
871.749	21842
871.879	21873
872.008	21907
872.138	21991
872.267	21747
872.397	21701
872.526	21599
872.656	21599
872.785	21652
872.915	21823
873.044	21953
873.173	21888
873.303	21937
873.432	21876
873.561	21903
873.69	21804
873.819	21804
873.948	21895
874.077	21903
874.206	21804
874.335	21850
874.464	21964
874.593	22143
874.722	22017
874.851	22025
874.979	22055
875.108	22097
875.237	21994
875.365	22040
875.494	22097
875.623	22013
875.751	22169
875.88	22143
876.008	22200
876.136	22459
876.265	22538
876.393	22592
876.521	22565
876.65	22603
876.778	22557
876.906	22348
877.034	22447
877.162	22424
877.29	22344
877.418	22527
877.546	22474
877.674	22432
877.802	22493
877.93	22363
878.058	22386
878.185	22272
878.313	22367
878.441	22303
878.568	22310
878.696	22322
878.824	22550
878.951	22493
879.079	22550
879.206	22675
879.333	22493
879.461	22459
879.588	22584
879.715	22523
879.842	22637
879.97	22455
880.097	22348
880.224	22166
880.351	22360
880.478	22200
880.605	22280
880.732	22192
880.859	22466
880.986	22162
881.112	22204
881.239	22070
881.366	21915
881.493	21804
881.619	21873
881.746	21918
881.872	21838
881.999	21850
882.125	21808
882.252	21861
882.378	21724
882.505	21876
882.631	21591
882.757	21504
882.883	21599
883.01	21545
883.136	21542
883.262	21405
883.388	21268
883.514	21488
883.64	21526
883.766	21412
883.892	21245
884.018	21214
884.143	21401
884.269	21526
884.395	21211
884.52	21226
884.646	21165
884.772	21089
884.897	21013
885.023	21203
885.148	21214
885.274	21336
885.399	21275
885.524	21157
885.65	21001
885.775	21089
885.9	21074
886.025	21180
886.15	21233
886.275	21047
886.4	21009
886.525	21135
886.65	21081
886.775	21089
886.9	21138
887.025	21272
887.149	21150
887.274	21055
887.399	20948
887.523	20925
887.648	20918
887.773	20925
887.897	21119
888.021	21024
888.146	20914
888.27	20956
888.395	21096
888.519	20895
888.643	20921
888.767	20849
888.891	20899
889.015	20625
889.139	20823
889.263	20663
889.387	20838
889.511	20849
889.635	20777
889.759	20720
889.883	20678
890.006	20682
890.13	20796
890.254	20674
890.377	20743
890.501	20442
890.624	20454
890.748	20423
890.871	20396
890.995	20290
891.118	20214
891.241	20336
891.364	20385
891.488	20404
891.611	20301
891.734	20126
891.857	20355
891.98	20290
892.103	20282
892.226	20153
892.349	20206
892.471	19993
892.594	20259
892.717	20267
892.839	20153
892.962	20199
893.085	20271
893.207	20195
893.33	20039
893.452	20103
893.575	20153
893.697	20172
893.819	20320
893.941	20415
894.064	20278
894.186	20145
894.308	20183
894.43	20320
894.552	20332
894.674	20298
894.796	20050
894.918	20282
895.04	20077
895.161	20199
895.283	20199
895.405	20054
895.526	20218
895.648	20286
895.769	20153
895.891	20221
896.012	20298
896.134	20138
896.255	20145
896.376	20126
896.498	20126
896.619	20145
896.74	20138
896.861	20259
896.982	20495
897.103	20659
897.224	20324
897.345	20446
897.466	20355
897.587	20347
897.708	20404
897.828	20385
897.949	20275
898.07	20267
898.19	20252
898.311	20408
898.431	20347
898.552	20438
898.672	20412
898.792	20457
898.913	20324
899.033	20290
899.153	20218
899.273	20134
899.393	20142
899.513	20195
899.633	20145
899.753	20206
899.873	20062
899.993	20138
900.113	20016
900.232	20122
900.352	20172
900.472	20024
900.591	19940
900.711	19852
900.83	19784
900.95	20058
901.069	20031
901.189	19894
901.308	19681
901.427	19563
901.546	19514
901.665	19468
901.784	19540
901.904	19381
902.023	19221
902.141	19175
902.26	19122
902.379	19069
902.498	19034
902.617	19065
902.735	19156
902.854	19004
902.973	18958
903.091	18768
903.21	18696
903.328	18665
903.446	18563
903.565	18429
903.683	18452
903.801	18456
903.919	18483
904.038	18452
904.156	18353
904.274	18380
904.392	18232
904.51	18178
904.627	18285
904.745	18270
904.863	18270
904.981	18030
905.098	17942
905.216	17969
905.334	18026
905.451	17980
905.569	17912
905.686	17786
905.803	17939
905.921	17745
906.038	17798
906.155	17805
906.272	17653
906.389	17573
906.506	17490
906.623	17406
906.74	17417
906.857	17364
906.974	17395
907.091	17490
907.208	17691
907.324	17532
907.441	17311
907.557	17181
907.674	17292
907.79	17242
907.907	17185
908.023	17212
908.139	17151
908.256	17083
908.372	17052
908.488	16953
908.604	17052
908.72	16816
908.836	16889
908.952	16949
909.068	16976
909.184	16923
909.3	16900
909.415	16900
909.531	16843
909.647	16584
909.762	16637
909.878	16497
909.993	16550
910.108	16607
910.224	16599
910.339	16615
910.454	16500
910.57	16500
910.685	16230
910.8	16592
910.915	16550
911.03	16398
911.145	16226
911.259	16181
911.374	16185
911.489	16139
911.604	15972
911.718	15998
911.833	15949
911.947	15781
912.062	15770
912.176	15918
912.291	15991
912.405	15922
912.519	16105
912.633	16051
912.748	15934
912.862	16013
912.976	15804
913.09	15580
913.204	15656
913.318	15793
913.431	15838
913.545	15793
913.659	15766
913.772	15770
913.886	15591
914	15523
914.113	15572
914.226	15694
914.34	15614
914.453	15454
914.566	15580
914.68	15424
914.793	15378
914.906	15332
915.019	15119
915.132	15214
915.245	15192
915.358	15230
915.47	15256
915.583	15119
915.696	15043
915.809	15291
915.921	15275
916.034	15195
916.146	15085
916.259	15028
916.371	15055
916.483	15009
916.595	14952
916.708	15047
916.82	15013
916.932	14899
917.044	14876
917.156	14902
917.268	14861
917.38	14765
917.491	14864
917.603	14765
917.715	14838
917.826	14906
917.938	14705
918.049	14651
918.161	14788
918.272	14834
918.384	14895
918.495	14701
918.606	14625
918.717	14537
918.828	14545
918.939	14693
919.05	14495
919.161	14594
919.272	14404
919.383	14415
919.494	14556
919.604	14727
919.715	14556
919.826	14507
919.936	14469
920.047	14606
920.157	14564
920.267	14621
920.378	14518
920.488	14514
920.598	14727
920.708	14830
920.818	14610
920.928	14617
921.038	14864
921.148	14781
921.258	14442
921.368	14374
921.477	14229
921.587	14252
921.697	14100
921.806	14298
921.916	14126
922.025	13913
922.134	13868
922.244	13841
922.353	13967
922.462	13712
922.571	13704
922.68	13616
922.789	13594
922.898	13548
923.007	13502
923.116	13525
923.224	13544
923.333	13453
923.442	13365
923.55	13457
923.659	13369
923.767	13483
923.876	13225
923.984	13419
924.092	13282
924.201	13316
924.309	13270
924.417	13221
924.525	13232
924.633	13247
924.741	13959
924.849	13015
924.956	13175
925.064	12943
925.172	12989
925.279	12932
925.387	12977
925.494	13027
925.602	13050
925.709	12985
925.816	12814
925.924	12905
926.031	13031
926.138	12958
926.245	12901
926.352	12890
926.459	12932
926.566	12943
926.673	12795
926.779	12749
926.886	12772
926.993	12517
927.099	12456
927.206	12361
927.312	12506
927.419	12555
927.525	12498
927.631	12464
927.737	12494
927.843	12323
927.95	12251
928.056	12315
928.162	12483
928.267	12338
928.373	13004
928.479	12338
928.585	12144
928.69	12224
928.796	12319
928.901	12251
929.007	12019
929.112	12247
929.218	12152
929.323	12087
929.428	12117
929.533	12197
929.638	12041
929.743	11973
929.848	12110
929.953	11992
930.058	11942
930.163	11809
930.267	11870
930.372	11908
930.477	11813
930.581	11969
930.685	11824
930.79	11642
930.894	11668
930.998	11608
931.103	11767
931.207	11387
931.311	11303
931.415	11356
931.519	11098
931.623	11041
