Data from test_V78500241_1202.txt Node
Date: Fri Mar 25 15:18:13 CST 2022
User: usil
Spectrometer: V785-0024
Trigger mode: 0
Integration Time (sec): 4.000000E-1
Scans to average: 1
Nonlinearity correction enabled: false
Boxcar width: 0
Storing dark spectrum: false
XAxis mode: Wavelengths
Number of Pixels in Spectrum: 1024
>>>>>Begin Spectral Data<<<<<
801.071	28181
801.214	28070
801.356	27972
801.499	27736
801.641	27717
801.783	27732
801.926	27812
802.068	27618
802.211	27511
802.353	27618
802.496	27420
802.638	27473
802.78	27401
802.923	27348
803.065	27374
803.208	27211
803.35	27344
803.492	27553
803.635	27511
803.777	27336
803.919	27625
804.061	27838
804.204	27473
804.346	27606
804.488	27469
804.63	27439
804.773	27526
804.915	27549
805.057	27679
805.199	27595
805.341	27542
805.483	27633
805.626	27618
805.768	27591
805.91	27595
806.052	27648
806.194	27709
806.336	27778
806.478	27759
806.62	27766
806.762	27812
806.904	27876
807.046	28128
807.188	28093
807.33	28158
807.472	28226
807.614	27972
807.756	28074
807.898	28055
808.04	28044
808.182	27865
808.324	27983
808.465	27930
808.607	28169
808.749	28287
808.891	28497
809.033	28428
809.174	28363
809.316	28284
809.458	28375
809.6	28295
809.741	28478
809.883	28363
810.025	28523
810.166	28557
810.308	28611
810.45	28569
810.591	28485
810.733	28478
810.875	28268
811.016	28257
811.158	28166
811.299	28405
811.441	28615
811.582	28436
811.724	28390
811.865	28196
812.007	28409
812.148	28238
812.29	28268
812.431	28432
812.573	28774
812.714	28774
812.855	28710
812.997	28957
813.138	29086
813.279	28953
813.421	28987
813.562	28721
813.703	28687
813.845	28660
813.986	28360
814.127	28166
814.268	27945
814.41	28188
814.551	27964
814.692	28158
814.833	27983
814.974	27934
815.115	27972
815.256	27930
815.397	27968
815.539	27838
815.68	27743
815.821	27937
815.962	27857
816.103	27934
816.244	27774
816.385	27507
816.526	27610
816.666	27355
816.807	27313
816.948	27439
817.089	27447
817.23	27401
817.371	27222
817.512	27252
817.653	27374
817.793	27310
817.934	27359
818.075	27332
818.216	27389
818.356	27367
818.497	27275
818.638	27032
818.778	27005
818.919	27195
819.06	27085
819.2	27302
819.341	27374
819.481	27363
819.622	27557
819.762	27701
819.903	27690
820.043	27466
820.184	27435
820.324	27553
820.465	27603
820.605	27564
820.746	27401
820.886	27359
821.026	27458
821.167	27412
821.307	27435
821.447	27241
821.588	27317
821.728	27226
821.868	26994
822.008	26880
822.149	26804
822.289	26883
822.429	26495
822.569	26381
822.709	26389
822.849	26309
822.99	26400
823.13	26324
823.27	26301
823.41	26153
823.55	26172
823.69	26164
823.83	26157
823.97	26210
824.11	25974
824.25	26012
824.389	26088
824.529	26092
824.669	26092
824.809	26161
824.949	26027
825.089	26092
825.228	26084
825.368	25841
825.508	25925
825.648	25887
825.787	25890
825.927	25936
826.067	25947
826.206	25868
826.346	25947
826.485	26058
826.625	25887
826.765	26142
826.904	25944
827.044	25696
827.183	25837
827.323	25571
827.462	25731
827.601	25548
827.741	25567
827.88	25597
828.02	25605
828.159	25479
828.298	25700
828.437	25662
828.577	25533
828.716	25693
828.855	25540
828.994	25297
829.134	25324
829.273	25381
829.412	25270
829.551	25236
829.69	25388
829.829	25346
829.968	25430
830.107	25441
830.246	25168
830.385	25297
830.524	25263
830.663	25088
830.802	25118
830.941	24882
831.08	24905
831.219	25000
831.357	25053
831.496	25179
831.635	24920
831.774	24848
831.913	24848
832.051	24810
832.19	24810
832.329	24730
832.467	24665
832.606	24578
832.744	24513
832.883	24589
833.022	24658
833.16	24536
833.299	24631
833.437	24627
833.576	24745
833.714	24669
833.852	24741
833.991	24734
834.129	24833
834.267	24779
834.406	24730
834.544	24722
834.682	24669
834.821	24639
834.959	24829
835.097	24665
835.235	24738
835.373	24700
835.511	24593
835.65	24563
835.788	24452
835.926	24532
836.064	24270
836.202	24380
836.34	24498
836.478	24654
836.615	24498
836.753	24467
836.891	24544
837.029	24521
837.167	24525
837.305	24486
837.443	24467
837.58	24319
837.718	24376
837.856	24338
837.993	24327
838.131	24338
838.269	24167
838.406	24224
838.544	24224
838.681	23961
838.819	24030
838.956	23824
839.094	23859
839.231	23874
839.369	23988
839.506	24121
839.643	24102
839.781	23843
839.918	23779
840.055	23821
840.193	23817
840.33	23710
840.467	23946
840.604	23764
840.742	23931
840.879	23764
841.016	23653
841.153	23707
841.29	23760
841.427	23752
841.564	23824
841.701	23748
841.838	23752
841.975	23653
842.112	23482
842.249	23570
842.385	23589
842.522	23703
842.659	23710
842.796	23356
842.933	23448
843.069	23493
843.206	23379
843.343	23474
843.479	23463
843.616	23539
843.752	23258
843.889	23318
844.025	23425
844.162	23273
844.298	23402
844.435	23364
844.571	23288
844.708	23269
844.844	23368
844.98	23337
845.117	23341
845.253	23200
845.389	23075
845.525	23094
845.661	23128
845.798	22987
845.934	23079
846.07	23018
846.206	23022
846.342	23117
846.478	22976
846.614	22831
846.75	22630
846.886	22755
847.022	22702
847.158	22752
847.294	22736
847.429	22809
847.565	22824
847.701	22968
847.837	22459
847.972	22519
848.108	22523
848.244	22554
848.379	22409
848.515	22261
848.65	22337
848.786	22325
848.921	22379
849.057	22443
849.192	22531
849.328	22344
849.463	22287
849.598	22318
849.734	22249
849.869	22154
850.004	22090
850.14	22219
850.275	22219
850.41	22006
850.545	22013
850.68	22147
850.815	22143
850.95	22021
851.085	22219
851.22	22120
851.355	22097
851.49	22006
851.625	21975
851.76	21991
851.895	22131
852.03	22059
852.165	21983
852.299	22124
852.434	22070
852.569	22166
852.703	22074
852.838	22169
852.973	22219
853.107	22147
853.242	22150
853.376	22059
853.511	21846
853.645	21926
853.78	21991
853.914	21903
854.048	21922
854.183	21876
854.317	22067
854.451	22082
854.585	21869
854.72	21865
854.854	21892
854.988	21736
855.122	21892
855.256	21793
855.39	22025
855.524	22074
855.658	21991
855.792	21998
855.926	21956
856.06	22021
856.194	21953
856.327	21945
856.461	21865
856.595	21842
856.729	21846
856.862	22093
856.996	21876
857.13	22048
857.263	22059
857.397	21922
857.53	21934
857.664	22002
857.797	22002
857.931	22116
858.064	21911
858.197	22021
858.331	21968
858.464	21800
858.597	21766
858.731	21846
858.864	21804
858.997	21876
859.13	21838
859.263	21926
859.396	21911
859.529	21915
859.662	21865
859.795	21835
859.928	21892
860.061	22021
860.194	22173
860.327	22032
860.46	21903
860.592	21953
860.725	22082
860.858	22017
860.99	21861
861.123	21880
861.256	21873
861.388	21797
861.521	22721
861.653	21850
861.786	21606
861.918	21785
862.05	21759
862.183	21778
862.315	21705
862.447	21747
862.58	21789
862.712	21603
862.844	21587
862.976	21717
863.108	21663
863.24	22086
863.372	21557
863.504	21557
863.636	21675
863.768	21629
863.9	21682
864.032	21507
864.164	21549
864.296	21530
864.428	21660
864.559	21660
864.691	21682
864.823	21549
864.954	21648
865.086	21496
865.217	21424
865.349	21344
865.48	21519
865.612	21477
865.743	21720
865.875	21443
866.006	21458
866.137	21431
866.269	21458
866.4	21454
866.531	21534
866.662	21462
866.793	21370
866.924	21336
867.055	21469
867.186	21580
867.317	21435
867.448	21370
867.579	21439
867.71	21355
867.841	21439
867.972	21477
868.103	21389
868.233	21405
868.364	21443
868.495	21382
868.625	21618
868.756	21663
868.886	21728
869.017	21564
869.147	21736
869.278	21778
869.408	21656
869.539	21629
869.669	21720
869.799	21667
869.929	21770
870.06	21850
870.19	22055
870.32	21888
870.45	22013
870.58	21994
870.71	22173
870.84	22192
870.97	21979
871.1	21975
871.23	22246
871.36	22215
871.489	22124
871.619	22234
871.749	22169
871.879	22291
872.008	22306
872.138	22363
872.267	22166
872.397	22188
872.526	22131
872.656	22173
872.785	22013
872.915	22249
873.044	22246
873.173	22417
873.303	22211
873.432	22284
873.561	22265
873.69	22295
873.819	22295
873.948	22238
874.077	22265
874.206	22253
874.335	22211
874.464	22375
874.593	22497
874.722	22390
874.851	22474
874.979	22573
875.108	22497
875.237	22459
875.365	22363
875.494	22470
875.623	22542
875.751	22489
875.88	22440
876.008	22603
876.136	22634
876.265	22923
876.393	22987
876.521	22930
876.65	22942
876.778	22828
876.906	22755
877.034	22793
877.162	22847
877.29	22812
877.418	22904
877.546	22953
877.674	22774
877.802	22771
877.93	22812
878.058	22755
878.185	22615
878.313	22778
878.441	22816
878.568	22759
878.696	22748
878.824	22949
878.951	22778
879.079	23033
879.206	23109
879.333	22900
879.461	22843
879.588	23018
879.715	22927
879.842	23162
879.97	22809
880.097	22664
880.224	22611
880.351	22679
880.478	22744
880.605	22542
880.732	22782
880.859	22915
880.986	22592
881.112	22630
881.239	22466
881.366	22341
881.493	22318
881.619	22303
881.746	22318
881.872	22223
881.999	22204
882.125	22120
882.252	22242
882.378	22223
882.505	22344
882.631	22154
882.757	22051
882.883	22082
883.01	21956
883.136	21865
883.262	21804
883.388	21835
883.514	21937
883.64	21876
883.766	21816
883.892	21717
884.018	21648
884.143	21892
884.269	21850
884.395	21553
884.52	21561
884.646	21523
884.772	21485
884.897	21530
885.023	21583
885.148	21709
885.274	21637
885.399	21622
885.524	21545
885.65	21542
885.775	21500
885.9	21469
886.025	21663
886.15	21663
886.275	21477
886.4	21538
886.525	21447
886.65	21450
886.775	21317
886.9	21545
887.025	21671
887.149	21473
887.274	21321
887.399	21226
887.523	21378
887.648	21180
887.773	21207
887.897	21382
888.021	21481
888.146	21135
888.27	21340
888.395	21416
888.519	21420
888.643	21382
888.767	21245
888.891	21283
889.015	21127
889.139	21165
889.263	21173
889.387	21226
889.511	21302
889.635	21264
889.759	21039
889.883	21154
890.006	21176
890.13	21203
890.254	20944
890.377	20921
890.501	20960
890.624	20910
890.748	20838
890.871	20762
890.995	20625
891.118	20568
891.241	20735
891.364	20746
891.488	20861
891.611	20625
891.734	20648
891.857	20613
891.98	20686
892.103	20667
892.226	20701
892.349	20507
892.471	20522
892.594	20701
892.717	20651
892.839	20564
892.962	20552
893.085	20579
893.207	20541
893.33	20495
893.452	20438
893.575	20609
893.697	20518
893.819	20651
893.941	20724
894.064	20674
894.186	20473
894.308	20571
894.43	20488
894.552	20765
894.674	20590
894.796	20488
894.918	20545
895.04	20438
895.161	20659
895.283	20537
895.405	20434
895.526	20560
895.648	20522
895.769	20655
895.891	20632
896.012	20613
896.134	20640
896.255	20545
896.376	20503
896.498	20571
896.619	20469
896.74	20480
896.861	20564
896.982	20788
897.103	20941
897.224	20788
897.345	20697
897.466	20727
897.587	20705
897.708	20834
897.828	20689
897.949	20655
898.07	20609
898.19	20781
898.311	20868
898.431	20606
898.552	20758
898.672	20804
898.792	20743
898.913	20644
899.033	20606
899.153	20568
899.273	20454
899.393	20480
899.513	20568
899.633	20343
899.753	20617
899.873	20473
899.993	20446
900.113	20446
900.232	20381
900.352	20442
900.472	20301
900.591	20317
900.711	20240
900.83	20320
900.95	20256
901.069	20393
901.189	20122
901.308	20062
901.427	19784
901.546	19879
901.665	19906
901.784	19849
901.904	19666
902.023	19563
902.141	19426
902.26	19251
902.379	19510
902.498	19324
902.617	19285
902.735	19403
902.854	19308
902.973	19221
903.091	19004
903.21	19076
903.328	19122
903.446	18970
903.565	18783
903.683	18745
903.801	18715
903.919	18821
904.038	18760
904.156	18612
904.274	18604
904.392	18525
904.51	18570
904.627	18547
904.745	18642
904.863	18513
904.981	18338
905.098	18194
905.216	18270
905.334	18323
905.451	18308
905.569	18129
905.686	18220
905.803	18186
905.921	18030
906.038	18114
906.155	17988
906.272	17969
906.389	17965
906.506	17771
906.623	17748
906.74	17767
906.857	17604
906.974	17760
907.091	17821
907.208	17863
907.324	17847
907.441	17718
907.557	17482
907.674	17486
907.79	17269
907.907	17482
908.023	17596
908.139	17429
908.256	17452
908.372	17383
908.488	17311
908.604	17200
908.72	17277
908.836	17258
908.952	17155
909.068	17162
909.184	17356
909.3	17178
909.415	17193
909.531	17315
909.647	16968
909.762	16980
909.878	16889
909.993	16908
910.108	16797
910.224	16869
910.339	16972
910.454	16805
910.57	16847
910.685	16622
910.8	16900
910.915	16949
911.03	16752
911.145	16500
911.259	16599
911.374	16485
911.489	16405
911.604	16386
911.718	16242
911.833	16314
911.947	16055
912.062	16040
912.176	16116
912.291	16215
912.405	16200
912.519	16386
912.633	16409
912.748	16306
912.862	16200
912.976	16086
913.09	15956
913.204	16021
913.318	16071
913.431	16265
913.545	16147
913.659	16051
913.772	16055
913.886	15770
914	15846
914.113	15922
914.226	15915
914.34	15831
914.453	15770
914.566	15899
914.68	15747
914.793	15694
914.906	15549
915.019	15526
915.132	15332
915.245	15458
915.358	15504
915.47	15469
915.583	15466
915.696	15382
915.809	15663
915.921	15523
916.034	15450
916.146	15332
916.259	15344
916.371	15279
916.483	15378
916.595	15275
916.708	15173
916.82	15207
916.932	15203
917.044	15199
917.156	15237
917.268	15116
917.38	15119
917.491	14975
917.603	15112
917.715	15104
917.826	15142
917.938	14960
918.049	15013
918.161	14933
918.272	15070
918.384	15123
918.495	14944
918.606	14861
918.717	14754
918.828	14880
918.939	14834
919.05	14777
919.161	14830
919.272	14659
919.383	14644
919.494	14876
919.604	15001
919.715	14960
919.826	14769
919.936	14796
920.047	14872
920.157	14788
920.267	14994
920.378	14819
920.488	14845
920.598	14887
920.708	15081
920.818	15005
920.928	14944
921.038	15123
921.148	15043
921.258	14830
921.368	14610
921.477	14556
921.587	14503
921.697	14358
921.806	14473
921.916	14404
922.025	14278
922.134	14180
922.244	14081
922.353	14313
922.462	13959
922.571	13890
922.68	13791
922.789	13906
922.898	13818
923.007	13772
923.116	13959
923.224	13769
923.333	13845
923.442	13651
923.55	13715
923.659	13734
923.767	13647
923.876	13609
923.984	13563
924.092	13411
924.201	13651
924.309	13616
924.417	13529
924.525	13434
924.633	13430
924.741	14176
924.849	13209
924.956	13403
925.064	13266
925.172	13156
925.279	13255
925.387	13190
925.494	13187
925.602	13324
925.709	13228
925.816	13164
925.924	13122
926.031	13301
926.138	13080
926.245	13270
926.352	13179
926.459	13137
926.566	13152
926.673	13160
926.779	12943
926.886	12886
926.993	12806
927.099	12726
927.206	12738
927.312	12692
927.419	12798
927.525	12859
927.631	12715
927.737	12646
927.843	12616
927.95	12407
928.056	12506
928.162	12448
928.267	12631
928.373	13194
928.479	12597
928.585	12456
928.69	12566
928.796	12502
928.901	12388
929.007	12235
929.112	12437
929.218	12342
929.323	12380
929.428	12277
929.533	12464
929.638	12235
929.743	12197
929.848	12186
929.953	12239
930.058	12125
930.163	11942
930.267	12007
930.372	12022
930.477	11889
930.581	12159
930.685	12079
930.79	11828
930.894	11942
930.998	11840
931.103	11984
931.207	11615
931.311	11493
931.415	11410
931.519	11197
931.623	11288
