Data from test_V78500241_3587.txt Node
Date: Fri Mar 25 15:34:50 CST 2022
User: usil
Spectrometer: V785-0024
Trigger mode: 0
Integration Time (sec): 4.000000E-1
Scans to average: 1
Nonlinearity correction enabled: false
Boxcar width: 0
Storing dark spectrum: false
XAxis mode: Wavelengths
Number of Pixels in Spectrum: 1024
>>>>>Begin Spectral Data<<<<<
801.071	27367
801.214	27268
801.356	27009
801.499	26861
801.641	27051
801.783	26743
801.926	26937
802.068	26785
802.211	26838
802.353	26712
802.496	26613
802.638	26587
802.78	26541
802.923	26396
803.065	26385
803.208	26431
803.35	26476
803.492	26594
803.635	26705
803.777	26617
803.919	26686
804.061	26960
804.204	26796
804.346	26686
804.488	26571
804.63	26606
804.773	26598
804.915	26769
805.057	26845
805.199	26651
805.341	26727
805.483	26811
805.626	26868
805.768	26693
805.91	26868
806.052	26899
806.194	26743
806.336	26929
806.478	26842
806.62	26872
806.762	26994
806.904	27081
807.046	27283
807.188	27142
807.33	27142
807.472	27233
807.614	27028
807.756	27214
807.898	27001
808.04	26914
808.182	26986
808.324	26967
808.465	27036
808.607	27146
808.749	27336
808.891	27427
809.033	27469
809.174	27405
809.316	27393
809.458	27374
809.6	27466
809.741	27310
809.883	27549
810.025	27637
810.166	27739
810.308	27698
810.45	27618
810.591	27534
810.733	27386
810.875	27359
811.016	27450
811.158	27218
811.299	27466
811.441	27713
811.582	27427
811.724	27466
811.865	27492
812.007	27374
812.148	27378
812.29	27336
812.431	27473
812.573	27686
812.714	27671
812.855	27884
812.997	28006
813.138	28204
813.279	28063
813.421	27895
813.562	27899
813.703	27595
813.845	27595
813.986	27332
814.127	27207
814.268	27150
814.41	27104
814.551	26990
814.692	27165
814.833	27001
814.974	27020
815.115	27051
815.256	26925
815.397	26853
815.539	26998
815.68	26842
815.821	26659
815.962	26762
816.103	26773
816.244	26720
816.385	26522
816.526	26423
816.666	26336
816.807	26153
816.948	26400
817.089	26469
817.23	26385
817.371	26400
817.512	26339
817.653	26309
817.793	26267
817.934	26248
818.075	26256
818.216	26240
818.356	26351
818.497	26206
818.638	26062
818.778	26107
818.919	26054
819.06	26020
819.2	26161
819.341	26252
819.481	26256
819.622	26320
819.762	26674
819.903	26545
820.043	26442
820.184	26423
820.324	26294
820.465	26450
820.605	26446
820.746	26427
820.886	26275
821.026	26450
821.167	26332
821.307	26412
821.447	26176
821.588	26119
821.728	26035
821.868	25898
822.008	25795
822.149	25841
822.289	25772
822.429	25521
822.569	25369
822.709	25411
822.849	25346
822.99	25396
823.13	25320
823.27	25179
823.41	25095
823.55	25038
823.69	25221
823.83	25114
823.97	25088
824.11	24924
824.25	24897
824.389	24981
824.529	25076
824.669	24932
824.809	25050
824.949	25050
825.089	25156
825.228	24973
825.368	24745
825.508	24840
825.648	24817
825.787	24829
825.927	24970
826.067	24776
826.206	24783
826.346	24779
826.485	24700
826.625	24688
826.765	24958
826.904	24905
827.044	24566
827.183	24623
827.323	24528
827.462	24650
827.601	24483
827.741	24509
827.88	24532
828.02	24452
828.159	24391
828.298	24467
828.437	24475
828.577	24551
828.716	24582
828.855	24471
828.994	24133
829.134	24178
829.273	24213
829.412	24216
829.551	24163
829.69	24213
829.829	24281
829.968	24300
830.107	24167
830.246	24152
830.385	24190
830.524	24030
830.663	24057
830.802	23954
830.941	23840
831.08	23954
831.219	23901
831.357	24026
831.496	24034
831.635	23832
831.774	23718
831.913	23847
832.051	23611
832.19	23623
832.329	23577
832.467	23509
832.606	23566
832.744	23493
832.883	23543
833.022	23524
833.16	23501
833.299	23577
833.437	23630
833.576	23623
833.714	23452
833.852	23661
833.991	23642
834.129	23676
834.267	23684
834.406	23676
834.544	23771
834.682	23585
834.821	23733
834.959	23703
835.097	23501
835.235	23608
835.373	23535
835.511	23512
835.65	23467
835.788	23395
835.926	23398
836.064	23334
836.202	23292
836.34	23570
836.478	23608
836.615	23341
836.753	23490
836.891	23551
837.029	23528
837.167	23364
837.305	23193
837.443	23265
837.58	23288
837.718	23288
837.856	23246
837.993	23246
838.131	23299
838.269	23181
838.406	23235
838.544	23105
838.681	23014
838.819	22957
838.956	22706
839.094	22782
839.231	22729
839.369	22942
839.506	23204
839.643	22965
839.781	22858
839.918	22675
840.055	22668
840.193	22698
840.33	22672
840.467	22729
840.604	22755
840.742	22946
840.879	22599
841.016	22634
841.153	22516
841.29	22892
841.427	22721
841.564	22698
841.701	22755
841.838	22702
841.975	22660
842.112	22630
842.249	22512
842.385	22519
842.522	22790
842.659	22580
842.796	22500
842.933	22493
843.069	22565
843.206	22382
843.343	22497
843.479	22466
843.616	22485
843.752	22219
843.889	22272
844.025	22424
844.162	22082
844.298	22196
844.435	22162
844.571	22226
844.708	22356
844.844	22462
844.98	22382
845.117	22303
845.253	22082
845.389	22086
845.525	22048
845.661	22120
845.798	22017
845.934	22101
846.07	21880
846.206	21949
846.342	22074
846.478	21915
846.614	21770
846.75	21717
846.886	21625
847.022	21698
847.158	21732
847.294	21633
847.429	21854
847.565	21701
847.701	21915
847.837	21511
847.972	21477
848.108	21439
848.244	21507
848.379	21389
848.515	21355
848.65	21306
848.786	21275
848.921	21214
849.057	21454
849.192	21420
849.328	21336
849.463	21283
849.598	21233
849.734	21264
849.869	21077
850.004	21195
850.14	21096
850.275	21230
850.41	20990
850.545	21051
850.68	21077
850.815	21154
850.95	21070
851.085	21256
851.22	21207
851.355	20971
851.49	21123
851.625	21123
851.76	21096
851.895	20948
852.03	20971
852.165	21039
852.299	21077
852.434	21142
852.569	21150
852.703	21180
852.838	21051
852.973	21173
853.107	21233
853.242	20952
853.376	20921
853.511	20769
853.645	20883
853.78	20998
853.914	21001
854.048	20895
854.183	20933
854.317	20979
854.451	21100
854.585	20895
854.72	20864
854.854	21028
854.988	20807
855.122	20895
855.256	20754
855.39	20891
855.524	21024
855.658	20937
855.792	20864
855.926	20914
856.06	20948
856.194	20975
856.327	20986
856.461	20838
856.595	20868
856.729	20952
856.862	20933
856.996	20963
857.13	20906
857.263	21066
857.397	20986
857.53	20796
857.664	21047
857.797	20952
857.931	20868
858.064	20956
858.197	21013
858.331	20815
858.464	20880
858.597	20735
858.731	20925
858.864	20834
858.997	20864
859.13	20975
859.263	20963
859.396	20967
859.529	20899
859.662	20944
859.795	20739
859.928	20944
860.061	21058
860.194	21104
860.327	20838
860.46	20998
860.592	21150
860.725	21051
860.858	20986
860.99	20811
861.123	20796
861.256	20967
861.388	20880
861.521	21762
861.653	20735
861.786	20682
861.918	20891
862.05	20819
862.183	20830
862.315	20979
862.447	20849
862.58	20815
862.712	20640
862.844	20659
862.976	20663
863.108	20735
863.24	20937
863.372	20575
863.504	20667
863.636	20640
863.768	20663
863.9	20613
864.032	20533
864.164	20579
864.296	20674
864.428	20655
864.559	20720
864.691	20708
864.823	20606
864.954	20678
865.086	20499
865.217	20503
865.349	20480
865.48	20549
865.612	20522
865.743	20750
865.875	20507
866.006	20488
866.137	20507
866.269	20552
866.4	20461
866.531	20499
866.662	20533
866.793	20396
866.924	20511
867.055	20518
867.186	20499
867.317	20434
867.448	20404
867.579	20438
867.71	20358
867.841	20377
867.972	20499
868.103	20400
868.233	20454
868.364	20461
868.495	20564
868.625	20689
868.756	20739
868.886	20594
869.017	20636
869.147	20811
869.278	20724
869.408	20724
869.539	20743
869.669	20864
869.799	20777
869.929	20857
870.06	20769
870.19	20971
870.32	20941
870.45	21119
870.58	21100
870.71	21173
870.84	21230
870.97	20960
871.1	21207
871.23	21348
871.36	21408
871.489	21226
871.619	21310
871.749	21302
871.879	21367
872.008	21618
872.138	21306
872.267	21329
872.397	21108
872.526	21024
872.656	21237
872.785	21184
872.915	21439
873.044	21523
873.173	21291
873.303	21351
873.432	21439
873.561	21431
873.69	21408
873.819	21298
873.948	21405
874.077	21378
874.206	21256
874.335	21389
874.464	21488
874.593	21717
874.722	21553
874.851	21705
874.979	21576
875.108	21637
875.237	21466
875.365	21435
875.494	21625
875.623	21633
875.751	21580
875.88	21671
876.008	21667
876.136	21675
876.265	21968
876.393	22280
876.521	22109
876.65	22105
876.778	21899
876.906	22067
877.034	22002
877.162	22002
877.29	21934
877.418	21937
877.546	21983
877.674	21899
877.802	21953
877.93	21850
878.058	21945
878.185	21899
878.313	22002
878.441	21941
878.568	21800
878.696	21895
878.824	22036
878.951	21964
879.079	22200
879.206	22287
879.333	22112
879.461	22067
879.588	22128
879.715	22154
879.842	22230
879.97	21991
880.097	21739
880.224	21823
880.351	21804
880.478	21793
880.605	21644
880.732	21835
880.859	21915
880.986	21747
881.112	21717
881.239	21770
881.366	21538
881.493	21466
881.619	21374
881.746	21405
881.872	21424
881.999	21351
882.125	21321
882.252	21370
882.378	21256
882.505	21519
882.631	21245
882.757	21066
882.883	21074
883.01	21058
883.136	21096
883.262	20944
883.388	20914
883.514	21081
883.64	21024
883.766	21020
883.892	20777
884.018	20872
884.143	20967
884.269	21039
884.395	20834
884.52	20762
884.646	20644
884.772	20632
884.897	20568
885.023	20670
885.148	20781
885.274	20823
885.399	20921
885.524	20762
885.65	20754
885.775	20758
885.9	20621
886.025	20826
886.15	20743
886.275	20807
886.4	20655
886.525	20560
886.65	20609
886.775	20587
886.9	20819
887.025	20864
887.149	20663
887.274	20499
887.399	20438
887.523	20457
887.648	20381
887.773	20374
887.897	20587
888.021	20511
888.146	20492
888.27	20537
888.395	20689
888.519	20526
888.643	20511
888.767	20450
888.891	20309
889.015	20317
889.139	20275
889.263	20229
889.387	20438
889.511	20571
889.635	20461
889.759	20263
889.883	20294
890.006	20225
890.13	20366
890.254	20149
890.377	20096
890.501	20058
890.624	19982
890.748	20092
890.871	19932
890.995	19864
891.118	19776
891.241	19837
891.364	19902
891.488	20100
891.611	19811
891.734	19799
891.857	19947
891.98	19883
892.103	19921
892.226	19852
892.349	19898
892.471	19715
892.594	19830
892.717	19830
892.839	19723
892.962	19731
893.085	19772
893.207	19807
893.33	19719
893.452	19567
893.575	19826
893.697	19765
893.819	19883
893.941	19921
894.064	19822
894.186	19712
894.308	19677
894.43	19913
894.552	20024
894.674	19856
894.796	19757
894.918	19700
895.04	19738
895.161	19776
895.283	19833
895.405	19742
895.526	19704
895.648	19746
895.769	19746
895.891	19753
896.012	19871
896.134	19833
896.255	19856
896.376	19685
896.498	19765
896.619	19811
896.74	19784
896.861	19814
896.982	20043
897.103	20282
897.224	20031
897.345	19940
897.466	20027
897.587	19951
897.708	20145
897.828	20084
897.949	19940
898.07	19879
898.19	19894
898.311	20096
898.431	19978
898.552	20073
898.672	19982
898.792	20096
898.913	19993
899.033	19928
899.153	19780
899.273	19704
899.393	19795
899.513	19822
899.633	19788
899.753	19795
899.873	19586
899.993	19852
900.113	19780
900.232	19784
900.352	19693
900.472	19571
900.591	19468
900.711	19563
900.83	19388
900.95	19658
901.069	19578
901.189	19419
901.308	19247
901.427	19118
901.546	19190
901.665	19088
901.784	19065
901.904	18970
902.023	18966
902.141	18745
902.26	18658
902.379	18745
902.498	18669
902.617	18620
902.735	18585
902.854	18620
902.973	18448
903.091	18315
903.21	18308
903.328	18262
903.446	18148
903.565	18232
903.683	18194
903.801	17969
903.919	18072
904.038	18030
904.156	17908
904.274	18019
904.392	17851
904.51	17912
904.627	17821
904.745	17920
904.863	17950
904.981	17627
905.098	17448
905.216	17558
905.334	17657
905.451	17570
905.569	17474
905.686	17642
905.803	17520
905.921	17444
906.038	17493
906.155	17368
906.272	17341
906.389	17311
906.506	17132
906.623	17124
906.74	17064
906.857	17037
906.974	16904
907.091	17242
907.208	17181
907.324	17140
907.441	16949
907.557	16980
907.674	16862
907.79	16752
907.907	16820
908.023	16942
908.139	16809
908.256	16778
908.372	16656
908.488	16634
908.604	16584
908.72	16447
908.836	16607
908.952	16474
909.068	16504
909.184	16649
909.3	16561
909.415	16478
909.531	16512
909.647	16352
909.762	16306
909.878	16230
909.993	16306
910.108	16124
910.224	16166
910.339	16196
910.454	16013
910.57	16074
910.685	15930
910.8	16322
910.915	16105
911.03	16086
911.145	15930
911.259	15873
911.374	15922
911.489	15835
911.604	15698
911.718	15701
911.833	15618
911.947	15534
912.062	15393
912.176	15701
912.291	15629
912.405	15591
912.519	15907
912.633	15785
912.748	15667
912.862	15568
912.976	15488
913.09	15367
913.204	15363
913.318	15458
913.431	15526
913.545	15545
913.659	15500
913.772	15389
913.886	15355
914	15287
914.113	15344
914.226	15287
914.34	15382
914.453	15108
914.566	15188
914.68	15058
914.793	15108
914.906	14906
915.019	14823
915.132	14750
915.245	14887
915.358	14899
915.47	14845
915.583	14754
915.696	14899
915.809	14956
915.921	14979
916.034	14788
916.146	14804
916.259	14830
916.371	14826
916.483	14785
916.595	14712
916.708	14689
916.82	14762
916.932	14651
917.044	14659
917.156	14629
917.268	14537
917.38	14537
917.491	14568
917.603	14511
917.715	14579
917.826	14625
917.938	14362
918.049	14309
918.161	14495
918.272	14648
918.384	14541
918.495	14484
918.606	14218
918.717	14225
918.828	14305
918.939	14267
919.05	14153
919.161	14248
919.272	14168
919.383	14107
919.494	14275
919.604	14526
919.715	14237
919.826	14107
919.936	14176
920.047	14282
920.157	14305
920.267	14476
920.378	14176
920.488	14107
920.598	14351
920.708	14457
920.818	14370
920.928	14305
921.038	14556
921.148	14415
921.258	14202
921.368	14134
921.477	14005
921.587	13993
921.697	13871
921.806	14031
921.916	13894
922.025	13734
922.134	13655
922.244	13487
922.353	13757
922.462	13556
922.571	13480
922.68	13312
922.789	13335
922.898	13259
923.007	13107
923.116	13346
923.224	13251
923.333	13194
923.442	13126
923.55	13038
923.659	13107
923.767	13114
923.876	13038
923.984	13133
924.092	13008
924.201	13156
924.309	13057
924.417	13015
924.525	12954
924.633	12894
924.741	13814
924.849	12760
924.956	12939
925.064	12711
925.172	12684
925.279	12639
925.387	12639
925.494	12753
925.602	12806
925.709	12779
925.816	12528
925.924	12719
926.031	12768
926.138	12681
926.245	12700
926.352	12452
926.459	12734
926.566	12741
926.673	12677
926.779	12513
926.886	12422
926.993	12327
927.099	12319
927.206	12224
927.312	12216
927.419	12353
927.525	12334
927.631	12289
927.737	12140
927.843	12178
927.95	12072
928.056	12038
928.162	12053
928.267	12083
928.373	12673
928.479	12251
928.585	11927
928.69	12045
928.796	12136
928.901	11988
929.007	11840
929.112	11961
929.218	11897
929.323	11847
929.428	11855
929.533	11935
929.638	11828
929.743	11802
929.848	11767
929.953	11775
930.058	11611
930.163	11459
930.267	11471
930.372	11676
930.477	11436
930.581	11760
930.685	11558
930.79	11471
930.894	11440
930.998	11509
931.103	11497
931.207	11174
931.311	11124
931.415	10942
931.519	10820
931.623	10790
