Data from test_V78500241_292.txt Node
Date: Fri Mar 25 15:11:53 CST 2022
User: usil
Spectrometer: V785-0024
Trigger mode: 0
Integration Time (sec): 4.000000E-1
Scans to average: 1
Nonlinearity correction enabled: false
Boxcar width: 0
Storing dark spectrum: false
XAxis mode: Wavelengths
Number of Pixels in Spectrum: 1024
>>>>>Begin Spectral Data<<<<<
801.071	27800
801.214	27751
801.356	27488
801.499	27488
801.641	27348
801.783	27359
801.926	27363
802.068	27405
802.211	27214
802.353	27051
802.496	27108
802.638	27116
802.78	26982
802.923	26880
803.065	26887
803.208	26826
803.35	27032
803.492	27096
803.635	27108
803.777	27074
803.919	27169
804.061	27485
804.204	27161
804.346	27055
804.488	26826
804.63	27127
804.773	26937
804.915	27077
805.057	27146
805.199	27093
805.341	27142
805.483	27024
805.626	27055
805.768	27070
805.91	27218
806.052	27241
806.194	27100
806.336	27382
806.478	27214
806.62	27074
806.762	27348
806.904	27500
807.046	27713
807.188	27515
807.33	27564
807.472	27542
807.614	27542
807.756	27450
807.898	27553
808.04	27378
808.182	27313
808.324	27454
808.465	27454
808.607	27568
808.749	27667
808.891	27884
809.033	27956
809.174	27823
809.316	27907
809.458	27694
809.6	27599
809.741	27846
809.883	27876
810.025	28112
810.166	27949
810.308	28086
810.45	28040
810.591	28025
810.733	27880
810.875	27717
811.016	27728
811.158	27698
811.299	27838
811.441	27914
811.582	27892
811.724	27614
811.865	27759
812.007	27739
812.148	27736
812.29	27789
812.431	27865
812.573	28112
812.714	28044
812.855	28154
812.997	28344
813.138	28485
813.279	28371
813.421	28371
813.562	28276
813.703	28185
813.845	27945
813.986	27713
814.127	27549
814.268	27386
814.41	27526
814.551	27507
814.692	27526
814.833	27424
814.974	27378
815.115	27424
815.256	27241
815.397	27226
815.539	27222
815.68	27226
815.821	27123
815.962	27237
816.103	27184
816.244	27043
816.385	27028
816.526	27005
816.666	26777
816.807	26667
816.948	26811
817.089	26781
817.23	26701
817.371	26667
817.512	26651
817.653	26617
817.793	26686
817.934	26697
818.075	26598
818.216	26670
818.356	26598
818.497	26469
818.638	26320
818.778	26408
818.919	26381
819.06	26469
819.2	26526
819.341	26583
819.481	26503
819.622	26815
819.762	26891
819.903	26758
820.043	26697
820.184	26743
820.324	26731
820.465	26735
820.605	26678
820.746	26697
820.886	26450
821.026	26651
821.167	26632
821.307	26743
821.447	26663
821.588	26533
821.728	26457
821.868	26214
822.008	26016
822.149	26092
822.289	25959
822.429	25765
822.569	25734
822.709	25746
822.849	25434
822.99	25453
823.13	25468
823.27	25438
823.41	25411
823.55	25225
823.69	25335
823.83	25457
823.97	25381
824.11	25160
824.25	25088
824.389	25088
824.529	25308
824.669	25034
824.809	25175
824.949	25187
825.089	25221
825.228	25152
825.368	25046
825.508	24954
825.648	25107
825.787	25122
825.927	25019
826.067	24939
826.206	25000
826.346	25065
826.485	25015
826.625	24958
826.765	25152
826.904	24947
827.044	24760
827.183	24749
827.323	24669
827.462	24631
827.601	24616
827.741	24661
827.88	24639
828.02	24639
828.159	24582
828.298	24650
828.437	24749
828.577	24620
828.716	24757
828.855	24566
828.994	24422
829.134	24296
829.273	24445
829.412	24296
829.551	24247
829.69	24395
829.829	24315
829.968	24315
830.107	24403
830.246	24365
830.385	24445
830.524	24258
830.663	24068
830.802	24087
830.941	23942
831.08	23912
831.219	24007
831.357	24068
831.496	24125
831.635	23912
831.774	23813
831.913	23802
832.051	23680
832.19	23741
832.329	23737
832.467	23707
832.606	23566
832.744	23668
832.883	23509
833.022	23600
833.16	23661
833.299	23661
833.437	23665
833.576	23729
833.714	23714
833.852	23672
833.991	23779
834.129	23882
834.267	23790
834.406	23783
834.544	23653
834.682	23684
834.821	23615
834.959	23786
835.097	23611
835.235	23695
835.373	23665
835.511	23611
835.65	23619
835.788	23528
835.926	23379
836.064	23322
836.202	23395
836.34	23638
836.478	23649
836.615	23528
836.753	23520
836.891	23581
837.029	23668
837.167	23516
837.305	23520
837.443	23410
837.58	23383
837.718	23349
837.856	23455
837.993	23204
838.131	23379
838.269	23303
838.406	23277
838.544	23117
838.681	23071
838.819	22949
838.956	22786
839.094	22786
839.231	22923
839.369	23052
839.506	23113
839.643	23022
839.781	22869
839.918	22767
840.055	22729
840.193	22801
840.33	22748
840.467	22660
840.604	22767
840.742	23109
840.879	22634
841.016	22634
841.153	22672
841.29	22911
841.427	22706
841.564	22820
841.701	22611
841.838	22668
841.975	22584
842.112	22531
842.249	22519
842.385	22462
842.522	22717
842.659	22603
842.796	22417
842.933	22394
843.069	22504
843.206	22421
843.343	22424
843.479	22618
843.616	22398
843.752	22249
843.889	22162
844.025	22341
844.162	22226
844.298	22329
844.435	22166
844.571	22048
844.708	22341
844.844	22265
844.98	22424
845.117	22352
845.253	22192
845.389	22162
845.525	22215
845.661	22101
845.798	21949
845.934	22135
846.07	21945
846.206	21991
846.342	22013
846.478	21934
846.614	21713
846.75	21682
846.886	21641
847.022	21831
847.158	21755
847.294	21804
847.429	21717
847.565	21656
847.701	21823
847.837	21393
847.972	21321
848.108	21416
848.244	21492
848.379	21199
848.515	21275
848.65	21291
848.786	21226
848.921	21351
849.057	21389
849.192	21515
849.328	21294
849.463	21291
849.598	21104
849.734	20979
849.869	21116
850.004	21093
850.14	21119
850.275	21055
850.41	20906
850.545	20937
850.68	21020
850.815	21127
850.95	20990
851.085	21207
851.22	21020
851.355	20899
851.49	21043
851.625	21013
851.76	20944
851.895	20811
852.03	20948
852.165	21020
852.299	21085
852.434	21055
852.569	21017
852.703	21085
852.838	20967
852.973	21165
853.107	21214
853.242	21024
853.376	20727
853.511	20769
853.645	20834
853.78	21024
853.914	20769
854.048	20788
854.183	20823
854.317	20811
854.451	21013
854.585	20826
854.72	20929
854.854	20971
854.988	20765
855.122	20777
855.256	20663
855.39	20659
855.524	20781
855.658	20830
855.792	20705
855.926	20853
856.06	20998
856.194	20864
856.327	20842
856.461	20800
856.595	20636
856.729	20868
856.862	20956
856.996	20887
857.13	20906
857.263	20921
857.397	20906
857.53	20697
857.664	20815
857.797	20971
857.931	20910
858.064	20750
858.197	20887
858.331	20788
858.464	20876
858.597	20750
858.731	20712
858.864	20765
858.997	20701
859.13	20731
859.263	20773
859.396	20880
859.529	20739
859.662	20804
859.795	20674
859.928	20883
860.061	20994
860.194	20899
860.327	20773
860.46	20785
860.592	20788
860.725	20857
860.858	20891
860.99	20834
861.123	20648
861.256	20765
861.388	20849
861.521	21469
861.653	20655
861.786	20670
861.918	20682
862.05	20807
862.183	20754
862.315	20868
862.447	20861
862.58	20781
862.712	20495
862.844	20507
862.976	20648
863.108	20583
863.24	21039
863.372	20431
863.504	20434
863.636	20431
863.768	20545
863.9	20571
864.032	20339
864.164	20389
864.296	20602
864.428	20629
864.559	20571
864.691	20644
864.823	20511
864.954	20389
865.086	20556
865.217	20412
865.349	20381
865.48	20514
865.612	20492
865.743	20556
865.875	20240
866.006	20309
866.137	20381
866.269	20396
866.4	20484
866.531	20336
866.662	20286
866.793	20343
866.924	20377
867.055	20362
867.186	20438
867.317	20290
867.448	20252
867.579	20267
867.71	20294
867.841	20320
867.972	20343
868.103	20309
868.233	20317
868.364	20336
868.495	20389
868.625	20636
868.756	20701
868.886	20492
869.017	20625
869.147	20571
869.278	20720
869.408	20629
869.539	20590
869.669	20689
869.799	20598
869.929	20651
870.06	20735
870.19	20819
870.32	20811
870.45	20899
870.58	20971
870.71	21020
870.84	21036
870.97	20937
871.1	20982
871.23	21142
871.36	21203
871.489	21051
871.619	21135
871.749	21199
871.879	21188
872.008	21287
872.138	21173
872.267	21173
872.397	21062
872.526	20914
872.656	20929
872.785	21013
872.915	21226
873.044	21287
873.173	21169
873.303	21310
873.432	21131
873.561	21405
873.69	21135
873.819	21283
873.948	21256
874.077	21180
874.206	21226
874.335	21245
874.464	21268
874.593	21355
874.722	21374
874.851	21610
874.979	21515
875.108	21500
875.237	21344
875.365	21416
875.494	21447
875.623	21458
875.751	21359
875.88	21401
876.008	21519
876.136	21534
876.265	21705
876.393	21949
876.521	21846
876.65	22025
876.778	21930
876.906	21781
877.034	21854
877.162	21797
877.29	21724
877.418	21736
877.546	21812
877.674	21842
877.802	21835
877.93	21766
878.058	21774
878.185	21534
878.313	21774
878.441	21785
878.568	21625
878.696	21770
878.824	21926
878.951	21857
879.079	21934
879.206	22021
879.333	21937
879.461	21720
879.588	21869
879.715	21918
879.842	22010
879.97	21994
880.097	21625
880.224	21580
880.351	21698
880.478	21732
880.605	21603
880.732	21660
880.859	21869
880.986	21618
881.112	21568
881.239	21583
881.366	21405
881.493	21249
881.619	21283
881.746	21180
881.872	21272
881.999	21108
882.125	21020
882.252	21207
882.378	21184
882.505	21306
882.631	21100
882.757	21036
882.883	21081
883.01	20933
883.136	20830
883.262	20868
883.388	20735
883.514	20937
883.64	20864
883.766	20861
883.892	20788
884.018	20830
884.143	20891
884.269	20933
884.395	20705
884.52	20507
884.646	20587
884.772	20571
884.897	20385
885.023	20613
885.148	20629
885.274	20636
885.399	20720
885.524	20716
885.65	20503
885.775	20450
885.9	20415
886.025	20727
886.15	20682
886.275	20480
886.4	20389
886.525	20530
886.65	20495
886.775	20495
886.9	20686
887.025	20670
887.149	20640
887.274	20343
887.399	20282
887.523	20358
887.648	20252
887.773	20320
887.897	20419
888.021	20427
888.146	20168
888.27	20320
888.395	20400
888.519	20298
888.643	20240
888.767	20457
888.891	20286
889.015	20168
889.139	20195
889.263	20050
889.387	20145
889.511	20347
889.635	20275
889.759	20039
889.883	20084
890.006	20164
890.13	20263
890.254	20199
890.377	19982
890.501	19913
890.624	19864
890.748	19963
890.871	19753
890.995	19776
891.118	19575
891.241	19761
891.364	19753
891.488	19803
891.611	19795
891.734	19616
891.857	19814
891.98	19681
892.103	19875
892.226	19761
892.349	19727
892.471	19502
892.594	19525
892.717	19685
892.839	19677
892.962	19620
893.085	19788
893.207	19556
893.33	19548
893.452	19693
893.575	19586
893.697	19643
893.819	19791
893.941	19791
894.064	19750
894.186	19632
894.308	19559
894.43	19681
894.552	19734
894.674	19738
894.796	19510
894.918	19655
895.04	19628
895.161	19704
895.283	19674
895.405	19548
895.526	19658
895.648	19563
895.769	19651
895.891	19628
896.012	19791
896.134	19635
896.255	19632
896.376	19624
896.498	19613
896.619	19715
896.74	19712
896.861	19616
896.982	19944
897.103	20134
897.224	19917
897.345	19818
897.466	19803
897.587	19837
897.708	20039
897.828	19826
897.949	19765
898.07	19681
898.19	19864
898.311	19864
898.431	19803
898.552	19715
898.672	19913
898.792	19909
898.913	19875
899.033	19803
899.153	19742
899.273	19460
899.393	19510
899.513	19594
899.633	19594
899.753	19590
899.873	19552
899.993	19639
900.113	19571
900.232	19476
900.352	19537
900.472	19506
900.591	19373
900.711	19476
900.83	19270
900.95	19506
901.069	19468
901.189	19358
901.308	19069
901.427	18920
901.546	19023
901.665	19019
901.784	19057
901.904	18856
902.023	18760
902.141	18608
902.26	18585
902.379	18616
902.498	18483
902.617	18464
902.735	18574
902.854	18547
902.973	18388
903.091	18270
903.21	18197
903.328	18133
903.446	18015
903.565	17950
903.683	17988
903.801	17889
903.919	17847
904.038	17901
904.156	17726
904.274	17775
904.392	17691
904.51	17718
904.627	17741
904.745	17790
904.863	17718
904.981	17516
905.098	17539
905.216	17410
905.334	17440
905.451	17532
905.569	17334
905.686	17391
905.803	17391
905.921	17185
906.038	17379
906.155	17254
906.272	17090
906.389	17083
906.506	16995
906.623	16927
906.74	16919
906.857	16862
906.974	16923
907.091	16995
907.208	17090
907.324	16984
907.441	16786
907.557	16637
907.674	16786
907.79	16497
907.907	16626
908.023	16679
908.139	16679
908.256	16588
908.372	16554
908.488	16512
908.604	16516
908.72	16337
908.836	16322
908.952	16306
909.068	16375
909.184	16443
909.3	16363
909.415	16379
909.531	16363
909.647	16131
909.762	16078
909.878	16055
909.993	16055
910.108	16048
910.224	15972
910.339	16105
910.454	15915
910.57	15861
910.685	15880
910.8	16071
910.915	16051
911.03	15865
911.145	15720
911.259	15751
911.374	15660
911.489	15618
911.604	15568
911.718	15424
911.833	15485
911.947	15317
912.062	15329
912.176	15420
912.291	15321
912.405	15420
912.519	15580
912.633	15542
912.748	15378
912.862	15291
912.976	15230
913.09	15169
913.204	15142
913.318	15165
913.431	15359
913.545	15237
913.659	15279
913.772	15230
913.886	15119
914	14994
914.113	15119
914.226	15184
914.34	15062
914.453	14963
914.566	15043
914.68	14967
914.793	14845
914.906	14762
915.019	14602
915.132	14648
915.245	14636
915.358	14781
915.47	14720
915.583	14693
915.696	14670
915.809	14777
915.921	14769
916.034	14556
916.146	14644
916.259	14492
916.371	14632
916.483	14655
916.595	14526
916.708	14541
916.82	14526
916.932	14507
917.044	14469
917.156	14446
917.268	14343
917.38	14366
917.491	14301
917.603	14259
917.715	14381
917.826	14473
917.938	14362
918.049	14221
918.161	14278
918.272	14415
918.384	14377
918.495	14267
918.606	14081
918.717	13963
918.828	14115
918.939	14123
919.05	14077
919.161	13963
919.272	13887
919.383	13932
919.494	14225
919.604	14347
919.715	14001
919.826	13997
919.936	14084
920.047	14126
920.157	14035
920.267	14317
920.378	14157
920.488	13967
920.598	14187
920.708	14282
920.818	14229
920.928	14149
921.038	14366
921.148	14294
921.258	14012
921.368	13989
921.477	13841
921.587	13791
921.697	13757
921.806	13715
921.916	13662
922.025	13556
922.134	13415
922.244	13430
922.353	13563
922.462	13381
922.571	13209
922.68	13141
922.789	13069
922.898	13046
923.007	13053
923.116	13061
923.224	13084
923.333	13000
923.442	12932
923.55	12924
923.659	12958
923.767	12973
923.876	12848
923.984	12913
924.092	12817
924.201	12871
924.309	12814
924.417	12821
924.525	12779
924.633	12802
924.741	13525
924.849	12574
924.956	12707
925.064	12585
925.172	12464
925.279	12570
925.387	12616
925.494	12513
925.602	12631
925.709	12593
925.816	12475
925.924	12486
926.031	12502
926.138	12456
926.245	12498
926.352	12365
926.459	12426
926.566	12467
926.673	12350
926.779	12216
926.886	12266
926.993	12159
927.099	12091
927.206	12079
927.312	12049
927.419	12110
927.525	12064
927.631	12114
927.737	11977
927.843	11942
927.95	11802
928.056	11931
928.162	11885
928.267	11973
928.373	12566
928.479	12064
928.585	11794
928.69	11882
928.796	11950
928.901	11767
929.007	11653
929.112	11764
929.218	11748
929.323	11775
929.428	11665
929.533	11828
929.638	11665
929.743	11665
929.848	11703
929.953	11657
930.058	11516
930.163	11345
930.267	11406
930.372	11512
930.477	11273
930.581	11581
930.685	11440
930.79	11265
930.894	11330
930.998	11223
931.103	11318
931.207	10999
931.311	10900
931.415	10793
931.519	10561
931.623	10664
