Data from test_V78500241_251.txt Node
Date: Fri Mar 25 15:11:36 CST 2022
User: usil
Spectrometer: V785-0024
Trigger mode: 0
Integration Time (sec): 4.000000E-1
Scans to average: 1
Nonlinearity correction enabled: false
Boxcar width: 0
Storing dark spectrum: false
XAxis mode: Wavelengths
Number of Pixels in Spectrum: 1024
>>>>>Begin Spectral Data<<<<<
801.071	28253
801.214	28101
801.356	27979
801.499	27994
801.641	27873
801.783	27911
801.926	27846
802.068	27865
802.211	27633
802.353	27717
802.496	27690
802.638	27424
802.78	27599
802.923	27348
803.065	27382
803.208	27458
803.35	27405
803.492	27542
803.635	27583
803.777	27538
803.919	27485
804.061	27960
804.204	27850
804.346	27515
804.488	27523
804.63	27351
804.773	27492
804.915	27564
805.057	27629
805.199	27652
805.341	27568
805.483	27625
805.626	27732
805.768	27561
805.91	27675
806.052	27728
806.194	27534
806.336	27823
806.478	27682
806.62	27694
806.762	27842
806.904	27911
807.046	28147
807.188	28078
807.33	28074
807.472	28166
807.614	27972
807.756	27991
807.898	27884
808.04	27941
808.182	27835
808.324	27991
808.465	27956
808.607	28063
808.749	28223
808.891	28455
809.033	28436
809.174	28474
809.316	28257
809.458	28348
809.6	28306
809.741	28360
809.883	28443
810.025	28500
810.166	28615
810.308	28436
810.45	28512
810.591	28440
810.733	28207
810.875	28181
811.016	28280
811.158	28284
811.299	28394
811.441	28466
811.582	28352
811.724	28173
811.865	28139
812.007	28310
812.148	28318
812.29	28272
812.431	28459
812.573	28573
812.714	28668
812.855	28812
812.997	28957
813.138	28862
813.279	28885
813.421	28953
813.562	28767
813.703	28584
813.845	28436
813.986	28177
814.127	28086
814.268	27827
814.41	27953
814.551	27960
814.692	27972
814.833	27724
814.974	27709
815.115	27812
815.256	27728
815.397	27724
815.539	27603
815.68	27797
815.821	27606
815.962	27804
816.103	27583
816.244	27603
816.385	27496
816.526	27382
816.666	27260
816.807	27100
816.948	27268
817.089	27370
817.23	27256
817.371	27131
817.512	27058
817.653	27180
817.793	27119
817.934	27131
818.075	27233
818.216	27180
818.356	27055
818.497	26857
818.638	26864
818.778	26883
818.919	26921
819.06	26883
819.2	26834
819.341	27055
819.481	27039
819.622	27195
819.762	27435
819.903	27226
820.043	27363
820.184	27188
820.324	27173
820.465	27241
820.605	27173
820.746	27100
820.886	27032
821.026	27268
821.167	27108
821.307	27184
821.447	26948
821.588	27043
821.728	26868
821.868	26762
822.008	26526
822.149	26533
822.289	26465
822.429	26294
822.569	26366
822.709	26248
822.849	25940
822.99	26062
823.13	26016
823.27	25921
823.41	25738
823.55	25723
823.69	25856
823.83	25818
823.97	25655
824.11	25548
824.25	25533
824.389	25575
824.529	25731
824.669	25586
824.809	25662
824.949	25643
825.089	25681
825.228	25624
825.368	25449
825.508	25575
825.648	25518
825.787	25540
825.927	25540
826.067	25499
826.206	25449
826.346	25495
826.485	25590
826.625	25392
826.765	25635
826.904	25472
827.044	25225
827.183	25213
827.323	25187
827.462	25179
827.601	25137
827.741	25023
827.88	25160
828.02	24920
828.159	25141
828.298	25118
828.437	25171
828.577	25187
828.716	25175
828.855	25129
828.994	24867
829.134	24840
829.273	24814
829.412	24734
829.551	24791
829.69	24837
829.829	24779
829.968	24928
830.107	24901
830.246	24787
830.385	24661
830.524	24791
830.663	24585
830.802	24623
830.941	24456
831.08	24399
831.219	24475
831.357	24498
831.496	24703
831.635	24528
831.774	24266
831.913	24220
832.051	24289
832.19	24178
832.329	24186
832.467	24076
832.606	24102
832.744	23980
832.883	24041
833.022	24155
833.16	24060
833.299	24041
833.437	24136
833.576	24140
833.714	24186
833.852	24205
833.991	24110
834.129	24323
834.267	24163
834.406	24159
834.544	24167
834.682	24144
834.821	24072
834.959	24209
835.097	24079
835.235	24136
835.373	24079
835.511	24144
835.65	23958
835.788	23889
835.926	23935
836.064	23813
836.202	23722
836.34	23950
836.478	23954
836.615	23988
836.753	23893
836.891	24057
837.029	23916
837.167	23901
837.305	23855
837.443	23764
837.58	23741
837.718	23874
837.856	23691
837.993	23756
838.131	23714
838.269	23562
838.406	23779
838.544	23649
838.681	23398
838.819	23486
838.956	23334
839.094	23170
839.231	23372
839.369	23440
839.506	23619
839.643	23444
839.781	23189
839.918	23159
840.055	23250
840.193	23166
840.33	23143
840.467	23166
840.604	23181
840.742	23402
840.879	23022
841.016	23044
841.153	23086
841.29	23246
841.427	23155
841.564	23132
841.701	23174
841.838	23132
841.975	23060
842.112	23052
842.249	22858
842.385	22778
842.522	23067
842.659	22946
842.796	22904
842.933	22835
843.069	22877
843.206	22843
843.343	22946
843.479	22934
843.616	22919
843.752	22653
843.889	22683
844.025	22736
844.162	22729
844.298	22755
844.435	22535
844.571	22550
844.708	22668
844.844	22763
844.98	22778
845.117	22717
845.253	22474
845.389	22508
845.525	22489
845.661	22470
845.798	22314
845.934	22500
846.07	22371
846.206	22413
846.342	22459
846.478	22299
846.614	22097
846.75	22059
846.886	22032
847.022	22169
847.158	22112
847.294	22124
847.429	22207
847.565	22097
847.701	22215
847.837	21728
847.972	21660
848.108	21945
848.244	21895
848.379	21663
848.515	21663
848.65	21648
848.786	21561
848.921	21660
849.057	21781
849.192	21808
849.328	21622
849.463	21720
849.598	21762
849.734	21690
849.869	21485
850.004	21393
850.14	21386
850.275	21416
850.41	21416
850.545	21291
850.68	21275
850.815	21325
850.95	21485
851.085	21561
851.22	21458
851.355	21435
851.49	21336
851.625	21374
851.76	21340
851.895	21306
852.03	21317
852.165	21294
852.299	21397
852.434	21526
852.569	21389
852.703	21344
852.838	21443
852.973	21443
853.107	21488
853.242	21462
853.376	21169
853.511	21112
853.645	21119
853.78	21325
853.914	21287
854.048	21214
854.183	21230
854.317	21249
854.451	21382
854.585	21165
854.72	21211
854.854	21302
854.988	21085
855.122	21146
855.256	21058
855.39	21313
855.524	21203
855.658	21146
855.792	21180
855.926	21150
856.06	21203
856.194	21332
856.327	21138
856.461	21142
856.595	21161
856.729	21104
856.862	21249
856.996	21146
857.13	21226
857.263	21135
857.397	21272
857.53	21176
857.664	21237
857.797	21348
857.931	21386
858.064	21207
858.197	21127
858.331	21154
858.464	20998
858.597	21058
858.731	21180
858.864	21207
858.997	21138
859.13	21081
859.263	21146
859.396	21260
859.529	21131
859.662	21055
859.795	21058
859.928	21203
860.061	21256
860.194	21302
860.327	21241
860.46	21112
860.592	21294
860.725	21245
860.858	21317
860.99	21272
861.123	21036
861.256	21127
861.388	21127
861.521	21880
861.653	20971
861.786	20933
861.918	20990
862.05	21146
862.183	21081
862.315	21028
862.447	21188
862.58	21138
862.712	21024
862.844	20857
862.976	20986
863.108	20857
863.24	21157
863.372	20815
863.504	20838
863.636	20868
863.768	20910
863.9	20785
864.032	20739
864.164	20819
864.296	20826
864.428	21001
864.559	20921
864.691	20941
864.823	20925
864.954	20823
865.086	20815
865.217	20804
865.349	20712
865.48	20697
865.612	20705
865.743	20960
865.875	20701
866.006	20648
866.137	20769
866.269	20834
866.4	20724
866.531	20651
866.662	20689
866.793	20689
866.924	20640
867.055	20689
867.186	20674
867.317	20765
867.448	20674
867.579	20667
867.71	20488
867.841	20632
867.972	20621
868.103	20693
868.233	20712
868.364	20659
868.495	20849
868.625	20906
868.756	21017
868.886	20872
869.017	20902
869.147	21009
869.278	20982
869.408	20914
869.539	20899
869.669	20933
869.799	20960
869.929	20990
870.06	21104
870.19	21211
870.32	21161
870.45	21188
870.58	21264
870.71	21473
870.84	21408
870.97	21294
871.1	21310
871.23	21492
871.36	21439
871.489	21397
871.619	21504
871.749	21477
871.879	21492
872.008	21679
872.138	21462
872.267	21469
872.397	21523
872.526	21306
872.656	21294
872.785	21367
872.915	21545
873.044	21534
873.173	21542
873.303	21542
873.432	21504
873.561	21717
873.69	21473
873.819	21553
873.948	21618
874.077	21526
874.206	21496
874.335	21542
874.464	21637
874.593	21835
874.722	21778
874.851	21743
874.979	21797
875.108	21850
875.237	21751
875.365	21667
875.494	21789
875.623	21884
875.751	21804
875.88	21918
876.008	21888
876.136	21968
876.265	22287
876.393	22318
876.521	22177
876.65	22215
876.778	22242
876.906	22086
877.034	21937
877.162	22147
877.29	22093
877.418	22219
877.546	22215
877.674	22169
877.802	22070
877.93	22162
878.058	22173
878.185	22067
878.313	22105
878.441	22139
878.568	21953
878.696	22017
878.824	22051
878.951	22169
879.079	22112
879.206	22310
879.333	22253
879.461	22021
879.588	22207
879.715	22185
879.842	22508
879.97	22253
880.097	21876
880.224	21968
880.351	21979
880.478	21922
880.605	21804
880.732	21838
880.859	22112
880.986	21998
881.112	21911
881.239	21762
881.366	21732
881.493	21557
881.619	21576
881.746	21580
881.872	21393
881.999	21553
882.125	21424
882.252	21511
882.378	21530
882.505	21652
882.631	21439
882.757	21249
882.883	21382
883.01	21298
883.136	21272
883.262	21199
883.388	21074
883.514	21214
883.64	21370
883.766	21176
883.892	21077
884.018	21074
884.143	21237
884.269	21256
884.395	20899
884.52	20834
884.646	20921
884.772	20891
884.897	20937
885.023	20887
885.148	21024
885.274	21104
885.399	20937
885.524	20800
885.65	20811
885.775	20899
885.9	20826
886.025	21001
886.15	20925
886.275	20739
886.4	20807
886.525	20758
886.65	20708
886.775	20762
886.9	20986
887.025	21058
887.149	20906
887.274	20708
887.399	20693
887.523	20712
887.648	20556
887.773	20499
887.897	20788
888.021	20765
888.146	20598
888.27	20640
888.395	20716
888.519	20655
888.643	20613
888.767	20830
888.891	20450
889.015	20465
889.139	20522
889.263	20339
889.387	20480
889.511	20632
889.635	20533
889.759	20450
889.883	20366
890.006	20446
890.13	20454
890.254	20305
890.377	20488
890.501	20180
890.624	20233
890.748	20183
890.871	20096
890.995	19864
891.118	19890
891.241	20062
891.364	19947
891.488	20240
891.611	20031
891.734	19959
891.857	20027
891.98	19997
892.103	20008
892.226	19932
892.349	20039
892.471	19856
892.594	19906
892.717	19883
892.839	19959
892.962	20027
893.085	19993
893.207	19921
893.33	19791
893.452	19814
893.575	19986
893.697	19822
893.819	19970
893.941	20050
894.064	20016
894.186	19887
894.308	19906
894.43	20039
894.552	20046
894.674	19928
894.796	19868
894.918	19947
895.04	19913
895.161	20020
895.283	19940
895.405	19879
895.526	19921
895.648	19803
895.769	19974
895.891	19944
896.012	20077
896.134	20043
896.255	19883
896.376	19963
896.498	19894
896.619	20065
896.74	19951
896.861	20031
896.982	20336
897.103	20294
897.224	20244
897.345	20240
897.466	20016
897.587	20206
897.708	20180
897.828	20195
897.949	20024
898.07	19970
898.19	20077
898.311	20035
898.431	20001
898.552	20240
898.672	20183
898.792	20172
898.913	20005
899.033	19986
899.153	19913
899.273	19746
899.393	19818
899.513	19913
899.633	19864
899.753	19967
899.873	19906
899.993	19833
900.113	19845
900.232	19772
900.352	19849
900.472	19799
900.591	19700
900.711	19597
900.83	19590
900.95	19765
901.069	19609
901.189	19521
901.308	19278
901.427	19232
901.546	19274
901.665	19274
901.784	19179
901.904	19164
902.023	18913
902.141	18833
902.26	18681
902.379	18837
902.498	18859
902.617	18677
902.735	18616
902.854	18738
902.973	18753
903.091	18536
903.21	18285
903.328	18376
903.446	18277
903.565	18315
903.683	18190
903.801	18072
903.919	18235
904.038	18129
904.156	18064
904.274	18038
904.392	17969
904.51	18019
904.627	18060
904.745	18003
904.863	17973
904.981	17809
905.098	17707
905.216	17524
905.334	17710
905.451	17703
905.569	17699
905.686	17710
905.803	17562
905.921	17410
906.038	17570
906.155	17501
906.272	17330
906.389	17231
906.506	17155
906.623	17193
906.74	17079
906.857	17037
906.974	17060
907.091	17147
907.208	17265
907.324	17246
907.441	17155
907.557	16809
907.674	16828
907.79	16839
907.907	16869
908.023	16881
908.139	16801
908.256	16763
908.372	16869
908.488	16740
908.604	16683
908.72	16485
908.836	16569
908.952	16508
909.068	16497
909.184	16577
909.3	16577
909.415	16607
909.531	16599
909.647	16310
909.762	16386
909.878	16257
909.993	16322
910.108	16299
910.224	16272
910.339	16284
910.454	16192
910.57	16082
910.685	16051
910.8	16325
910.915	16291
911.03	16135
911.145	15926
911.259	15945
911.374	15876
911.489	15800
911.604	15736
911.718	15587
911.833	15587
911.947	15553
912.062	15408
912.176	15694
912.291	15545
912.405	15553
912.519	15778
912.633	15838
912.748	15595
912.862	15599
912.976	15408
913.09	15355
913.204	15344
913.318	15447
913.431	15443
913.545	15477
913.659	15466
913.772	15348
913.886	15211
914	15165
914.113	15386
914.226	15283
914.34	15264
914.453	15074
914.566	15260
914.68	15116
914.793	15123
914.906	14910
915.019	15020
915.132	14853
915.245	14952
915.358	14887
915.47	14956
915.583	14838
915.696	14800
915.809	15039
915.921	15074
916.034	14853
916.146	14648
916.259	14716
916.371	14910
916.483	14781
916.595	14625
916.708	14644
916.82	14743
916.932	14621
917.044	14617
917.156	14602
917.268	14511
917.38	14518
917.491	14488
917.603	14476
917.715	14552
917.826	14651
917.938	14499
918.049	14370
918.161	14541
918.272	14465
918.384	14552
918.495	14438
918.606	14328
918.717	14294
918.828	14366
918.939	14400
919.05	14218
919.161	14317
919.272	14077
919.383	14115
919.494	14229
919.604	14530
919.715	14248
919.826	14229
919.936	14206
920.047	14275
920.157	14206
920.267	14454
920.378	14267
920.488	14259
920.598	14404
920.708	14476
920.818	14381
920.928	14347
921.038	14518
921.148	14511
921.258	14164
921.368	14164
921.477	13989
921.587	13955
921.697	13932
921.806	14050
921.916	13776
922.025	13723
922.134	13556
922.244	13567
922.353	13658
922.462	13582
922.571	13460
922.68	13263
922.789	13194
922.898	13274
923.007	13126
923.116	13236
923.224	13244
923.333	13149
923.442	13099
923.55	13095
923.659	13038
923.767	13091
923.876	12985
923.984	13042
924.092	12958
924.201	13076
924.309	13034
924.417	13050
924.525	12939
924.633	12932
924.741	13666
924.849	12753
924.956	12779
925.064	12734
925.172	12623
925.279	12650
925.387	12757
925.494	12582
925.602	12856
925.709	12814
925.816	12631
925.924	12604
926.031	12779
926.138	12639
926.245	12669
926.352	12498
926.459	12646
926.566	12700
926.673	12460
926.779	12410
926.886	12467
926.993	12254
927.099	12346
927.206	12144
927.312	12209
927.419	12304
927.525	12334
927.631	12251
927.737	12133
927.843	12072
927.95	12057
928.056	12076
928.162	12034
928.267	12121
928.373	12593
928.479	12106
928.585	11931
928.69	12060
928.796	12110
928.901	11927
929.007	11790
929.112	11939
929.218	11950
929.323	11809
929.428	11798
929.533	11980
929.638	11771
929.743	11790
929.848	11748
929.953	11688
930.058	11642
930.163	11581
930.267	11589
930.372	11608
930.477	11471
930.581	11779
930.685	11577
930.79	11387
930.894	11356
930.998	11387
931.103	11467
931.207	11189
931.311	11117
931.415	11064
931.519	10774
931.623	10774
