Data from test_V78500241_1077.txt Node
Date: Fri Mar 25 15:17:21 CST 2022
User: usil
Spectrometer: V785-0024
Trigger mode: 0
Integration Time (sec): 4.000000E-1
Scans to average: 1
Nonlinearity correction enabled: false
Boxcar width: 0
Storing dark spectrum: false
XAxis mode: Wavelengths
Number of Pixels in Spectrum: 1024
>>>>>Begin Spectral Data<<<<<
801.071	28150
801.214	28124
801.356	27831
801.499	27861
801.641	27629
801.783	27648
801.926	27701
802.068	27705
802.211	27633
802.353	27656
802.496	27359
802.638	27439
802.78	27386
802.923	27226
803.065	27427
803.208	27340
803.35	27374
803.492	27408
803.635	27431
803.777	27481
803.919	27507
804.061	27770
804.204	27644
804.346	27378
804.488	27336
804.63	27523
804.773	27511
804.915	27485
805.057	27724
805.199	27500
805.341	27618
805.483	27690
805.626	27759
805.768	27614
805.91	27717
806.052	27747
806.194	27549
806.336	27838
806.478	27717
806.62	27648
806.762	27846
806.904	28002
807.046	28333
807.188	28059
807.33	28124
807.472	28086
807.614	27983
807.756	28097
807.898	27968
808.04	28090
808.182	27972
808.324	28078
808.465	28048
808.607	28238
808.749	28314
808.891	28257
809.033	28474
809.174	28504
809.316	28295
809.458	28352
809.6	28249
809.741	28459
809.883	28599
810.025	28622
810.166	28599
810.308	28504
810.45	28630
810.591	28592
810.733	28485
810.875	28432
811.016	28436
811.158	28322
811.299	28440
811.441	28550
811.582	28451
811.724	28398
811.865	28303
812.007	28352
812.148	28424
812.29	28394
812.431	28508
812.573	28835
812.714	28683
812.855	28942
812.997	29098
813.138	29083
813.279	29067
813.421	28881
813.562	28881
813.703	28828
813.845	28516
813.986	28226
814.127	28169
814.268	28006
814.41	28276
814.551	28097
814.692	28067
814.833	28070
814.974	28074
815.115	28013
815.256	27816
815.397	27987
815.539	27930
815.68	27838
815.821	27922
815.962	27831
816.103	27876
816.244	27808
816.385	27679
816.526	27671
816.666	27507
816.807	27427
816.948	27321
817.089	27538
817.23	27401
817.371	27306
817.512	27359
817.653	27374
817.793	27405
817.934	27389
818.075	27450
818.216	27336
818.356	27405
818.497	27294
818.638	27081
818.778	27188
818.919	27161
819.06	27123
819.2	27310
819.341	27427
819.481	27408
819.622	27511
819.762	27698
819.903	27679
820.043	27625
820.184	27622
820.324	27450
820.465	27538
820.605	27488
820.746	27561
820.886	27443
821.026	27382
821.167	27485
821.307	27526
821.447	27310
821.588	27313
821.728	27264
821.868	27032
822.008	26754
822.149	26948
822.289	26731
822.429	26629
822.569	26522
822.709	26526
822.849	26499
822.99	26393
823.13	26404
823.27	26225
823.41	26176
823.55	26096
823.69	26210
823.83	26043
823.97	26218
824.11	25986
824.25	26077
824.389	25986
824.529	26024
824.669	26054
824.809	26157
824.949	26282
825.089	26073
825.228	26084
825.368	26016
825.508	25974
825.648	25902
825.787	26073
825.927	25955
826.067	25928
826.206	26035
826.346	25906
826.485	26027
826.625	25921
826.765	25993
826.904	25982
827.044	25746
827.183	25696
827.323	25727
827.462	25731
827.601	25753
827.741	25651
827.88	25746
828.02	25609
828.159	25449
828.298	25578
828.437	25594
828.577	25499
828.716	25849
828.855	25487
828.994	25373
829.134	25365
829.273	25403
829.412	25297
829.551	25278
829.69	25407
829.829	25293
829.968	25381
830.107	25457
830.246	25236
830.385	25460
830.524	25175
830.663	25240
830.802	25004
830.941	24886
831.08	24817
831.219	25099
831.357	25091
831.496	25247
831.635	25004
831.774	24871
831.913	24802
832.051	24730
832.19	24837
832.329	24840
832.467	24692
832.606	24730
832.744	24715
832.883	24589
833.022	24658
833.16	24669
833.299	24734
833.437	24810
833.576	24707
833.714	24776
833.852	24943
833.991	24837
834.129	24916
834.267	24738
834.406	24719
834.544	24817
834.682	24844
834.821	24707
834.959	24810
835.097	24814
835.235	24604
835.373	24825
835.511	24661
835.65	24479
835.788	24517
835.926	24403
836.064	24467
836.202	24464
836.34	24532
836.478	24673
836.615	24452
836.753	24601
836.891	24715
837.029	24684
837.167	24532
837.305	24479
837.443	24498
837.58	24532
837.718	24456
837.856	24399
837.993	24429
838.131	24380
838.269	24277
838.406	24311
838.544	24342
838.681	24041
838.819	24106
838.956	23954
839.094	23771
839.231	23882
839.369	24022
839.506	24224
839.643	24178
839.781	23901
839.918	23946
840.055	23748
840.193	23885
840.33	23775
840.467	23775
840.604	23722
840.742	24117
840.879	23543
841.016	23691
841.153	23672
841.29	23870
841.427	23805
841.564	23752
841.701	23859
841.838	23726
841.975	23672
842.112	23676
842.249	23680
842.385	23554
842.522	23687
842.659	23524
842.796	23520
842.933	23531
843.069	23425
843.206	23638
843.343	23539
843.479	23482
843.616	23512
843.752	23299
843.889	23372
844.025	23448
844.162	23307
844.298	23471
844.435	23315
844.571	23288
844.708	23368
844.844	23486
844.98	23554
845.117	23414
845.253	23235
845.389	23246
845.525	23231
845.661	23094
845.798	23086
845.934	23155
846.07	23090
846.206	23025
846.342	23227
846.478	22980
846.614	22968
846.75	22824
846.886	22740
847.022	22824
847.158	22744
847.294	22782
847.429	22831
847.565	22797
847.701	22881
847.837	22519
847.972	22455
848.108	22592
848.244	22527
848.379	22478
848.515	22318
848.65	22428
848.786	22557
848.921	22382
849.057	22440
849.192	22512
849.328	22436
849.463	22375
849.598	22318
849.734	22204
849.869	22147
850.004	22242
850.14	22215
850.275	22166
850.41	22188
850.545	22162
850.68	22169
850.815	22112
850.95	22044
851.085	22246
851.22	22291
851.355	22188
851.49	22078
851.625	22105
851.76	22067
851.895	22120
852.03	21994
852.165	22162
852.299	22188
852.434	22166
852.569	22246
852.703	22207
852.838	22230
852.973	22322
853.107	22185
853.242	22112
853.376	22017
853.511	21827
853.645	22025
853.78	22109
853.914	21972
854.048	21926
854.183	22006
854.317	22070
854.451	22097
854.585	21846
854.72	21941
854.854	22021
854.988	21842
855.122	21979
855.256	22010
855.39	21941
855.524	21998
855.658	21979
855.792	21949
855.926	22036
856.06	21934
856.194	22090
856.327	21956
856.461	21778
856.595	21960
856.729	22040
856.862	22036
856.996	21987
857.13	21960
857.263	21945
857.397	22025
857.53	21991
857.664	21869
857.797	22086
857.931	22029
858.064	22021
858.197	21956
858.331	21994
858.464	21846
858.597	21846
858.731	21915
858.864	21960
858.997	21899
859.13	21953
859.263	22036
859.396	22006
859.529	21793
859.662	21895
859.795	21838
859.928	22002
860.061	21968
860.194	22215
860.327	22143
860.46	22067
860.592	22116
860.725	22078
860.858	22150
860.99	21953
861.123	21804
861.256	21892
861.388	21911
861.521	22645
861.653	21793
861.786	21709
861.918	21732
862.05	21975
862.183	21873
862.315	22013
862.447	21987
862.58	21861
862.712	21633
862.844	21622
862.976	21789
863.108	21709
863.24	22246
863.372	21667
863.504	21679
863.636	21671
863.768	21660
863.9	21633
864.032	21675
864.164	21652
864.296	21523
864.428	21751
864.559	21622
864.691	21713
864.823	21717
864.954	21568
865.086	21557
865.217	21595
865.349	21477
865.48	21477
865.612	21492
865.743	21671
865.875	21663
866.006	21523
866.137	21389
866.269	21431
866.4	21477
866.531	21492
866.662	21363
866.793	21557
866.924	21401
867.055	21625
867.186	21382
867.317	21412
867.448	21393
867.579	21610
867.71	21462
867.841	21332
867.972	21485
868.103	21348
868.233	21519
868.364	21378
868.495	21690
868.625	21713
868.756	21778
868.886	21637
869.017	21827
869.147	21865
869.278	21827
869.408	21698
869.539	21751
869.669	21785
869.799	21698
869.929	21880
870.06	21827
870.19	21934
870.32	21911
870.45	22040
870.58	22090
870.71	22246
870.84	22238
870.97	22006
871.1	22063
871.23	22348
871.36	22314
871.489	22101
871.619	22226
871.749	22360
871.879	22337
872.008	22402
872.138	22322
872.267	22223
872.397	22211
872.526	22158
872.656	22116
872.785	22166
872.915	22405
873.044	22474
873.173	22322
873.303	22398
873.432	22333
873.561	22466
873.69	22325
873.819	22356
873.948	22360
874.077	22428
874.206	22223
874.335	22306
874.464	22303
874.593	22565
874.722	22459
874.851	22550
874.979	22557
875.108	22645
875.237	22561
875.365	22394
875.494	22519
875.623	22607
875.751	22554
875.88	22565
876.008	22622
876.136	22809
876.265	22862
876.393	23151
876.521	22908
876.65	23124
876.778	22938
876.906	22854
877.034	22850
877.162	22885
877.29	22850
877.418	22824
877.546	22824
877.674	22889
877.802	22953
877.93	22801
878.058	22896
878.185	22984
878.313	22805
878.441	22923
878.568	22778
878.696	22786
878.824	22892
878.951	22892
879.079	23094
879.206	23136
879.333	23102
879.461	22919
879.588	23037
879.715	23003
879.842	23083
879.97	22965
880.097	22828
880.224	22615
880.351	22755
880.478	22698
880.605	22596
880.732	22672
880.859	22911
880.986	22653
881.112	22740
881.239	22478
881.366	22485
881.493	22322
881.619	22291
881.746	22322
881.872	22287
881.999	22303
882.125	22158
882.252	22306
882.378	22162
882.505	22261
882.631	22196
882.757	21987
882.883	21968
883.01	21975
883.136	21876
883.262	21895
883.388	21774
883.514	21926
883.64	21994
883.766	21804
883.892	21869
884.018	21720
884.143	22013
884.269	21930
884.395	21747
884.52	21477
884.646	21629
884.772	21618
884.897	21500
885.023	21549
885.148	21648
885.274	21793
885.399	21675
885.524	21485
885.65	21629
885.775	21618
885.9	21587
886.025	21766
886.15	21679
886.275	21568
886.4	21488
886.525	21564
886.65	21561
886.775	21587
886.9	21728
887.025	21682
887.149	21530
887.274	21378
887.399	21374
887.523	21450
887.648	21294
887.773	21321
887.897	21370
888.021	21397
888.146	21317
888.27	21526
888.395	21420
888.519	21363
888.643	21412
888.767	21378
888.891	21207
889.015	21222
889.139	21348
889.263	21150
889.387	21245
889.511	21458
889.635	21165
889.759	21096
889.883	21161
890.006	21211
890.13	21249
890.254	21070
890.377	20971
890.501	20883
890.624	20815
890.748	20880
890.871	20857
890.995	20625
891.118	20705
891.241	20739
891.364	20701
891.488	20910
891.611	20659
891.734	20708
891.857	20792
891.98	20781
892.103	20838
892.226	20716
892.349	20689
892.471	20518
892.594	20670
892.717	20648
892.839	20636
892.962	20667
893.085	20651
893.207	20579
893.33	20393
893.452	20476
893.575	20670
893.697	20678
893.819	20708
893.941	20697
894.064	20750
894.186	20625
894.308	20552
894.43	20705
894.552	20720
894.674	20712
894.796	20438
894.918	20590
895.04	20530
895.161	20632
895.283	20606
895.405	20541
895.526	20518
895.648	20560
895.769	20667
895.891	20708
896.012	20648
896.134	20670
896.255	20564
896.376	20617
896.498	20663
896.619	20632
896.74	20606
896.861	20598
896.982	20952
897.103	20891
897.224	20845
897.345	20773
897.466	20682
897.587	20735
897.708	20986
897.828	20956
897.949	20716
898.07	20602
898.19	20735
898.311	20769
898.431	20644
898.552	20887
898.672	20823
898.792	20914
898.913	20785
899.033	20636
899.153	20617
899.273	20530
899.393	20503
899.513	20469
899.633	20632
899.753	20492
899.873	20492
899.993	20594
900.113	20396
900.232	20454
900.352	20415
900.472	20328
900.591	20161
900.711	20271
900.83	20328
900.95	20423
901.069	20366
901.189	20122
901.308	19849
901.427	19856
901.546	19909
901.665	19833
901.784	19947
901.904	19647
902.023	19575
902.141	19457
902.26	19495
902.379	19499
902.498	19373
902.617	19400
902.735	19358
902.854	19358
902.973	19301
903.091	19080
903.21	19152
903.328	19122
903.446	18970
903.565	18856
903.683	18867
903.801	18817
903.919	18875
904.038	18738
904.156	18700
904.274	18616
904.392	18715
904.51	18673
904.627	18536
904.745	18650
904.863	18707
904.981	18426
905.098	18334
905.216	18369
905.334	18338
905.451	18391
905.569	18163
905.686	18167
905.803	18285
905.921	18095
906.038	18205
906.155	18114
906.272	18038
906.389	17999
906.506	17843
906.623	17817
906.74	17809
906.857	17764
906.974	17733
907.091	17939
907.208	17920
907.324	17794
907.441	17710
907.557	17509
907.674	17585
907.79	17376
907.907	17539
908.023	17520
908.139	17562
908.256	17478
908.372	17429
908.488	17398
908.604	17322
908.72	17197
908.836	17265
908.952	17208
909.068	17299
909.184	17265
909.3	17265
909.415	17284
909.531	17170
909.647	17041
909.762	17037
909.878	16915
909.993	16953
910.108	16972
910.224	16869
910.339	16946
910.454	16809
910.57	16801
910.685	16725
910.8	17056
910.915	16949
911.03	16740
911.145	16512
911.259	16478
911.374	16565
911.489	16542
911.604	16447
911.718	16223
911.833	16276
911.947	16135
912.062	16128
912.176	16257
912.291	16196
912.405	16257
912.519	16409
912.633	16436
912.748	16314
912.862	16226
912.976	16120
913.09	15964
913.204	16093
913.318	16219
913.431	16223
913.545	16154
913.659	16230
913.772	16067
913.886	15922
914	15816
914.113	15915
914.226	15949
914.34	15899
914.453	15743
914.566	15888
914.68	15759
914.793	15736
914.906	15580
915.019	15473
915.132	15488
915.245	15500
915.358	15481
915.47	15481
915.583	15416
915.696	15443
915.809	15507
915.921	15614
916.034	15473
916.146	15473
916.259	15351
916.371	15454
916.483	15412
916.595	15344
916.708	15386
916.82	15344
916.932	15291
917.044	15252
917.156	15157
917.268	15100
917.38	15180
917.491	15085
917.603	15211
917.715	15077
917.826	15108
917.938	15036
918.049	14910
918.161	15058
918.272	15230
918.384	15180
918.495	14986
918.606	14967
918.717	14834
918.828	14914
918.939	14826
919.05	14796
919.161	14804
919.272	14678
919.383	14670
919.494	14842
919.604	15104
919.715	14910
919.826	14807
919.936	14750
920.047	14823
920.157	14800
920.267	14929
920.378	14826
920.488	14701
920.598	14925
920.708	15043
920.818	14910
920.928	14979
921.038	15127
921.148	15047
921.258	14743
921.368	14762
921.477	14526
921.587	14526
921.697	14415
921.806	14575
921.916	14396
922.025	14145
922.134	14225
922.244	14096
922.353	14172
922.462	14088
922.571	13963
922.68	13871
922.789	13864
922.898	13845
923.007	13818
923.116	13818
923.224	13769
923.333	13772
923.442	13693
923.55	13651
923.659	13677
923.767	13647
923.876	13540
923.984	13567
924.092	13514
924.201	13563
924.309	13594
924.417	13594
924.525	13559
924.633	13518
924.741	14419
924.849	13202
924.956	13384
925.064	13190
925.172	13133
925.279	13198
925.387	13331
925.494	13266
925.602	13392
925.709	13278
925.816	13019
925.924	13240
926.031	13202
926.138	13103
926.245	13263
926.352	12966
926.459	13156
926.566	13164
926.673	13110
926.779	13012
926.886	13008
926.993	12779
927.099	12821
927.206	12753
927.312	12700
927.419	12817
927.525	12810
927.631	12844
927.737	12719
927.843	12764
927.95	12540
928.056	12544
928.162	12658
928.267	12662
928.373	13221
928.479	12692
928.585	12426
928.69	12475
928.796	12620
928.901	12410
929.007	12315
929.112	12426
929.218	12422
929.323	12418
929.428	12342
929.533	12517
929.638	12296
929.743	12308
929.848	12235
929.953	12304
930.058	12178
930.163	12125
930.267	11935
930.372	12194
930.477	11916
930.581	12152
930.685	12041
930.79	11843
930.894	11893
930.998	11889
931.103	12011
931.207	11672
931.311	11611
931.415	11433
931.519	11288
931.623	11246
