Data from test_V78500241_3448.txt Node
Date: Fri Mar 25 15:33:52 CST 2022
User: usil
Spectrometer: V785-0024
Trigger mode: 0
Integration Time (sec): 4.000000E-1
Scans to average: 1
Nonlinearity correction enabled: false
Boxcar width: 0
Storing dark spectrum: false
XAxis mode: Wavelengths
Number of Pixels in Spectrum: 1024
>>>>>Begin Spectral Data<<<<<
801.071	27325
801.214	27393
801.356	27005
801.499	26994
801.641	26823
801.783	26834
801.926	26998
802.068	26849
802.211	26804
802.353	26609
802.496	26644
802.638	26465
802.78	26461
802.923	26313
803.065	26317
803.208	26393
803.35	26453
803.492	26682
803.635	26678
803.777	26632
803.919	26655
804.061	26952
804.204	26731
804.346	26560
804.488	26560
804.63	26788
804.773	26579
804.915	26644
805.057	26758
805.199	26686
805.341	26689
805.483	26735
805.626	26697
805.768	26640
805.91	26689
806.052	26651
806.194	26731
806.336	26963
806.478	26781
806.62	26758
806.762	26986
806.904	26883
807.046	27199
807.188	27146
807.33	27146
807.472	27100
807.614	27062
807.756	27081
807.898	26918
808.04	26914
808.182	26994
808.324	27039
808.465	27051
808.607	27146
808.749	27386
808.891	27473
809.033	27447
809.174	27397
809.316	27359
809.458	27310
809.6	27241
809.741	27443
809.883	27382
810.025	27625
810.166	27420
810.308	27606
810.45	27568
810.591	27583
810.733	27393
810.875	27405
811.016	27336
811.158	27245
811.299	27462
811.441	27488
811.582	27450
811.724	27325
811.865	27268
812.007	27348
812.148	27367
812.29	27291
812.431	27557
812.573	27599
812.714	27728
812.855	27766
812.997	27930
813.138	28154
813.279	27857
813.421	27975
813.562	27739
813.703	27656
813.845	27340
813.986	27256
814.127	27070
814.268	26967
814.41	26986
814.551	26975
814.692	27188
814.833	26891
814.974	26910
815.115	26948
815.256	26902
815.397	27009
815.539	26868
815.68	26762
815.821	26739
815.962	26750
816.103	26785
816.244	26705
816.385	26564
816.526	26480
816.666	26282
816.807	26126
816.948	26301
817.089	26374
817.23	26214
817.371	26195
817.512	26161
817.653	26237
817.793	26229
817.934	26225
818.075	26248
818.216	26229
818.356	26240
818.497	26126
818.638	26088
818.778	25966
818.919	25833
819.06	26119
819.2	26183
819.341	26237
819.481	26172
819.622	26362
819.762	26625
819.903	26492
820.043	26355
820.184	26442
820.324	26408
820.465	26408
820.605	26358
820.746	26294
820.886	26256
821.026	26370
821.167	26240
821.307	26267
821.447	26092
821.588	26164
821.728	25944
821.868	25864
822.008	25742
822.149	25852
822.289	25685
822.429	25537
822.569	25460
822.709	25377
822.849	25187
822.99	25213
823.13	25244
823.27	25110
823.41	25023
823.55	24863
823.69	25038
823.83	25046
823.97	24821
824.11	24734
824.25	24814
824.389	24806
824.529	24878
824.669	24947
824.809	24901
824.949	24837
825.089	24989
825.228	24913
825.368	24673
825.508	24738
825.648	24719
825.787	24745
825.927	24916
826.067	24726
826.206	24707
826.346	24745
826.485	24726
826.625	24745
826.765	24833
826.904	24848
827.044	24646
827.183	24437
827.323	24486
827.462	24448
827.601	24410
827.741	24441
827.88	24346
828.02	24319
828.159	24483
828.298	24338
828.437	24559
828.577	24376
828.716	24464
828.855	24285
828.994	24155
829.134	24159
829.273	24148
829.412	24186
829.551	24072
829.69	24201
829.829	24247
829.968	24315
830.107	24186
830.246	24213
830.385	24079
830.524	24087
830.663	23946
830.802	23939
830.941	23676
831.08	23809
831.219	23783
831.357	23821
831.496	24057
831.635	23726
831.774	23699
831.913	23585
832.051	23528
832.19	23585
832.329	23558
832.467	23414
832.606	23417
832.744	23398
832.883	23482
833.022	23505
833.16	23421
833.299	23410
833.437	23478
833.576	23509
833.714	23539
833.852	23592
833.991	23573
834.129	23630
834.267	23554
834.406	23395
834.544	23562
834.682	23524
834.821	23455
834.959	23703
835.097	23444
835.235	23649
835.373	23478
835.511	23497
835.65	23421
835.788	23337
835.926	23227
836.064	23223
836.202	23216
836.34	23364
836.478	23497
836.615	23425
836.753	23417
836.891	23600
837.029	23391
837.167	23189
837.305	23239
837.443	23132
837.58	23212
837.718	23273
837.856	23258
837.993	23136
838.131	23235
838.269	23105
838.406	23056
838.544	23052
838.681	23022
838.819	22881
838.956	22622
839.094	22687
839.231	22774
839.369	22938
839.506	23044
839.643	22911
839.781	22713
839.918	22653
840.055	22729
840.193	22698
840.33	22470
840.467	22713
840.604	22596
840.742	22881
840.879	22542
841.016	22367
841.153	22516
841.29	22691
841.427	22634
841.564	22580
841.701	22645
841.838	22668
841.975	22455
842.112	22588
842.249	22421
842.385	22379
842.522	22675
842.659	22478
842.796	22417
842.933	22421
843.069	22367
843.206	22421
843.343	22500
843.479	22497
843.616	22443
843.752	22303
843.889	22204
844.025	22147
844.162	22181
844.298	22310
844.435	22215
844.571	22143
844.708	22204
844.844	22234
844.98	22253
845.117	22147
845.253	22063
845.389	22112
845.525	22109
845.661	22006
845.798	21880
845.934	21926
846.07	21762
846.206	21991
846.342	21899
846.478	21888
846.614	21736
846.75	21679
846.886	21660
847.022	21827
847.158	21641
847.294	21667
847.429	21656
847.565	21622
847.701	21884
847.837	21329
847.972	21260
848.108	21545
848.244	21370
848.379	21302
848.515	21256
848.65	21272
848.786	21218
848.921	21389
849.057	21393
849.192	21214
849.328	21313
849.463	21188
849.598	21188
849.734	21169
849.869	21085
850.004	20910
850.14	21058
850.275	20975
850.41	20906
850.545	20921
850.68	20944
850.815	21032
850.95	21100
851.085	21287
851.22	21264
851.355	21051
851.49	20952
851.625	21013
851.76	20963
851.895	20743
852.03	20960
852.165	21043
852.299	21005
852.434	21032
852.569	20937
852.703	21032
852.838	20982
852.973	21157
853.107	21165
853.242	20853
853.376	20880
853.511	20648
853.645	20815
853.78	20948
853.914	20746
854.048	20804
854.183	20731
854.317	20785
854.451	20960
854.585	20906
854.72	20743
854.854	20902
854.988	20861
855.122	20762
855.256	20769
855.39	20796
855.524	20944
855.658	20910
855.792	20937
855.926	20880
856.06	20823
856.194	20895
856.327	20720
856.461	20708
856.595	20686
856.729	20826
856.862	20914
856.996	20979
857.13	20887
857.263	20967
857.397	20906
857.53	20883
857.664	20769
857.797	20906
857.931	20785
858.064	20914
858.197	20902
858.331	20769
858.464	20686
858.597	20693
858.731	20724
858.864	20746
858.997	20868
859.13	20872
859.263	20982
859.396	20990
859.529	20788
859.662	20708
859.795	20845
859.928	20830
860.061	20944
860.194	20952
860.327	20883
860.46	20796
860.592	20914
860.725	21085
860.858	20918
860.99	20857
861.123	20785
861.256	20701
861.388	20765
861.521	21469
861.653	20659
861.786	20594
861.918	20629
862.05	20571
862.183	20853
862.315	20781
862.447	20864
862.58	20682
862.712	20564
862.844	20541
862.976	20655
863.108	20674
863.24	21005
863.372	20556
863.504	20476
863.636	20526
863.768	20644
863.9	20545
864.032	20473
864.164	20533
864.296	20606
864.428	20743
864.559	20720
864.691	20564
864.823	20530
864.954	20492
865.086	20560
865.217	20522
865.349	20442
865.48	20339
865.612	20366
865.743	20587
865.875	20374
866.006	20434
866.137	20370
866.269	20412
866.4	20499
866.531	20393
866.662	20252
866.793	20408
866.924	20347
867.055	20415
867.186	20469
867.317	20332
867.448	20317
867.579	20305
867.71	20343
867.841	20393
867.972	20381
868.103	20290
868.233	20362
868.364	20377
868.495	20530
868.625	20674
868.756	20750
868.886	20609
869.017	20560
869.147	20670
869.278	20746
869.408	20625
869.539	20514
869.669	20625
869.799	20594
869.929	20667
870.06	20754
870.19	21081
870.32	20944
870.45	20994
870.58	21009
870.71	21154
870.84	20960
870.97	21028
871.1	21024
871.23	21161
871.36	21199
871.489	21005
871.619	21138
871.749	21260
871.879	21279
872.008	21275
872.138	21317
872.267	21214
872.397	21028
872.526	21066
872.656	21135
872.785	21055
872.915	21294
873.044	21359
873.173	21268
873.303	21329
873.432	21249
873.561	21272
873.69	21298
873.819	21146
873.948	21325
874.077	21306
874.206	21180
874.335	21325
874.464	21439
874.593	21496
874.722	21370
874.851	21564
874.979	21534
875.108	21747
875.237	21439
875.365	21389
875.494	21553
875.623	21587
875.751	21382
875.88	21431
876.008	21648
876.136	21682
876.265	21816
876.393	21941
876.521	21968
876.65	21949
876.778	21937
876.906	21907
877.034	21850
877.162	21850
877.29	21743
877.418	21880
877.546	21884
877.674	21895
877.802	21922
877.93	21857
878.058	21812
878.185	21568
878.313	21819
878.441	21717
878.568	21732
878.696	21667
878.824	21880
878.951	21915
879.079	21937
879.206	22055
879.333	21873
879.461	21941
879.588	21983
879.715	21960
879.842	22192
879.97	21861
880.097	21720
880.224	21663
880.351	21701
880.478	21728
880.605	21538
880.732	21625
880.859	21797
880.986	21652
881.112	21583
881.239	21553
881.366	21294
881.493	21291
881.619	21317
881.746	21386
881.872	21408
881.999	21218
882.125	21100
882.252	21249
882.378	21233
882.505	21298
882.631	21085
882.757	20929
882.883	20998
883.01	21055
883.136	21089
883.262	20906
883.388	20811
883.514	20994
883.64	20864
883.766	20937
883.892	20823
884.018	20708
884.143	21009
884.269	20986
884.395	20758
884.52	20575
884.646	20674
884.772	20511
884.897	20446
885.023	20583
885.148	20739
885.274	20823
885.399	20636
885.524	20609
885.65	20602
885.775	20609
885.9	20560
886.025	20659
886.15	20621
886.275	20415
886.4	20450
886.525	20469
886.65	20503
886.775	20370
886.9	20674
887.025	20819
887.149	20606
887.274	20484
887.399	20396
887.523	20362
887.648	20343
887.773	20282
887.897	20408
888.021	20419
888.146	20206
888.27	20415
888.395	20488
888.519	20408
888.643	20419
888.767	20389
888.891	20309
889.015	20111
889.139	20218
889.263	20229
889.387	20290
889.511	20317
889.635	20301
889.759	20221
889.883	20111
890.006	20142
890.13	20202
890.254	20145
890.377	20149
890.501	19925
890.624	19906
890.748	19989
890.871	19852
890.995	19753
891.118	19704
891.241	19814
891.364	19761
891.488	19879
891.611	19898
891.734	19681
891.857	19795
891.98	19788
892.103	19841
892.226	19814
892.349	19655
892.471	19514
892.594	19696
892.717	19689
892.839	19635
892.962	19639
893.085	19750
893.207	19666
893.33	19567
893.452	19708
893.575	19727
893.697	19609
893.819	19780
893.941	19928
894.064	19913
894.186	19662
894.308	19575
894.43	19734
894.552	19879
894.674	19689
894.796	19822
894.918	19643
895.04	19719
895.161	19776
895.283	19772
895.405	19700
895.526	19757
895.648	19685
895.769	19734
895.891	19712
896.012	19719
896.134	19712
896.255	19704
896.376	19651
896.498	19693
896.619	19750
896.74	19700
896.861	19814
896.982	19947
897.103	20183
897.224	20001
897.345	19871
897.466	19925
897.587	20081
897.708	20081
897.828	19932
897.949	19769
898.07	19715
898.19	19852
898.311	20062
898.431	19887
898.552	19856
898.672	20008
898.792	19944
898.913	19978
899.033	19822
899.153	19719
899.273	19696
899.393	19814
899.513	19731
899.633	19647
899.753	19772
899.873	19540
899.993	19753
900.113	19571
900.232	19628
900.352	19651
900.472	19502
900.591	19457
900.711	19480
900.83	19384
900.95	19434
901.069	19544
901.189	19480
901.308	19202
901.427	18913
901.546	19061
901.665	19019
901.784	19053
901.904	18958
902.023	18901
902.141	18635
902.26	18601
902.379	18726
902.498	18578
902.617	18471
902.735	18574
902.854	18582
902.973	18399
903.091	18353
903.21	18273
903.328	18247
903.446	18209
903.565	18019
903.683	18068
903.801	17999
903.919	17992
904.038	18034
904.156	17882
904.274	17992
904.392	17836
904.51	17783
904.627	17843
904.745	17901
904.863	17923
904.981	17596
905.098	17558
905.216	17486
905.334	17642
905.451	17501
905.569	17573
905.686	17554
905.803	17505
905.921	17280
906.038	17398
906.155	17307
906.272	17170
906.389	17128
906.506	17022
906.623	17086
906.74	17006
906.857	16919
906.974	17045
907.091	17151
907.208	17128
907.324	17071
907.441	16953
907.557	16763
907.674	16828
907.79	16717
907.907	16706
908.023	16801
908.139	16744
908.256	16702
908.372	16626
908.488	16691
908.604	16455
908.72	16443
908.836	16440
908.952	16417
909.068	16485
909.184	16599
909.3	16474
909.415	16500
909.531	16459
909.647	16238
909.762	16234
909.878	16143
909.993	16124
910.108	16120
910.224	16181
910.339	16226
910.454	16048
910.57	16135
910.685	15835
910.8	16265
910.915	16196
911.03	15903
911.145	15850
911.259	15838
911.374	15800
911.489	15679
911.604	15724
911.718	15492
911.833	15549
911.947	15511
912.062	15412
912.176	15599
912.291	15511
912.405	15595
912.519	15682
912.633	15778
912.748	15572
912.862	15530
912.976	15431
913.09	15291
913.204	15260
913.318	15317
913.431	15504
913.545	15412
913.659	15454
913.772	15336
913.886	15195
914	15218
914.113	15294
914.226	15249
914.34	15237
914.453	15020
914.566	15180
914.68	15211
914.793	15058
914.906	14823
915.019	14826
915.132	14834
915.245	14823
915.358	14853
915.47	14883
915.583	14724
915.696	14857
915.809	14861
915.921	15032
916.034	14651
916.146	14663
916.259	14617
916.371	14750
916.483	14807
916.595	14613
916.708	14648
916.82	14739
916.932	14640
917.044	14545
917.156	14533
917.268	14442
917.38	14530
917.491	14461
917.603	14454
917.715	14511
917.826	14549
917.938	14450
918.049	14286
918.161	14408
918.272	14564
918.384	14514
918.495	14434
918.606	14229
918.717	14092
918.828	14290
918.939	14309
919.05	14187
919.161	14180
919.272	14016
919.383	14119
919.494	14202
919.604	14503
919.715	14229
919.826	14180
919.936	14115
920.047	14218
920.157	14157
920.267	14358
920.378	14305
920.488	14130
920.598	14256
920.708	14423
920.818	14343
920.928	14332
921.038	14495
921.148	14408
921.258	14103
921.368	14130
921.477	13982
921.587	13852
921.697	13883
921.806	13947
921.916	13849
922.025	13636
922.134	13643
922.244	13552
922.353	13571
922.462	13388
922.571	13415
922.68	13213
922.789	13255
922.898	13274
923.007	13270
923.116	13297
923.224	13217
923.333	13225
923.442	13042
923.55	12947
923.659	13107
923.767	13080
923.876	13023
923.984	13038
924.092	12954
924.201	12966
924.309	13008
924.417	12993
924.525	12859
924.633	13012
924.741	13788
924.849	12700
924.956	12764
925.064	12715
925.172	12528
925.279	12555
925.387	12779
925.494	12608
925.602	12821
925.709	12722
925.816	12563
925.924	12635
926.031	12642
926.138	12631
926.245	12734
926.352	12525
926.459	12627
926.566	12639
926.673	12578
926.779	12475
926.886	12464
926.993	12285
927.099	12213
927.206	12216
927.312	12235
927.419	12235
927.525	12213
927.631	12224
927.737	12133
927.843	12083
927.95	11870
928.056	12117
928.162	12057
928.267	12102
928.373	12612
928.479	12068
928.585	11836
928.69	12083
928.796	12163
928.901	11901
929.007	11870
929.112	11950
929.218	11870
929.323	11767
929.428	11733
929.533	11939
929.638	11710
929.743	11775
929.848	11866
929.953	11722
930.058	11680
930.163	11497
930.267	11551
930.372	11642
930.477	11459
930.581	11573
930.685	11520
930.79	11341
930.894	11395
930.998	11497
931.103	11402
931.207	11113
931.311	11018
931.415	10980
931.519	10714
931.623	10774
