Data from test_V78500241_3462.txt Node
Date: Fri Mar 25 15:33:58 CST 2022
User: usil
Spectrometer: V785-0024
Trigger mode: 0
Integration Time (sec): 4.000000E-1
Scans to average: 1
Nonlinearity correction enabled: false
Boxcar width: 0
Storing dark spectrum: false
XAxis mode: Wavelengths
Number of Pixels in Spectrum: 1024
>>>>>Begin Spectral Data<<<<<
801.071	27256
801.214	27268
801.356	26979
801.499	26925
801.641	26815
801.783	26804
801.926	26971
802.068	26826
802.211	26632
802.353	26640
802.496	26480
802.638	26351
802.78	26457
802.923	26366
803.065	26343
803.208	26385
803.35	26370
803.492	26495
803.635	26549
803.777	26560
803.919	26507
804.061	26785
804.204	26579
804.346	26549
804.488	26339
804.63	26453
804.773	26476
804.915	26579
805.057	26579
805.199	26526
805.341	26560
805.483	26644
805.626	26735
805.768	26450
805.91	26746
806.052	26693
806.194	26594
806.336	26746
806.478	26575
806.62	26693
806.762	26883
806.904	26899
807.046	27036
807.188	27089
807.33	27116
807.472	27199
807.614	26910
807.756	27020
807.898	26807
808.04	26811
808.182	26819
808.324	26933
808.465	27024
808.607	27089
808.749	27233
808.891	27279
809.033	27462
809.174	27249
809.316	27367
809.458	27237
809.6	27199
809.741	27359
809.883	27355
810.025	27637
810.166	27622
810.308	27606
810.45	27462
810.591	27519
810.733	27230
810.875	27264
811.016	27150
811.158	27184
811.299	27283
811.441	27439
811.582	27401
811.724	27192
811.865	27169
812.007	27169
812.148	27256
812.29	27218
812.431	27485
812.573	27583
812.714	27641
812.855	27755
812.997	27895
813.138	27899
813.279	28017
813.421	27770
813.562	27808
813.703	27625
813.845	27435
813.986	27051
814.127	27028
814.268	26967
814.41	26910
814.551	26921
814.692	26849
814.833	26902
814.974	27024
815.115	26872
815.256	26815
815.397	26651
815.539	26769
815.68	26708
815.821	26693
815.962	26765
816.103	26727
816.244	26545
816.385	26434
816.526	26332
816.666	26324
816.807	26142
816.948	26320
817.089	26309
817.23	26138
817.371	26301
817.512	26191
817.653	26073
817.793	26005
817.934	26119
818.075	26043
818.216	26176
818.356	26145
818.497	25978
818.638	25917
818.778	25940
818.919	25944
819.06	25986
819.2	26054
819.341	26100
819.481	26100
819.622	26149
819.762	26385
819.903	26317
820.043	26415
820.184	26157
820.324	26271
820.465	26275
820.605	26157
820.746	26092
820.886	26016
821.026	26275
821.167	26130
821.307	26187
821.447	26199
821.588	26073
821.728	25978
821.868	25670
822.008	25658
822.149	25578
822.289	25731
822.429	25301
822.569	25225
822.709	25278
822.849	25088
822.99	25232
823.13	25027
823.27	25023
823.41	25057
823.55	24810
823.69	24943
823.83	24901
823.97	24806
824.11	24825
824.25	24741
824.389	24783
824.529	24787
824.669	24741
824.809	24719
824.949	24852
825.089	24897
825.228	24700
825.368	24536
825.508	24559
825.648	24448
825.787	24654
825.927	24650
826.067	24578
826.206	24726
826.346	24795
826.485	24566
826.625	24661
826.765	24677
826.904	24715
827.044	24384
827.183	24369
827.323	24429
827.462	24350
827.601	24319
827.741	24399
827.88	24258
828.02	24308
828.159	24418
828.298	24315
828.437	24460
828.577	24194
828.716	24388
828.855	24365
828.994	24026
829.134	24072
829.273	24045
829.412	23923
829.551	24034
829.69	24095
829.829	24026
829.968	24205
830.107	24155
830.246	24026
830.385	23954
830.524	24007
830.663	23824
830.802	23832
830.941	23646
831.08	23573
831.219	23828
831.357	23783
831.496	23954
831.635	23741
831.774	23528
831.913	23604
832.051	23410
832.19	23383
832.329	23459
832.467	23288
832.606	23292
832.744	23269
832.883	23414
833.022	23277
833.16	23277
833.299	23258
833.437	23322
833.576	23395
833.714	23356
833.852	23368
833.991	23467
834.129	23425
834.267	23539
834.406	23406
834.544	23459
834.682	23330
834.821	23265
834.959	23684
835.097	23307
835.235	23478
835.373	23436
835.511	23417
835.65	23315
835.788	23296
835.926	23155
836.064	22991
836.202	23128
836.34	23242
836.478	23356
836.615	23212
836.753	23311
836.891	23315
837.029	23303
837.167	23269
837.305	23204
837.443	23102
837.58	23067
837.718	23124
837.856	23136
837.993	23033
838.131	23010
838.269	23064
838.406	23121
838.544	22965
838.681	22869
838.819	22752
838.956	22725
839.094	22687
839.231	22698
839.369	22717
839.506	23105
839.643	22782
839.781	22607
839.918	22459
840.055	22592
840.193	22641
840.33	22584
840.467	22565
840.604	22660
840.742	22854
840.879	22428
841.016	22478
841.153	22455
841.29	22637
841.427	22512
841.564	22489
841.701	22656
841.838	22402
841.975	22523
842.112	22440
842.249	22344
842.385	22352
842.522	22447
842.659	22341
842.796	22242
842.933	22261
843.069	22272
843.206	22242
843.343	22428
843.479	22310
843.616	22329
843.752	22120
843.889	22029
844.025	22154
844.162	22097
844.298	22185
844.435	22036
844.571	22086
844.708	22173
844.844	22238
844.98	22166
845.117	22185
845.253	22029
845.389	21949
845.525	21937
845.661	21949
845.798	21812
845.934	21778
846.07	21956
846.206	21831
846.342	21838
846.478	21827
846.614	21606
846.75	21450
846.886	21488
847.022	21648
847.158	21587
847.294	21412
847.429	21542
847.565	21511
847.701	21797
847.837	21336
847.972	21252
848.108	21374
848.244	21401
848.379	21226
848.515	21108
848.65	21085
848.786	21211
848.921	21192
849.057	21169
849.192	21207
849.328	21173
849.463	21203
849.598	21032
849.734	20986
849.869	21043
850.004	20979
850.14	20979
850.275	20910
850.41	20792
850.545	20861
850.68	20941
850.815	20925
850.95	20960
851.085	21066
851.22	21032
851.355	20876
851.49	20750
851.625	20792
851.76	20804
851.895	20868
852.03	20918
852.165	20971
852.299	21001
852.434	20941
852.569	20849
852.703	20857
852.838	20986
852.973	21188
853.107	21001
853.242	20925
853.376	20648
853.511	20659
853.645	20712
853.78	20963
853.914	20659
854.048	20651
854.183	20686
854.317	20777
854.451	20845
854.585	20705
854.72	20735
854.854	20800
854.988	20746
855.122	20788
855.256	20594
855.39	20625
855.524	20857
855.658	20678
855.792	20644
855.926	20815
856.06	20823
856.194	20739
856.327	20716
856.461	20629
856.595	20701
856.729	20659
856.862	20941
856.996	20838
857.13	20743
857.263	20777
857.397	20773
857.53	20792
857.664	20670
857.797	20800
857.931	20823
858.064	20823
858.197	20800
858.331	20701
858.464	20625
858.597	20625
858.731	20735
858.864	20644
858.997	20762
859.13	20701
859.263	20807
859.396	20648
859.529	20655
859.662	20693
859.795	20625
859.928	20785
860.061	20960
860.194	20887
860.327	20826
860.46	20838
860.592	20944
860.725	20876
860.858	20773
860.99	20743
861.123	20712
861.256	20644
861.388	20804
861.521	21348
861.653	20644
861.786	20484
861.918	20579
862.05	20678
862.183	20701
862.315	20674
862.447	20663
862.58	20689
862.712	20423
862.844	20389
862.976	20549
863.108	20484
863.24	20906
863.372	20377
863.504	20347
863.636	20339
863.768	20533
863.9	20457
864.032	20404
864.164	20396
864.296	20533
864.428	20419
864.559	20552
864.691	20473
864.823	20537
864.954	20381
865.086	20393
865.217	20362
865.349	20202
865.48	20355
865.612	20343
865.743	20423
865.875	20393
866.006	20324
866.137	20339
866.269	20351
866.4	20324
866.531	20290
866.662	20191
866.793	20263
866.924	20202
867.055	20172
867.186	20370
867.317	20267
867.448	20206
867.579	20199
867.71	20142
867.841	20157
867.972	20309
868.103	20267
868.233	20248
868.364	20233
868.495	20473
868.625	20495
868.756	20598
868.886	20396
869.017	20473
869.147	20518
869.278	20598
869.408	20530
869.539	20606
869.669	20541
869.799	20533
869.929	20750
870.06	20655
870.19	20891
870.32	20807
870.45	20785
870.58	20956
870.71	21043
870.84	21055
870.97	20944
871.1	21013
871.23	21066
871.36	21176
871.489	21085
871.619	21116
871.749	21256
871.879	21195
872.008	21260
872.138	21245
872.267	21036
872.397	21020
872.526	20952
872.656	20834
872.785	20902
872.915	21066
873.044	21199
873.173	21096
873.303	21207
873.432	21249
873.561	21131
873.69	21260
873.819	21245
873.948	21241
874.077	21123
874.206	21096
874.335	21279
874.464	21241
874.593	21355
874.722	21260
874.851	21458
874.979	21275
875.108	21405
875.237	21348
875.365	21268
875.494	21408
875.623	21412
875.751	21469
875.88	21401
876.008	21507
876.136	21488
876.265	21785
876.393	21899
876.521	21816
876.65	22044
876.778	21869
876.906	21732
877.034	21770
877.162	21713
877.29	21717
877.418	21717
877.546	21766
877.674	21667
877.802	21755
877.93	21656
878.058	21671
878.185	21595
878.313	21701
878.441	21728
878.568	21614
878.696	21663
878.824	21747
878.951	21762
879.079	21880
879.206	22105
879.333	21911
879.461	21762
879.588	21892
879.715	21926
879.842	22109
879.97	21778
880.097	21561
880.224	21641
880.351	21698
880.478	21618
880.605	21572
880.732	21606
880.859	21679
880.986	21652
881.112	21561
881.239	21405
881.366	21378
881.493	21313
881.619	21195
881.746	21252
881.872	21256
881.999	21062
882.125	20975
882.252	21188
882.378	21176
882.505	21150
882.631	20891
882.757	20823
882.883	21032
883.01	20921
883.136	20960
883.262	20750
883.388	20769
883.514	20830
883.64	20948
883.766	20705
883.892	20613
884.018	20750
884.143	20853
884.269	20944
884.395	20488
884.52	20415
884.646	20564
884.772	20469
884.897	20347
885.023	20492
885.148	20674
885.274	20705
885.399	20545
885.524	20499
885.65	20503
885.775	20476
885.9	20480
886.025	20556
886.15	20644
886.275	20503
886.4	20377
886.525	20556
886.65	20511
886.775	20465
886.9	20617
887.025	20674
887.149	20408
887.274	20370
887.399	20317
887.523	20305
887.648	20240
887.773	20221
887.897	20370
888.021	20248
888.146	20115
888.27	20511
888.395	20355
888.519	20351
888.643	20317
888.767	20263
888.891	20164
889.015	20043
889.139	20130
889.263	20039
889.387	20199
889.511	20218
889.635	20275
889.759	20081
889.883	20111
890.006	20005
890.13	20138
890.254	20043
890.377	19955
890.501	19795
890.624	19955
890.748	19967
890.871	19677
890.995	19559
891.118	19670
891.241	19601
891.364	19643
891.488	19784
891.611	19586
891.734	19708
891.857	19620
891.98	19704
892.103	19746
892.226	19662
892.349	19540
892.471	19525
892.594	19632
892.717	19514
892.839	19647
892.962	19662
893.085	19635
893.207	19537
893.33	19506
893.452	19533
893.575	19712
893.697	19457
893.819	19772
893.941	19753
894.064	19731
894.186	19552
894.308	19529
894.43	19700
894.552	19746
894.674	19655
894.796	19582
894.918	19609
895.04	19559
895.161	19708
895.283	19734
895.405	19605
895.526	19571
895.648	19594
895.769	19578
895.891	19613
896.012	19578
896.134	19712
896.255	19708
896.376	19632
896.498	19620
896.619	19594
896.74	19559
896.861	19628
896.982	20005
897.103	20096
897.224	19879
897.345	19849
897.466	19681
897.587	19784
897.708	19936
897.828	19936
897.949	19868
898.07	19700
898.19	19689
898.311	19906
898.431	19746
898.552	19753
898.672	19967
898.792	19830
898.913	19795
899.033	19632
899.153	19483
899.273	19514
899.393	19533
899.513	19510
899.633	19559
899.753	19674
899.873	19563
899.993	19742
900.113	19434
900.232	19586
900.352	19464
900.472	19411
900.591	19365
900.711	19369
900.83	19312
900.95	19419
901.069	19377
901.189	19259
901.308	19004
901.427	18981
901.546	18996
901.665	18985
901.784	19038
901.904	18658
902.023	18639
902.141	18525
902.26	18391
902.379	18540
902.498	18471
902.617	18403
902.735	18498
902.854	18369
902.973	18357
903.091	18049
903.21	18197
903.328	18216
903.446	18178
903.565	18015
903.683	18045
903.801	17798
903.919	17859
904.038	17912
904.156	17718
904.274	17707
904.392	17649
904.51	17642
904.627	17737
904.745	17771
904.863	17729
904.981	17608
905.098	17486
905.216	17383
905.334	17455
905.451	17383
905.569	17292
905.686	17417
905.803	17440
905.921	17254
906.038	17269
906.155	17220
906.272	17064
906.389	17010
906.506	16911
906.623	16900
906.74	16938
906.857	16831
906.974	16904
907.091	16942
907.208	17064
907.324	16930
907.441	16763
907.557	16748
907.674	16687
907.79	16634
907.907	16656
908.023	16672
908.139	16626
908.256	16580
908.372	16500
908.488	16596
908.604	16447
908.72	16299
908.836	16299
908.952	16196
909.068	16504
909.184	16466
909.3	16394
909.415	16375
909.531	16485
909.647	16223
909.762	16109
909.878	16120
909.993	16131
910.108	15987
910.224	16006
910.339	16169
910.454	16002
910.57	15941
910.685	15819
910.8	16120
910.915	16090
911.03	15884
911.145	15800
911.259	15667
911.374	15728
911.489	15644
911.604	15599
911.718	15447
911.833	15424
911.947	15393
912.062	15310
912.176	15477
912.291	15545
912.405	15412
912.519	15713
912.633	15705
912.748	15447
912.862	15564
912.976	15302
913.09	15104
913.204	15188
913.318	15230
913.431	15378
913.545	15294
913.659	15378
913.772	15207
913.886	15116
914	15058
914.113	15131
914.226	15218
914.34	15188
914.453	14960
914.566	15138
914.68	15119
914.793	14918
914.906	14655
915.019	14629
915.132	14602
915.245	14648
915.358	14648
915.47	14731
915.583	14663
915.696	14750
915.809	14849
915.921	14823
916.034	14796
916.146	14549
916.259	14659
916.371	14720
916.483	14571
916.595	14530
916.708	14476
916.82	14461
916.932	14552
917.044	14438
917.156	14465
917.268	14339
917.38	14377
917.491	14317
917.603	14343
917.715	14377
917.826	14400
917.938	14362
918.049	14210
918.161	14358
918.272	14339
918.384	14434
918.495	14385
918.606	14191
918.717	14115
918.828	14111
918.939	14218
919.05	14024
919.161	14138
919.272	13944
919.383	13947
919.494	14271
919.604	14240
919.715	14153
919.826	13993
919.936	14111
920.047	14168
920.157	14107
920.267	14301
920.378	14084
920.488	14024
920.598	14191
920.708	14298
920.818	14221
920.928	14214
921.038	14336
921.148	14290
921.258	14065
921.368	13951
921.477	13811
921.587	13860
921.697	13636
921.806	13784
921.916	13734
922.025	13518
922.134	13502
922.244	13419
922.353	13525
922.462	13297
922.571	13251
922.68	13110
922.789	13126
922.898	13202
923.007	13133
923.116	13213
923.224	13129
923.333	13133
923.442	13023
923.55	12989
923.659	13027
923.767	12958
923.876	12935
923.984	13004
924.092	12833
924.201	12985
924.309	12901
924.417	12924
924.525	12757
924.633	12844
924.741	13658
924.849	12627
924.956	12840
925.064	12627
925.172	12525
925.279	12639
925.387	12700
925.494	12612
925.602	12692
925.709	12589
925.816	12502
925.924	12547
926.031	12620
926.138	12479
926.245	12589
926.352	12464
926.459	12589
926.566	12544
926.673	12471
926.779	12330
926.886	12289
926.993	12194
927.099	12167
927.206	12102
927.312	12098
927.419	12087
927.525	12095
927.631	12201
927.737	12034
927.843	12015
927.95	11920
928.056	11992
928.162	12049
928.267	12053
928.373	12547
928.479	12026
928.585	11843
928.69	11969
928.796	11927
928.901	11798
929.007	11665
929.112	11855
929.218	11764
929.323	11767
929.428	11722
929.533	11863
929.638	11634
929.743	11676
929.848	11714
929.953	11634
930.058	11619
930.163	11406
930.267	11474
930.372	11528
930.477	11349
930.581	11680
930.685	11482
930.79	11288
930.894	11330
930.998	11311
931.103	11448
931.207	11033
931.311	10991
931.415	10934
931.519	10710
931.623	10714
