Data from test_V78500241_175.txt Node
Date: Fri Mar 25 15:11:04 CST 2022
User: usil
Spectrometer: V785-0024
Trigger mode: 0
Integration Time (sec): 4.000000E-1
Scans to average: 1
Nonlinearity correction enabled: false
Boxcar width: 0
Storing dark spectrum: false
XAxis mode: Wavelengths
Number of Pixels in Spectrum: 1024
>>>>>Begin Spectral Data<<<<<
801.071	28105
801.214	27987
801.356	27778
801.499	27637
801.641	27526
801.783	27671
801.926	27542
802.068	27633
802.211	27397
802.353	27351
802.496	27123
802.638	27104
802.78	27108
802.923	27074
803.065	26796
803.208	27074
803.35	27176
803.492	27211
803.635	27310
803.777	27195
803.919	27386
804.061	27603
804.204	27184
804.346	27051
804.488	27085
804.63	27066
804.773	27081
804.915	27138
805.057	27359
805.199	27112
805.341	27264
805.483	27279
805.626	27272
805.768	27241
805.91	27344
806.052	27306
806.194	27237
806.336	27488
806.478	27321
806.62	27294
806.762	27332
806.904	27622
807.046	27781
807.188	27614
807.33	27633
807.472	27766
807.614	27473
807.756	27587
807.898	27606
808.04	27378
808.182	27447
808.324	27408
808.465	27614
808.607	27694
808.749	27827
808.891	27964
809.033	28025
809.174	27861
809.316	27876
809.458	27785
809.6	27953
809.741	27975
809.883	27869
810.025	28059
810.166	28131
810.308	28070
810.45	28044
810.591	27922
810.733	27823
810.875	27781
811.016	27736
811.158	27580
811.299	28010
811.441	27842
811.582	27903
811.724	27819
811.865	27854
812.007	27846
812.148	27736
812.29	27918
812.431	27975
812.573	28139
812.714	28097
812.855	28226
812.997	28523
813.138	28462
813.279	28447
813.421	28367
813.562	28272
813.703	28090
813.845	27926
813.986	27759
814.127	27686
814.268	27310
814.41	27382
814.551	27382
814.692	27363
814.833	27424
814.974	27386
815.115	27378
815.256	27192
815.397	27222
815.539	27233
815.68	27214
815.821	27096
815.962	27154
816.103	27165
816.244	27028
816.385	26952
816.526	26880
816.666	26735
816.807	26655
816.948	26625
817.089	26750
817.23	26598
817.371	26602
817.512	26568
817.653	26598
817.793	26518
817.934	26651
818.075	26518
818.216	26682
818.356	26549
818.497	26328
818.638	26202
818.778	26221
818.919	26400
819.06	26533
819.2	26427
819.341	26465
819.481	26560
819.622	26606
819.762	26781
819.903	26891
820.043	26659
820.184	26556
820.324	26575
820.465	26823
820.605	26552
820.746	26636
820.886	26480
821.026	26518
821.167	26541
821.307	26583
821.447	26511
821.588	26438
821.728	26313
821.868	26176
822.008	26062
822.149	25963
822.289	25871
822.429	25601
822.569	25681
822.709	25628
822.849	25460
822.99	25441
823.13	25297
823.27	25365
823.41	25301
823.55	25187
823.69	25175
823.83	25206
823.97	25183
824.11	25004
824.25	25008
824.389	25042
824.529	25095
824.669	25023
824.809	25141
824.949	25171
825.089	25156
825.228	25019
825.368	24901
825.508	24783
825.648	25000
825.787	24840
825.927	25046
826.067	24863
826.206	24875
826.346	24837
826.485	24833
826.625	24837
826.765	24920
826.904	24966
827.044	24616
827.183	24559
827.323	24372
827.462	24722
827.601	24585
827.741	24551
827.88	24673
828.02	24407
828.159	24544
828.298	24517
828.437	24528
828.577	24479
828.716	24597
828.855	24467
828.994	24228
829.134	24330
829.273	24251
829.412	24357
829.551	24167
829.69	24148
829.829	24232
829.968	24205
830.107	24315
830.246	24171
830.385	24057
830.524	24087
830.663	23885
830.802	23980
830.941	23847
831.08	23779
831.219	23809
831.357	23885
831.496	23984
831.635	23741
831.774	23611
831.913	23623
832.051	23646
832.19	23604
832.329	23558
832.467	23543
832.606	23535
832.744	23543
832.883	23414
833.022	23395
833.16	23376
833.299	23528
833.437	23649
833.576	23547
833.714	23566
833.852	23604
833.991	23695
834.129	23684
834.267	23486
834.406	23630
834.544	23600
834.682	23547
834.821	23444
834.959	23676
835.097	23417
835.235	23642
835.373	23455
835.511	23516
835.65	23292
835.788	23459
835.926	23318
836.064	23151
836.202	23170
836.34	23440
836.478	23379
836.615	23398
836.753	23288
836.891	23615
837.029	23376
837.167	23254
837.305	23193
837.443	23208
837.58	23216
837.718	23296
837.856	23181
837.993	23041
838.131	23242
838.269	23025
838.406	23044
838.544	22942
838.681	22774
838.819	22782
838.956	22702
839.094	22656
839.231	22653
839.369	22752
839.506	23143
839.643	22831
839.781	22675
839.918	22516
840.055	22489
840.193	22584
840.33	22512
840.467	22508
840.604	22603
840.742	22767
840.879	22421
841.016	22542
841.153	22360
841.29	22561
841.427	22417
841.564	22405
841.701	22451
841.838	22405
841.975	22352
842.112	22382
842.249	22306
842.385	22169
842.522	22318
842.659	22261
842.796	22177
842.933	22249
843.069	22223
843.206	22105
843.343	22306
843.479	22314
843.616	22177
843.752	22120
843.889	22055
844.025	22120
844.162	21918
844.298	22067
844.435	21953
844.571	21960
844.708	21960
844.844	22105
844.98	22162
845.117	22093
845.253	21873
845.389	21869
845.525	21835
845.661	21880
845.798	21713
845.934	21701
846.07	21614
846.206	21797
846.342	21774
846.478	21690
846.614	21572
846.75	21355
846.886	21408
847.022	21534
847.158	21515
847.294	21485
847.429	21481
847.565	21412
847.701	21625
847.837	21169
847.972	21100
848.108	21245
848.244	21245
848.379	21135
848.515	21036
848.65	20956
848.786	20986
848.921	21058
849.057	21058
849.192	21096
849.328	20990
849.463	21051
849.598	20975
849.734	20933
849.869	20895
850.004	20785
850.14	20830
850.275	20716
850.41	20632
850.545	20617
850.68	20678
850.815	20880
850.95	20739
851.085	20883
851.22	20800
851.355	20819
851.49	20731
851.625	20659
851.76	20773
851.895	20632
852.03	20781
852.165	20674
852.299	20807
852.434	20705
852.569	20754
852.703	20697
852.838	20807
852.973	20929
853.107	20838
853.242	20746
853.376	20526
853.511	20450
853.645	20682
853.78	20663
853.914	20602
854.048	20415
854.183	20480
854.317	20442
854.451	20678
854.585	20511
854.72	20415
854.854	20667
854.988	20446
855.122	20476
855.256	20461
855.39	20442
855.524	20568
855.658	20670
855.792	20514
855.926	20590
856.06	20518
856.194	20579
856.327	20431
856.461	20526
856.595	20454
856.729	20476
856.862	20640
856.996	20663
857.13	20579
857.263	20712
857.397	20575
857.53	20492
857.664	20552
857.797	20560
857.931	20613
858.064	20579
858.197	20625
858.331	20507
858.464	20450
858.597	20309
858.731	20507
858.864	20511
858.997	20431
859.13	20450
859.263	20514
859.396	20575
859.529	20431
859.662	20377
859.795	20484
859.928	20473
860.061	20663
860.194	20484
860.327	20514
860.46	20450
860.592	20632
860.725	20655
860.858	20716
860.99	20438
861.123	20389
861.256	20465
861.388	20552
861.521	21252
861.653	20298
861.786	20355
861.918	20355
862.05	20427
862.183	20465
862.315	20514
862.447	20522
862.58	20457
862.712	20244
862.844	20126
862.976	20362
863.108	20187
863.24	20511
863.372	20187
863.504	20191
863.636	20115
863.768	20195
863.9	20176
864.032	20153
864.164	20145
864.296	20229
864.428	20256
864.559	20313
864.691	20069
864.823	20202
864.954	20153
865.086	20088
865.217	20161
865.349	20077
865.48	20084
865.612	19974
865.743	20145
865.875	20172
866.006	20142
866.137	20046
866.269	20050
866.4	19925
866.531	20084
866.662	20020
866.793	19986
866.924	19970
867.055	19974
867.186	20062
867.317	19989
867.448	19913
867.579	19791
867.71	19852
867.841	19944
867.972	20092
868.103	20024
868.233	20115
868.364	20069
868.495	20134
868.625	20286
868.756	20229
868.886	20172
869.017	20324
869.147	20377
869.278	20396
869.408	20294
869.539	20370
869.669	20317
869.799	20324
869.929	20431
870.06	20374
870.19	20568
870.32	20450
870.45	20469
870.58	20663
870.71	20697
870.84	20849
870.97	20613
871.1	20674
871.23	20796
871.36	20648
871.489	20705
871.619	20773
871.749	20758
871.879	20921
872.008	21009
872.138	20872
872.267	20861
872.397	20765
872.526	20667
872.656	20640
872.785	20823
872.915	20849
873.044	20762
873.173	20804
873.303	20834
873.432	20910
873.561	20952
873.69	20861
873.819	20876
873.948	21032
874.077	20743
874.206	20819
874.335	20994
874.464	20986
874.593	21142
874.722	21188
874.851	21138
874.979	21127
875.108	21169
875.237	21066
875.365	21013
875.494	21192
875.623	21074
875.751	21047
875.88	21154
876.008	21351
876.136	21260
876.265	21507
876.393	21663
876.521	21538
876.65	21545
876.778	21488
876.906	21488
877.034	21481
877.162	21443
877.29	21367
877.418	21572
877.546	21397
877.674	21496
877.802	21488
877.93	21557
878.058	21336
878.185	21439
878.313	21348
878.441	21462
878.568	21344
878.696	21363
878.824	21519
878.951	21507
879.079	21481
879.206	21797
879.333	21690
879.461	21496
879.588	21591
879.715	21622
879.842	21778
879.97	21511
880.097	21325
880.224	21165
880.351	21408
880.478	21351
880.605	21195
880.732	21165
880.859	21431
880.986	21298
881.112	21329
881.239	21199
881.366	20975
881.493	21028
881.619	20880
881.746	20941
881.872	20925
881.999	20792
882.125	20788
882.252	20956
882.378	20910
882.505	21093
882.631	20895
882.757	20556
882.883	20655
883.01	20670
883.136	20640
883.262	20511
883.388	20442
883.514	20587
883.64	20712
883.766	20560
883.892	20362
884.018	20385
884.143	20495
884.269	20701
884.395	20324
884.52	20309
884.646	20168
884.772	20282
884.897	20088
885.023	20263
885.148	20282
885.274	20450
885.399	20358
885.524	20313
885.65	20221
885.775	20351
885.9	20282
886.025	20305
886.15	20343
886.275	20161
886.4	20088
886.525	20142
886.65	20214
886.775	20035
886.9	20377
887.025	20396
887.149	20275
887.274	20012
887.399	20065
887.523	20092
887.648	19967
887.773	19959
887.897	20138
888.021	19986
888.146	19856
888.27	20168
888.395	20134
888.519	20065
888.643	20043
888.767	20008
888.891	19970
889.015	19883
889.139	19841
889.263	19811
889.387	19993
889.511	20043
889.635	20024
889.759	19822
889.883	19734
890.006	19913
890.13	19849
890.254	19689
890.377	19677
890.501	19628
890.624	19639
890.748	19518
890.871	19369
890.995	19518
891.118	19369
891.241	19377
891.364	19430
891.488	19537
891.611	19419
891.734	19468
891.857	19510
891.98	19407
892.103	19396
892.226	19331
892.349	19350
892.471	19289
892.594	19365
892.717	19320
892.839	19365
892.962	19335
893.085	19396
893.207	19308
893.33	19247
893.452	19217
893.575	19358
893.697	19358
893.819	19445
893.941	19480
894.064	19491
894.186	19278
894.308	19225
894.43	19343
894.552	19510
894.674	19358
894.796	19202
894.918	19297
895.04	19225
895.161	19369
895.283	19358
895.405	19297
895.526	19407
895.648	19270
895.769	19369
895.891	19381
896.012	19304
896.134	19346
896.255	19411
896.376	19400
896.498	19346
896.619	19403
896.74	19320
896.861	19499
896.982	19727
897.103	19822
897.224	19708
897.345	19624
897.466	19571
897.587	19586
897.708	19700
897.828	19594
897.949	19586
898.07	19495
898.19	19487
898.311	19753
898.431	19491
898.552	19556
898.672	19529
898.792	19582
898.913	19514
899.033	19400
899.153	19278
899.273	19228
899.393	19266
899.513	19247
899.633	19247
899.753	19278
899.873	19354
899.993	19266
900.113	19297
900.232	19213
900.352	19282
900.472	19148
900.591	19107
900.711	19072
900.83	19072
900.95	19190
901.069	19179
901.189	19080
901.308	18878
901.427	18745
901.546	18700
901.665	18673
901.784	18738
901.904	18513
902.023	18410
902.141	18342
902.26	18232
902.379	18346
902.498	18194
902.617	18155
902.735	18148
902.854	18102
902.973	18091
903.091	17836
903.21	17863
903.328	17828
903.446	17627
903.565	17684
903.683	17638
903.801	17600
903.919	17707
904.038	17596
904.156	17360
904.274	17524
904.392	17505
904.51	17463
904.627	17421
904.745	17535
904.863	17516
904.981	17181
905.098	17029
905.216	17117
905.334	17117
905.451	17239
905.569	17041
905.686	17102
905.803	17140
905.921	16900
906.038	17094
906.155	16946
906.272	16797
906.389	16904
906.506	16717
906.623	16744
906.74	16611
906.857	16546
906.974	16569
907.091	16866
907.208	16790
907.324	16668
907.441	16485
907.557	16352
907.674	16341
907.79	16318
907.907	16398
908.023	16440
908.139	16356
908.256	16265
908.372	16314
908.488	16200
908.604	16040
908.72	16025
908.836	15998
908.952	16150
909.068	16082
909.184	16101
909.3	16071
909.415	16173
909.531	15983
909.647	15751
909.762	15701
909.878	15660
909.993	15770
910.108	15785
910.224	15736
910.339	15747
910.454	15686
910.57	15473
910.685	15534
910.8	15781
910.915	15739
911.03	15595
911.145	15378
911.259	15447
911.374	15355
911.489	15302
911.604	15294
911.718	15207
911.833	15058
911.947	15013
912.062	14872
912.176	15062
912.291	15081
912.405	15085
912.519	15249
912.633	15294
912.748	15195
912.862	15024
912.976	14857
913.09	14830
913.204	14807
913.318	14910
913.431	15036
913.545	14998
913.659	14975
913.772	14895
913.886	14785
914	14705
914.113	14838
914.226	14807
914.34	14804
914.453	14629
914.566	14769
914.68	14579
914.793	14507
914.906	14438
915.019	14370
915.132	14412
915.245	14385
915.358	14385
915.47	14442
915.583	14389
915.696	14389
915.809	14499
915.921	14522
916.034	14309
916.146	14271
916.259	14244
916.371	14389
916.483	14248
916.595	14229
916.708	14164
916.82	14225
916.932	14164
917.044	14153
917.156	14073
917.268	14050
917.38	14084
917.491	14088
917.603	13936
917.715	14145
917.826	14115
917.938	14016
918.049	13925
918.161	13959
918.272	14149
918.384	14077
918.495	13963
918.606	13742
918.717	13807
918.828	13833
918.939	13871
919.05	13780
919.161	13738
919.272	13632
919.383	13742
919.494	13864
919.604	13978
919.715	13890
919.826	13681
919.936	13685
920.047	13799
920.157	13807
920.267	13932
920.378	13795
920.488	13750
920.598	13917
920.708	14161
920.818	13913
920.928	13864
921.038	14065
921.148	13940
921.258	13784
921.368	13681
921.477	13537
921.587	13529
921.697	13403
921.806	13559
921.916	13369
922.025	13289
922.134	13183
922.244	13187
922.353	13095
922.462	13072
922.571	13046
922.68	12829
922.789	12825
922.898	12791
923.007	12745
923.116	12848
923.224	12757
923.333	12745
923.442	12681
923.55	12646
923.659	12700
923.767	12707
923.876	12658
923.984	12620
924.092	12540
924.201	12574
924.309	12555
924.417	12563
924.525	12547
924.633	12467
924.741	13316
924.849	12281
924.956	12403
925.064	12296
925.172	12163
925.279	12296
925.387	12201
925.494	12201
925.602	12334
925.709	12338
925.816	12201
925.924	12266
926.031	12273
926.138	12247
926.245	12258
926.352	12136
926.459	12289
926.566	12266
926.673	12171
926.779	12022
926.886	12030
926.993	11969
927.099	11843
927.206	11783
927.312	11775
927.419	11843
927.525	11866
927.631	11882
927.737	11859
927.843	11642
927.95	11592
928.056	11646
928.162	11699
928.267	11699
928.373	12292
928.479	11691
928.585	11528
928.69	11535
928.796	11718
928.901	11547
929.007	11448
929.112	11482
929.218	11505
929.323	11463
929.428	11471
929.533	11520
929.638	11353
929.743	11330
929.848	11383
929.953	11364
930.058	11292
930.163	11246
930.267	11113
930.372	11258
930.477	11140
930.581	11345
930.685	11124
930.79	10999
930.894	10999
930.998	11037
931.103	11151
931.207	10786
931.311	10561
931.415	10641
931.519	10432
931.623	10417
