Data from test_V78500241_2934.txt Node
Date: Fri Mar 25 15:30:17 CST 2022
User: usil
Spectrometer: V785-0024
Trigger mode: 0
Integration Time (sec): 4.000000E-1
Scans to average: 1
Nonlinearity correction enabled: false
Boxcar width: 0
Storing dark spectrum: false
XAxis mode: Wavelengths
Number of Pixels in Spectrum: 1024
>>>>>Begin Spectral Data<<<<<
801.071	27382
801.214	27112
801.356	27112
801.499	26899
801.641	26823
801.783	26815
801.926	26880
802.068	26807
802.211	26800
802.353	26765
802.496	26575
802.638	26492
802.78	26404
802.923	26362
803.065	26294
803.208	26370
803.35	26533
803.492	26530
803.635	26609
803.777	26545
803.919	26762
804.061	27112
804.204	26617
804.346	26590
804.488	26450
804.63	26590
804.773	26549
804.915	26701
805.057	26644
805.199	26648
805.341	26587
805.483	26807
805.626	26838
805.768	26530
805.91	26629
806.052	26804
806.194	26663
806.336	27028
806.478	26731
806.62	26686
806.762	26921
806.904	27051
807.046	27272
807.188	27062
807.33	27260
807.472	27157
807.614	27104
807.756	27096
807.898	27104
808.04	26956
808.182	27043
808.324	27024
808.465	27135
808.607	27218
808.749	27351
808.891	27401
809.033	27359
809.174	27378
809.316	27427
809.458	27348
809.6	27230
809.741	27397
809.883	27488
810.025	27656
810.166	27618
810.308	27580
810.45	27545
810.591	27576
810.733	27458
810.875	27412
811.016	27317
811.158	27142
811.299	27462
811.441	27443
811.582	27488
811.724	27344
811.865	27256
812.007	27306
812.148	27298
812.29	27443
812.431	27454
812.573	27606
812.714	27705
812.855	27888
812.997	27880
813.138	28074
813.279	27987
813.421	27808
813.562	27774
813.703	27599
813.845	27534
813.986	27135
814.127	27055
814.268	26902
814.41	27017
814.551	27066
814.692	27055
814.833	26823
814.974	27013
815.115	27104
815.256	26994
815.397	26792
815.539	26880
815.68	26758
815.821	26697
815.962	26769
816.103	26823
816.244	26651
816.385	26495
816.526	26438
816.666	26377
816.807	26271
816.948	26332
817.089	26153
817.23	26377
817.371	26298
817.512	26248
817.653	26210
817.793	26172
817.934	26168
818.075	26199
818.216	26385
818.356	26244
818.497	26183
818.638	25966
818.778	25925
818.919	26039
819.06	26084
819.2	26069
819.341	26294
819.481	26305
819.622	26438
819.762	26667
819.903	26571
820.043	26412
820.184	26457
820.324	26419
820.465	26427
820.605	26339
820.746	26415
820.886	26142
821.026	26267
821.167	26248
821.307	26347
821.447	26313
821.588	26153
821.728	26024
821.868	25879
822.008	25738
822.149	25712
822.289	25685
822.429	25388
822.569	25476
822.709	25441
822.849	25285
822.99	25179
823.13	25198
823.27	25103
823.41	24924
823.55	25015
823.69	25141
823.83	25137
823.97	24992
824.11	24730
824.25	24856
824.389	24779
824.529	24901
824.669	24875
824.809	24992
824.949	24840
825.089	24901
825.228	24837
825.368	24646
825.508	24601
825.648	24681
825.787	24734
825.927	24658
826.067	24677
826.206	24612
826.346	24817
826.485	24760
826.625	24642
826.765	24791
826.904	24696
827.044	24433
827.183	24464
827.323	24559
827.462	24513
827.601	24555
827.741	24353
827.88	24433
828.02	24254
828.159	24384
828.298	24532
828.437	24563
828.577	24201
828.716	24388
828.855	24372
828.994	24125
829.134	24060
829.273	24129
829.412	24041
829.551	23996
829.69	24026
829.829	24098
829.968	24232
830.107	24205
830.246	24133
830.385	24018
830.524	24083
830.663	23885
830.802	23756
830.941	23722
831.08	23687
831.219	23783
831.357	23699
831.496	23973
831.635	23573
831.774	23608
831.913	23570
832.051	23562
832.19	23566
832.329	23501
832.467	23406
832.606	23368
832.744	23349
832.883	23303
833.022	23216
833.16	23356
833.299	23414
833.437	23391
833.576	23429
833.714	23353
833.852	23398
833.991	23543
834.129	23482
834.267	23448
834.406	23512
834.544	23387
834.682	23433
834.821	23452
834.959	23657
835.097	23330
835.235	23444
835.373	23376
835.511	23387
835.65	23273
835.788	23258
835.926	23170
836.064	23098
836.202	23189
836.34	23242
836.478	23337
836.615	23178
836.753	23239
836.891	23383
837.029	23349
837.167	23292
837.305	23178
837.443	23140
837.58	23102
837.718	23258
837.856	23090
837.993	23041
838.131	23079
838.269	22885
838.406	22949
838.544	22980
838.681	22835
838.819	22725
838.956	22729
839.094	22607
839.231	22580
839.369	22752
839.506	23018
839.643	22793
839.781	22508
839.918	22405
840.055	22634
840.193	22493
840.33	22588
840.467	22508
840.604	22519
840.742	22900
840.879	22405
841.016	22497
841.153	22447
841.29	22588
841.427	22516
841.564	22588
841.701	22424
841.838	22451
841.975	22409
842.112	22599
842.249	22261
842.385	22402
842.522	22538
842.659	22421
842.796	22284
842.933	22200
843.069	22226
843.206	22246
843.343	22322
843.479	22265
843.616	22226
843.752	22109
843.889	21987
844.025	22074
844.162	22040
844.298	22219
844.435	22002
844.571	21953
844.708	22032
844.844	22219
844.98	22192
845.117	22112
845.253	21934
845.389	21918
845.525	21994
845.661	21911
845.798	21728
845.934	21869
846.07	21766
846.206	21880
846.342	21888
846.478	21694
846.614	21671
846.75	21519
846.886	21580
847.022	21637
847.158	21511
847.294	21568
847.429	21485
847.565	21504
847.701	21720
847.837	21127
847.972	21192
848.108	21287
848.244	21408
848.379	21222
848.515	21207
848.65	21112
848.786	21024
848.921	21230
849.057	21150
849.192	21135
849.328	21154
849.463	21032
849.598	21199
849.734	21093
849.869	21001
850.004	20864
850.14	20910
850.275	20804
850.41	20804
850.545	20910
850.68	20861
850.815	20914
850.95	20823
851.085	21119
851.22	20921
851.355	20899
851.49	20948
851.625	20823
851.76	20891
851.895	20701
852.03	20914
852.165	20880
852.299	20921
852.434	20887
852.569	20929
852.703	20811
852.838	20895
852.973	21001
853.107	21028
853.242	20800
853.376	20769
853.511	20705
853.645	20678
853.78	20708
853.914	20606
854.048	20609
854.183	20716
854.317	20689
854.451	20899
854.585	20606
854.72	20762
854.854	20712
854.988	20648
855.122	20785
855.256	20476
855.39	20674
855.524	20739
855.658	20731
855.792	20697
855.926	20724
856.06	20674
856.194	20762
856.327	20720
856.461	20632
856.595	20564
856.729	20670
856.862	20811
856.996	20830
857.13	20644
857.263	20838
857.397	20872
857.53	20682
857.664	20807
857.797	20796
857.931	20777
858.064	20712
858.197	20838
858.331	20674
858.464	20765
858.597	20617
858.731	20587
858.864	20590
858.997	20511
859.13	20735
859.263	20629
859.396	20826
859.529	20670
859.662	20659
859.795	20598
859.928	20670
860.061	20807
860.194	20872
860.327	20659
860.46	20644
860.592	20754
860.725	20811
860.858	20727
860.99	20682
861.123	20431
861.256	20682
861.388	20716
861.521	21321
861.653	20602
861.786	20579
861.918	20385
862.05	20579
862.183	20564
862.315	20712
862.447	20663
862.58	20705
862.712	20408
862.844	20541
862.976	20545
863.108	20442
863.24	20876
863.372	20313
863.504	20313
863.636	20370
863.768	20412
863.9	20434
864.032	20324
864.164	20400
864.296	20427
864.428	20495
864.559	20507
864.691	20526
864.823	20446
864.954	20381
865.086	20336
865.217	20355
865.349	20275
865.48	20256
865.612	20290
865.743	20290
865.875	20408
866.006	20206
866.137	20229
866.269	20290
866.4	20218
866.531	20263
866.662	20145
866.793	20271
866.924	20210
867.055	20385
867.186	20358
867.317	20180
867.448	20115
867.579	20218
867.71	20107
867.841	20244
867.972	20328
868.103	20313
868.233	20339
868.364	20199
868.495	20298
868.625	20511
868.756	20503
868.886	20518
869.017	20518
869.147	20579
869.278	20659
869.408	20419
869.539	20480
869.669	20693
869.799	20461
869.929	20571
870.06	20602
870.19	20739
870.32	20674
870.45	20826
870.58	20796
870.71	20998
870.84	20895
870.97	20880
871.1	20880
871.23	21066
871.36	21146
871.489	20967
871.619	21089
871.749	21138
871.879	21230
872.008	21294
872.138	21043
872.267	21036
872.397	20952
872.526	20941
872.656	20872
872.785	20883
872.915	21081
873.044	21294
873.173	21135
873.303	21104
873.432	21116
873.561	21249
873.69	21104
873.819	21135
873.948	21211
874.077	21161
874.206	21024
874.335	20975
874.464	21180
874.593	21279
874.722	21370
874.851	21374
874.979	21367
875.108	21424
875.237	21245
875.365	21252
875.494	21363
875.623	21488
875.751	21370
875.88	21302
876.008	21481
876.136	21542
876.265	21736
876.393	21720
876.521	21819
876.65	21857
876.778	21857
876.906	21682
877.034	21739
877.162	21759
877.29	21572
877.418	21652
877.546	21732
877.674	21694
877.802	21736
877.93	21610
878.058	21637
878.185	21705
878.313	21591
878.441	21656
878.568	21622
878.696	21736
878.824	21663
878.951	21690
879.079	21842
879.206	21835
879.333	21846
879.461	21690
879.588	21618
879.715	21888
879.842	21934
879.97	21838
880.097	21523
880.224	21515
880.351	21572
880.478	21622
880.605	21428
880.732	21561
880.859	21694
880.986	21466
881.112	21591
881.239	21447
881.366	21351
881.493	21249
881.619	21043
881.746	21135
881.872	21104
881.999	21085
882.125	21135
882.252	21013
882.378	21077
882.505	21325
882.631	21096
882.757	20830
882.883	20941
883.01	20781
883.136	20739
883.262	20720
883.388	20552
883.514	20887
883.64	20754
883.766	20701
883.892	20583
884.018	20659
884.143	20842
884.269	20876
884.395	20522
884.52	20332
884.646	20552
884.772	20347
884.897	20339
885.023	20469
885.148	20663
885.274	20541
885.399	20488
885.524	20438
885.65	20606
885.775	20393
885.9	20431
886.025	20503
886.15	20400
886.275	20389
886.4	20366
886.525	20404
886.65	20385
886.775	20419
886.9	20629
887.025	20636
887.149	20396
887.274	20320
887.399	20218
887.523	20309
887.648	20172
887.773	20122
887.897	20320
888.021	20229
888.146	20168
888.27	20355
888.395	20404
888.519	20294
888.643	20317
888.767	20263
888.891	20145
889.015	20054
889.139	20103
889.263	19970
889.387	20225
889.511	20218
889.635	20218
889.759	20008
889.883	19955
890.006	20043
890.13	20176
890.254	19963
890.377	19947
890.501	19841
890.624	19833
890.748	19875
890.871	19700
890.995	19727
891.118	19571
891.241	19662
891.364	19727
891.488	19799
891.611	19689
891.734	19632
891.857	19643
891.98	19708
892.103	19632
892.226	19689
892.349	19464
892.471	19468
892.594	19575
892.717	19670
892.839	19632
892.962	19567
893.085	19712
893.207	19521
893.33	19438
893.452	19594
893.575	19533
893.697	19457
893.819	19708
893.941	19738
894.064	19727
894.186	19506
894.308	19605
894.43	19670
894.552	19696
894.674	19666
894.796	19499
894.918	19502
895.04	19613
895.161	19670
895.283	19635
895.405	19487
895.526	19624
895.648	19666
895.769	19571
895.891	19559
896.012	19662
896.134	19662
896.255	19525
896.376	19540
896.498	19559
896.619	19620
896.74	19578
896.861	19674
896.982	19803
897.103	20043
897.224	19864
897.345	19788
897.466	19769
897.587	19902
897.708	19849
897.828	19822
897.949	19784
898.07	19689
898.19	19788
898.311	19921
898.431	19738
898.552	19757
898.672	19830
898.792	19909
898.913	19742
899.033	19757
899.153	19616
899.273	19457
899.393	19430
899.513	19616
899.633	19704
899.753	19609
899.873	19506
899.993	19525
900.113	19426
900.232	19658
900.352	19601
900.472	19350
900.591	19339
900.711	19343
900.83	19411
900.95	19499
901.069	19426
901.189	19266
901.308	19103
901.427	18852
901.546	19004
901.665	18958
901.784	18977
901.904	18764
902.023	18696
902.141	18601
902.26	18498
902.379	18601
902.498	18407
902.617	18544
902.735	18536
902.854	18353
902.973	18353
903.091	18133
903.21	18186
903.328	18136
903.446	18201
903.565	18019
903.683	17942
903.801	17923
903.919	18041
904.038	17958
904.156	17653
904.274	17824
904.392	17802
904.51	17703
904.627	17790
904.745	17760
904.863	17805
904.981	17520
905.098	17349
905.216	17391
905.334	17501
905.451	17303
905.569	17353
905.686	17459
905.803	17414
905.921	17140
906.038	17337
906.155	17235
906.272	17060
906.389	17174
906.506	17056
906.623	16961
906.74	17010
906.857	16801
906.974	16801
907.091	16908
907.208	17052
907.324	16919
907.441	16778
907.557	16691
907.674	16656
907.79	16611
907.907	16691
908.023	16645
908.139	16687
908.256	16542
908.372	16466
908.488	16554
908.604	16341
908.72	16394
908.836	16440
908.952	16322
909.068	16367
909.184	16573
909.3	16451
909.415	16413
909.531	16352
909.647	16154
909.762	16017
909.878	15960
909.993	16105
910.108	16086
910.224	15998
910.339	16093
910.454	15960
910.57	15819
910.685	15800
910.8	16116
910.915	15987
911.03	15987
911.145	15694
911.259	15599
911.374	15774
911.489	15679
911.604	15530
911.718	15447
911.833	15431
911.947	15344
912.062	15302
912.176	15401
912.291	15526
912.405	15549
912.519	15694
912.633	15705
912.748	15477
912.862	15310
912.976	15291
913.09	15150
913.204	15203
913.318	15249
913.431	15393
913.545	15313
913.659	15382
913.772	15245
913.886	15157
914	15146
914.113	15222
914.226	15233
914.34	15176
914.453	15017
914.566	15051
914.68	15009
914.793	14994
914.906	14800
915.019	14705
915.132	14602
915.245	14651
915.358	14632
915.47	14720
915.583	14564
915.696	14705
915.809	14842
915.921	14800
916.034	14648
916.146	14526
916.259	14537
916.371	14667
916.483	14590
916.595	14522
916.708	14541
916.82	14530
916.932	14457
917.044	14423
917.156	14461
917.268	14457
917.38	14332
917.491	14358
917.603	14294
917.715	14415
917.826	14480
917.938	14305
918.049	14164
918.161	14332
918.272	14374
918.384	14492
918.495	14343
918.606	14180
918.717	14043
918.828	14123
918.939	14191
919.05	14191
919.161	14130
919.272	13936
919.383	13917
919.494	14126
919.604	14305
919.715	14119
919.826	13993
919.936	14100
920.047	14195
920.157	14088
920.267	14305
920.378	14054
920.488	14027
920.598	14237
920.708	14461
920.818	14286
920.928	14199
921.038	14431
921.148	14336
921.258	14092
921.368	13997
921.477	13852
921.587	13845
921.697	13807
921.806	13807
921.916	13696
922.025	13518
922.134	13529
922.244	13510
922.353	13597
922.462	13464
922.571	13343
922.68	13251
922.789	13156
922.898	13164
923.007	13107
923.116	13171
923.224	13175
923.333	13168
923.442	13046
923.55	12970
923.659	13019
923.767	13069
923.876	12947
923.984	13038
924.092	12848
924.201	12897
924.309	12928
924.417	12943
924.525	12916
924.633	12776
924.741	13670
924.849	12620
924.956	12760
925.064	12627
925.172	12585
925.279	12528
925.387	12547
925.494	12635
925.602	12749
925.709	12544
925.816	12502
925.924	12521
926.031	12559
926.138	12525
926.245	12555
926.352	12532
926.459	12604
926.566	12658
926.673	12490
926.779	12388
926.886	12361
926.993	12224
927.099	12220
927.206	12171
927.312	12178
927.419	12197
927.525	12072
927.631	12175
927.737	12011
927.843	11950
927.95	11904
928.056	11969
928.162	12030
928.267	11992
928.373	12658
928.479	12068
928.585	11832
928.69	11927
928.796	11836
928.901	11840
929.007	11718
929.112	11847
929.218	11828
929.323	11813
929.428	11760
929.533	11821
929.638	11623
929.743	11638
929.848	11752
929.953	11688
930.058	11634
930.163	11490
930.267	11433
930.372	11524
930.477	11364
930.581	11608
930.685	11482
930.79	11334
930.894	11280
930.998	11269
931.103	11448
931.207	11147
931.311	10984
931.415	10900
931.519	10774
931.623	10744
