Data from test_V78500241_2059.txt Node
Date: Fri Mar 25 15:24:11 CST 2022
User: usil
Spectrometer: V785-0024
Trigger mode: 0
Integration Time (sec): 4.000000E-1
Scans to average: 1
Nonlinearity correction enabled: false
Boxcar width: 0
Storing dark spectrum: false
XAxis mode: Wavelengths
Number of Pixels in Spectrum: 1024
>>>>>Begin Spectral Data<<<<<
801.071	27846
801.214	27603
801.356	27405
801.499	27386
801.641	27294
801.783	27211
801.926	27279
802.068	27245
802.211	27081
802.353	27032
802.496	26765
802.638	26716
802.78	26975
802.923	26849
803.065	26621
803.208	26693
803.35	26842
803.492	27028
803.635	27032
803.777	26944
803.919	26899
804.061	27450
804.204	27085
804.346	26933
804.488	26940
804.63	27077
804.773	26940
804.915	27104
805.057	27180
805.199	27024
805.341	27211
805.483	27264
805.626	27096
805.768	27188
805.91	27222
806.052	27389
806.194	27138
806.336	27386
806.478	27222
806.62	27093
806.762	27355
806.904	27450
807.046	27599
807.188	27656
807.33	27705
807.472	27656
807.614	27488
807.756	27526
807.898	27500
808.04	27348
808.182	27481
808.324	27447
808.465	27420
808.607	27701
808.749	27800
808.891	27865
809.033	27747
809.174	27793
809.316	27698
809.458	27728
809.6	27732
809.741	27934
809.883	27892
810.025	28093
810.166	28257
810.308	27945
810.45	27960
810.591	27930
810.733	27854
810.875	27842
811.016	27610
811.158	27720
811.299	27762
811.441	27922
811.582	27884
811.724	27781
811.865	27686
812.007	27686
812.148	27705
812.29	27857
812.431	27930
812.573	28093
812.714	28070
812.855	28223
812.997	28303
813.138	28462
813.279	28386
813.421	28272
813.562	28048
813.703	27937
813.845	28002
813.986	27633
814.127	27492
814.268	27408
814.41	27382
814.551	27530
814.692	27561
814.833	27370
814.974	27408
815.115	27454
815.256	27435
815.397	27351
815.539	27348
815.68	27180
815.821	27161
815.962	27241
816.103	27252
816.244	27112
816.385	27062
816.526	27020
816.666	26891
816.807	26606
816.948	26864
817.089	26963
817.23	26792
817.371	26758
817.512	26735
817.653	26587
817.793	26579
817.934	26701
818.075	26773
818.216	26727
818.356	26648
818.497	26503
818.638	26434
818.778	26564
818.919	26598
819.06	26518
819.2	26621
819.341	26674
819.481	26648
819.622	26834
819.762	27127
819.903	26944
820.043	26979
820.184	26887
820.324	26746
820.465	26876
820.605	26861
820.746	26769
820.886	26792
821.026	26781
821.167	26788
821.307	26921
821.447	26781
821.588	26754
821.728	26568
821.868	26309
822.008	26119
822.149	26161
822.289	26119
822.429	25925
822.569	25902
822.709	25898
822.849	25693
822.99	25750
823.13	25700
823.27	25666
823.41	25472
823.55	25335
823.69	25525
823.83	25499
823.97	25396
824.11	25217
824.25	25316
824.389	25403
824.529	25331
824.669	25320
824.809	25552
824.949	25324
825.089	25411
825.228	25441
825.368	25217
825.508	25194
825.648	25126
825.787	25164
825.927	25266
826.067	25164
826.206	25088
826.346	25316
826.485	25122
826.625	25251
826.765	25369
826.904	25232
827.044	24996
827.183	25000
827.323	24935
827.462	24954
827.601	24981
827.741	24867
827.88	24935
828.02	24856
828.159	24882
828.298	24901
828.437	24962
828.577	24707
828.716	24939
828.855	24783
828.994	24525
829.134	24601
829.273	24726
829.412	24707
829.551	24604
829.69	24585
829.829	24608
829.968	24730
830.107	24620
830.246	24631
830.385	24483
830.524	24540
830.663	24467
830.802	24369
830.941	24270
831.08	24167
831.219	24289
831.357	24251
831.496	24467
831.635	24216
831.774	24106
831.913	24213
832.051	23939
832.19	24022
832.329	24155
832.467	23977
832.606	23927
832.744	23847
832.883	23870
833.022	23893
833.16	23950
833.299	23977
833.437	24057
833.576	24129
833.714	23958
833.852	24129
833.991	23973
834.129	24102
834.267	23958
834.406	23874
834.544	23931
834.682	24064
834.821	23920
834.959	24072
835.097	24034
835.235	23988
835.373	23999
835.511	24003
835.65	23923
835.788	23889
835.926	23741
836.064	23634
836.202	23745
836.34	23809
836.478	23779
836.615	23824
836.753	23836
836.891	23923
837.029	23775
837.167	23798
837.305	23729
837.443	23623
837.58	23760
837.718	23722
837.856	23646
837.993	23634
838.131	23547
838.269	23444
838.406	23577
838.544	23501
838.681	23254
838.819	23322
838.956	23060
839.094	23124
839.231	23143
839.369	23395
839.506	23573
839.643	23368
839.781	23174
839.918	23060
840.055	23109
840.193	23128
840.33	23067
840.467	22991
840.604	23014
840.742	23429
840.879	23006
841.016	22961
841.153	22873
841.29	23166
841.427	22927
841.564	23052
841.701	23060
841.838	22835
841.975	22995
842.112	22915
842.249	22824
842.385	22778
842.522	22953
842.659	22892
842.796	22740
842.933	22805
843.069	22858
843.206	22782
843.343	22919
843.479	22828
843.616	22892
843.752	22561
843.889	22679
844.025	22828
844.162	22554
844.298	22622
844.435	22596
844.571	22554
844.708	22607
844.844	22580
844.98	22691
845.117	22660
845.253	22470
845.389	22447
845.525	22424
845.661	22379
845.798	22219
845.934	22375
846.07	22230
846.206	22432
846.342	22466
846.478	22265
846.614	22082
846.75	22013
846.886	21964
847.022	22109
847.158	22128
847.294	22131
847.429	22131
847.565	22067
847.701	22295
847.837	21808
847.972	21728
848.108	21766
848.244	21854
848.379	21633
848.515	21641
848.65	21641
848.786	21713
848.921	21698
849.057	21766
849.192	21637
849.328	21545
849.463	21705
849.598	21591
849.734	21523
849.869	21488
850.004	21378
850.14	21317
850.275	21351
850.41	21351
850.545	21420
850.68	21336
850.815	21462
850.95	21393
851.085	21618
851.22	21504
851.355	21496
851.49	21416
851.625	21336
851.76	21310
851.895	21302
852.03	21298
852.165	21283
852.299	21389
852.434	21450
852.569	21500
852.703	21408
852.838	21481
852.973	21538
853.107	21492
853.242	21325
853.376	21310
853.511	21123
853.645	21226
853.78	21389
853.914	21275
854.048	21226
854.183	21195
854.317	21264
854.451	21450
854.585	21207
854.72	21104
854.854	21203
854.988	21074
855.122	21313
855.256	21142
855.39	21192
855.524	21237
855.658	21268
855.792	21184
855.926	21214
856.06	21348
856.194	21298
856.327	21218
856.461	21203
856.595	21264
856.729	21184
856.862	21340
856.996	21233
857.13	21272
857.263	21317
857.397	21302
857.53	21154
857.664	21256
857.797	21275
857.931	21370
858.064	21214
858.197	21336
858.331	21298
858.464	21135
858.597	21081
858.731	21184
858.864	21192
858.997	21192
859.13	21096
859.263	21321
859.396	21386
859.529	21180
859.662	21138
859.795	21138
859.928	21264
860.061	21294
860.194	21504
860.327	21184
860.46	21203
860.592	21302
860.725	21378
860.858	21329
860.99	21157
861.123	21096
861.256	21173
861.388	21195
861.521	21804
861.653	21119
861.786	20979
861.918	21039
862.05	21154
862.183	21131
862.315	21135
862.447	21222
862.58	21096
862.712	20994
862.844	20807
862.976	21077
863.108	21001
863.24	21313
863.372	20853
863.504	20963
863.636	20883
863.768	20952
863.9	20849
864.032	20868
864.164	20891
864.296	20948
864.428	21066
864.559	20906
864.691	20986
864.823	21093
864.954	20925
865.086	20895
865.217	20731
865.349	20697
865.48	20648
865.612	20823
865.743	20963
865.875	20781
866.006	20792
866.137	20868
866.269	20883
866.4	20902
866.531	20773
866.662	20746
866.793	20716
866.924	20800
867.055	20754
867.186	20743
867.317	20693
867.448	20663
867.579	20659
867.71	20636
867.841	20686
867.972	20697
868.103	20796
868.233	20800
868.364	20720
868.495	20815
868.625	20990
868.756	21005
868.886	21020
869.017	21089
869.147	21047
869.278	21116
869.408	20967
869.539	20990
869.669	21043
869.799	20956
869.929	21161
870.06	21245
870.19	21245
870.32	21298
870.45	21298
870.58	21336
870.71	21488
870.84	21564
870.97	21321
871.1	21393
871.23	21492
871.36	21545
871.489	21450
871.619	21466
871.749	21523
871.879	21542
872.008	21762
872.138	21583
872.267	21523
872.397	21408
872.526	21473
872.656	21454
872.785	21428
872.915	21595
873.044	21694
873.173	21587
873.303	21648
873.432	21660
873.561	21724
873.69	21705
873.819	21549
873.948	21743
874.077	21682
874.206	21561
874.335	21641
874.464	21724
874.593	21922
874.722	21899
874.851	21789
874.979	21907
875.108	21895
875.237	21888
875.365	21629
875.494	21800
875.623	21968
875.751	21884
875.88	21884
876.008	21819
876.136	22116
876.265	22185
876.393	22329
876.521	22360
876.65	22310
876.778	22261
876.906	22105
877.034	22116
877.162	22090
877.29	22219
877.418	22166
877.546	22143
877.674	22097
877.802	22097
877.93	22147
878.058	22154
878.185	22112
878.313	22162
878.441	22044
878.568	22078
878.696	22135
878.824	22249
878.951	22158
879.079	22428
879.206	22440
879.333	22344
879.461	22272
879.588	22268
879.715	22325
879.842	22382
879.97	22188
880.097	22025
880.224	22029
880.351	22109
880.478	21922
880.605	22067
880.732	22086
880.859	22219
880.986	21937
881.112	21888
881.239	21937
881.366	21880
881.493	21606
881.619	21545
881.746	21587
881.872	21481
881.999	21507
882.125	21500
882.252	21542
882.378	21534
882.505	21667
882.631	21374
882.757	21378
882.883	21313
883.01	21245
883.136	21195
883.262	21222
883.388	21142
883.514	21252
883.64	21279
883.766	21249
883.892	21055
884.018	21036
884.143	21184
884.269	21306
884.395	20986
884.52	21001
884.646	21017
884.772	20857
884.897	20811
885.023	20998
885.148	21032
885.274	21089
885.399	20971
885.524	20872
885.65	20910
885.775	20857
885.9	20842
886.025	21055
886.15	21028
886.275	20941
886.4	20956
886.525	20849
886.65	20823
886.775	20868
886.9	21047
887.025	21275
887.149	20918
887.274	20644
887.399	20765
887.523	20773
887.648	20587
887.773	20507
887.897	20727
888.021	20693
888.146	20648
888.27	20754
888.395	20632
888.519	20727
888.643	20667
888.767	20769
888.891	20609
889.015	20457
889.139	20568
889.263	20568
889.387	20613
889.511	20727
889.635	20621
889.759	20461
889.883	20503
890.006	20484
890.13	20552
890.254	20347
890.377	20412
890.501	20202
890.624	20130
890.748	20199
890.871	20225
890.995	19997
891.118	20012
891.241	20005
891.364	20031
891.488	20381
891.611	20111
891.734	20005
891.857	20039
891.98	20096
892.103	20161
892.226	20100
892.349	19902
892.471	19811
892.594	20058
892.717	20062
892.839	20050
892.962	19913
893.085	19944
893.207	19989
893.33	19917
893.452	19951
893.575	19989
893.697	19955
893.819	20039
893.941	20233
894.064	20046
894.186	19868
894.308	19887
894.43	20050
894.552	20065
894.674	20130
894.796	19898
894.918	19944
895.04	20035
895.161	20035
895.283	19944
895.405	19951
895.526	20027
895.648	19860
895.769	20031
895.891	19890
896.012	20016
896.134	20027
896.255	19913
896.376	19875
896.498	20012
896.619	19974
896.74	19925
896.861	20012
896.982	20263
897.103	20389
897.224	20221
897.345	20221
897.466	20088
897.587	20134
897.708	20358
897.828	20172
897.949	20092
898.07	20020
898.19	19989
898.311	20195
898.431	20122
898.552	20199
898.672	20259
898.792	20229
898.913	20252
899.033	19944
899.153	19913
899.273	19890
899.393	19951
899.513	19955
899.633	19833
899.753	20035
899.873	19849
899.993	20001
900.113	19864
900.232	19772
900.352	19818
900.472	19731
900.591	19693
900.711	19814
900.83	19681
900.95	19841
901.069	19772
901.189	19738
901.308	19354
901.427	19308
901.546	19278
901.665	19236
901.784	19217
901.904	19137
902.023	19080
902.141	18848
902.26	18932
902.379	18928
902.498	18791
902.617	18787
902.735	18890
902.854	18734
902.973	18772
903.091	18471
903.21	18574
903.328	18532
903.446	18445
903.565	18323
903.683	18273
903.801	18178
903.919	18311
904.038	18315
904.156	18041
904.274	18159
904.392	18083
904.51	18083
904.627	18038
904.745	18144
904.863	18022
904.981	17828
905.098	17809
905.216	17775
905.334	17729
905.451	17790
905.569	17646
905.686	17760
905.803	17733
905.921	17608
906.038	17646
906.155	17509
906.272	17372
906.389	17471
906.506	17208
906.623	17299
906.74	17220
906.857	17136
906.974	17280
907.091	17425
907.208	17410
907.324	17269
907.441	17162
907.557	17083
907.674	17041
907.79	16942
907.907	16984
908.023	16976
908.139	17064
908.256	17056
908.372	16961
908.488	16892
908.604	16790
908.72	16710
908.836	16694
908.952	16675
909.068	16637
909.184	16843
909.3	16691
909.415	16683
909.531	16710
909.647	16466
909.762	16474
909.878	16367
909.993	16428
910.108	16363
910.224	16417
910.339	16443
910.454	16276
910.57	16097
910.685	16128
910.8	16451
910.915	16363
911.03	16249
911.145	16013
911.259	16025
911.374	16128
911.489	15945
911.604	15854
911.718	15778
911.833	15793
911.947	15667
912.062	15599
912.176	15648
912.291	15736
912.405	15656
912.519	15865
912.633	16048
912.748	15797
912.862	15709
912.976	15641
913.09	15439
913.204	15549
913.318	15572
913.431	15705
913.545	15614
913.659	15709
913.772	15549
913.886	15393
914	15298
914.113	15458
914.226	15492
914.34	15351
914.453	15294
914.566	15386
914.68	15313
914.793	15165
914.906	15093
915.019	15085
915.132	14918
915.245	14857
915.358	15097
915.47	15024
915.583	14956
915.696	14975
915.809	15066
915.921	15047
916.034	14914
916.146	14861
916.259	14872
916.371	14937
916.483	14883
916.595	14712
916.708	14880
916.82	14857
916.932	14777
917.044	14758
917.156	14720
917.268	14556
917.38	14667
917.491	14651
917.603	14697
917.715	14701
917.826	14792
917.938	14541
918.049	14526
918.161	14594
918.272	14686
918.384	14632
918.495	14583
918.606	14450
918.717	14389
918.828	14290
918.939	14511
919.05	14412
919.161	14362
919.272	14168
919.383	14328
919.494	14366
919.604	14454
919.715	14415
919.826	14339
919.936	14305
920.047	14434
920.157	14450
920.267	14617
920.378	14324
920.488	14454
920.598	14579
920.708	14632
920.818	14571
920.928	14461
921.038	14746
921.148	14682
921.258	14431
921.368	14240
921.477	14084
921.587	14134
921.697	13944
921.806	14077
921.916	13917
922.025	13845
922.134	13689
922.244	13628
922.353	13788
922.462	13609
922.571	13472
922.68	13476
922.789	13316
922.898	13396
923.007	13441
923.116	13415
923.224	13407
923.333	13339
923.442	13285
923.55	13308
923.659	13304
923.767	13285
923.876	13141
923.984	13255
924.092	13072
924.201	13187
924.309	13110
924.417	13156
924.525	13069
924.633	13065
924.741	13860
924.849	12924
924.956	13019
925.064	12939
925.172	12856
925.279	12829
925.387	12821
925.494	12833
925.602	12924
925.709	12913
925.816	12772
925.924	12711
926.031	12878
926.138	12726
926.245	12856
926.352	12665
926.459	12806
926.566	12867
926.673	12703
926.779	12631
926.886	12608
926.993	12517
927.099	12395
927.206	12384
927.312	12350
927.419	12418
927.525	12448
927.631	12456
927.737	12273
927.843	12254
927.95	12110
928.056	12205
928.162	12186
928.267	12311
928.373	12817
928.479	12243
928.585	12045
928.69	12197
928.796	12209
928.901	12003
929.007	11977
929.112	12117
929.218	12064
929.323	11920
929.428	11980
929.533	12045
929.638	11916
929.743	11916
929.848	12038
929.953	11931
930.058	11748
930.163	11520
930.267	11642
930.372	11779
930.477	11638
930.581	11828
930.685	11642
930.79	11596
930.894	11615
930.998	11543
931.103	11573
931.207	11318
931.311	11246
931.415	11109
931.519	10938
931.623	10862
