Data from test_V78500241_1911.txt Node
Date: Fri Mar 25 15:23:09 CST 2022
User: usil
Spectrometer: V785-0024
Trigger mode: 0
Integration Time (sec): 4.000000E-1
Scans to average: 1
Nonlinearity correction enabled: false
Boxcar width: 0
Storing dark spectrum: false
XAxis mode: Wavelengths
Number of Pixels in Spectrum: 1024
>>>>>Begin Spectral Data<<<<<
801.071	27496
801.214	27526
801.356	27184
801.499	27150
801.641	27142
801.783	27017
801.926	26990
802.068	27028
802.211	26982
802.353	26914
802.496	26792
802.638	26648
802.78	26769
802.923	26575
803.065	26606
803.208	26476
803.35	26758
803.492	26750
803.635	26979
803.777	26765
803.919	26880
804.061	27340
804.204	26933
804.346	26800
804.488	26769
804.63	26857
804.773	26857
804.915	26940
805.057	27055
805.199	26918
805.341	27013
805.483	27020
805.626	26940
805.768	26902
805.91	27074
806.052	27055
806.194	26887
806.336	27112
806.478	27070
806.62	26948
806.762	27047
806.904	27241
807.046	27553
807.188	27466
807.33	27424
807.472	27530
807.614	27393
807.756	27439
807.898	27279
808.04	27336
808.182	27237
808.324	27184
808.465	27287
808.607	27595
808.749	27610
808.891	27713
809.033	27705
809.174	27606
809.316	27603
809.458	27591
809.6	27580
809.741	27717
809.883	27705
810.025	27804
810.166	27800
810.308	27888
810.45	27827
810.591	27808
810.733	27561
810.875	27538
811.016	27306
811.158	27374
811.299	27511
811.441	27629
811.582	27766
811.724	27511
811.865	27488
812.007	27633
812.148	27504
812.29	27526
812.431	27709
812.573	27789
812.714	28044
812.855	28143
812.997	28169
813.138	28306
813.279	28325
813.421	27991
813.562	27964
813.703	27888
813.845	27762
813.986	27637
814.127	27397
814.268	27378
814.41	27306
814.551	27142
814.692	27416
814.833	27165
814.974	27218
815.115	27260
815.256	27199
815.397	27154
815.539	27089
815.68	27005
815.821	27165
815.962	27028
816.103	27135
816.244	26960
816.385	26800
816.526	26792
816.666	26609
816.807	26355
816.948	26522
817.089	26629
817.23	26632
817.371	26537
817.512	26522
817.653	26564
817.793	26549
817.934	26492
818.075	26533
818.216	26579
818.356	26545
818.497	26473
818.638	26374
818.778	26336
818.919	26290
819.06	26412
819.2	26385
819.341	26571
819.481	26530
819.622	26693
819.762	26792
819.903	26815
820.043	26682
820.184	26640
820.324	26613
820.465	26670
820.605	26579
820.746	26568
820.886	26476
821.026	26499
821.167	26621
821.307	26678
821.447	26507
821.588	26362
821.728	26233
821.868	26225
822.008	26024
822.149	26020
822.289	25970
822.429	25803
822.569	25731
822.709	25757
822.849	25529
822.99	25491
823.13	25525
823.27	25464
823.41	25263
823.55	25259
823.69	25339
823.83	25373
823.97	25251
824.11	25076
824.25	25118
824.389	25206
824.529	25145
824.669	25221
824.809	25426
824.949	25312
825.089	25285
825.228	25255
825.368	24894
825.508	24985
825.648	24996
825.787	25004
825.927	25202
826.067	25103
826.206	24935
826.346	25133
826.485	25012
826.625	24977
826.765	25202
826.904	24981
827.044	24848
827.183	24795
827.323	24719
827.462	24791
827.601	24707
827.741	24745
827.88	24726
828.02	24741
828.159	24711
828.298	24684
828.437	24810
828.577	24696
828.716	24753
828.855	24578
828.994	24486
829.134	24483
829.273	24483
829.412	24479
829.551	24418
829.69	24311
829.829	24536
829.968	24544
830.107	24551
830.246	24365
830.385	24334
830.524	24327
830.663	24281
830.802	24148
830.941	23996
831.08	24121
831.219	24171
831.357	24209
831.496	24285
831.635	24064
831.774	24018
831.913	23901
832.051	23893
832.19	23794
832.329	23847
832.467	23961
832.606	23802
832.744	23714
832.883	23710
833.022	23634
833.16	23691
833.299	23745
833.437	23672
833.576	23741
833.714	23843
833.852	23684
833.991	23893
834.129	23802
834.267	23836
834.406	23843
834.544	23813
834.682	23760
834.821	23745
834.959	23870
835.097	23703
835.235	23775
835.373	23935
835.511	23775
835.65	23726
835.788	23596
835.926	23509
836.064	23543
836.202	23520
836.34	23737
836.478	23809
836.615	23592
836.753	23589
836.891	23695
837.029	23619
837.167	23699
837.305	23611
837.443	23604
837.58	23471
837.718	23627
837.856	23524
837.993	23433
838.131	23520
838.269	23448
838.406	23478
838.544	23318
838.681	23208
838.819	23189
838.956	23006
839.094	22923
839.231	22923
839.369	23128
839.506	23231
839.643	23113
839.781	22999
839.918	22862
840.055	23079
840.193	22930
840.33	22923
840.467	22892
840.604	23022
840.742	23227
840.879	22858
841.016	22854
841.153	22790
841.29	23056
841.427	22721
841.564	22957
841.701	22946
841.838	22915
841.975	22892
842.112	22763
842.249	22694
842.385	22641
842.522	22881
842.659	22740
842.796	22615
842.933	22649
843.069	22698
843.206	22668
843.343	22664
843.479	22660
843.616	22793
843.752	22489
843.889	22455
844.025	22531
844.162	22489
844.298	22561
844.435	22333
844.571	22367
844.708	22485
844.844	22611
844.98	22535
845.117	22592
845.253	22523
845.389	22287
845.525	22348
845.661	22341
845.798	22120
845.934	22219
846.07	22124
846.206	22185
846.342	22246
846.478	22226
846.614	22013
846.75	21762
846.886	21838
847.022	22010
847.158	21903
847.294	21800
847.429	21869
847.565	21751
847.701	22112
847.837	21587
847.972	21583
848.108	21656
848.244	21736
848.379	21606
848.515	21473
848.65	21458
848.786	21466
848.921	21515
849.057	21652
849.192	21591
849.328	21526
849.463	21511
849.598	21359
849.734	21344
849.869	21348
850.004	21332
850.14	21241
850.275	21283
850.41	21154
850.545	21165
850.68	21165
850.815	21131
850.95	21317
851.085	21378
851.22	21313
851.355	21146
851.49	21070
851.625	21188
851.76	21192
851.895	21123
852.03	21146
852.165	21256
852.299	21302
852.434	21416
852.569	21401
852.703	21150
852.838	21325
852.973	21359
853.107	21313
853.242	21306
853.376	21070
853.511	21028
853.645	21085
853.78	21131
853.914	21203
854.048	21005
854.183	21032
854.317	21108
854.451	21218
854.585	21017
854.72	21074
854.854	21180
854.988	20887
855.122	21119
855.256	21020
855.39	21093
855.524	21233
855.658	21123
855.792	21039
855.926	21043
856.06	21154
856.194	20990
856.327	20914
856.461	21173
856.595	20990
856.729	21154
856.862	21096
856.996	21142
857.13	21119
857.263	21135
857.397	21252
857.53	20948
857.664	21104
857.797	21058
857.931	21146
858.064	21043
858.197	21256
858.331	21066
858.464	20929
858.597	21085
858.731	21066
858.864	21119
858.997	21127
859.13	21100
859.263	21081
859.396	21241
859.529	20986
859.662	20937
859.795	21020
859.928	21077
860.061	21226
860.194	21329
860.327	21062
860.46	21226
860.592	21127
860.725	21180
860.858	21279
860.99	21039
861.123	20948
861.256	21036
861.388	20941
861.521	21732
861.653	20952
861.786	20876
861.918	20857
862.05	21028
862.183	20986
862.315	21070
862.447	21043
862.58	20883
862.712	20781
862.844	20807
862.976	20944
863.108	20826
863.24	21123
863.372	20731
863.504	20746
863.636	20701
863.768	20891
863.9	20739
864.032	20678
864.164	20781
864.296	20834
864.428	21013
864.559	20921
864.691	20807
864.823	20861
864.954	20769
865.086	20758
865.217	20712
865.349	20594
865.48	20575
865.612	20773
865.743	20701
865.875	20659
866.006	20617
866.137	20651
866.269	20629
866.4	20792
866.531	20549
866.662	20644
866.793	20655
866.924	20693
867.055	20769
867.186	20678
867.317	20609
867.448	20598
867.579	20598
867.71	20419
867.841	20537
867.972	20606
868.103	20617
868.233	20492
868.364	20613
868.495	20807
868.625	20868
868.756	20975
868.886	20826
869.017	20720
869.147	20967
869.278	20960
869.408	20891
869.539	20921
869.669	20906
869.799	20815
869.929	20998
870.06	20990
870.19	21218
870.32	21058
870.45	21275
870.58	21283
870.71	21492
870.84	21302
870.97	21272
871.1	21203
871.23	21447
871.36	21393
871.489	21306
871.619	21382
871.749	21439
871.879	21454
872.008	21542
872.138	21363
872.267	21515
872.397	21348
872.526	21222
872.656	21340
872.785	21279
872.915	21462
873.044	21504
873.173	21561
873.303	21481
873.432	21523
873.561	21564
873.69	21591
873.819	21412
873.948	21538
874.077	21549
874.206	21454
874.335	21477
874.464	21599
874.593	21606
874.722	21717
874.851	21739
874.979	21724
875.108	21701
875.237	21603
875.365	21576
875.494	21679
875.623	21755
875.751	21629
875.88	21701
876.008	21911
876.136	21915
876.265	22059
876.393	22169
876.521	22192
876.65	22204
876.778	22048
876.906	22017
877.034	22093
877.162	22021
877.29	21964
877.418	22021
877.546	22143
877.674	22128
877.802	22036
877.93	21937
878.058	22078
878.185	21899
878.313	22051
878.441	22029
878.568	21846
878.696	21865
878.824	22150
878.951	22166
879.079	22230
879.206	22306
879.333	22207
879.461	22029
879.588	22101
879.715	22188
879.842	22348
879.97	22135
880.097	21869
880.224	21934
880.351	21888
880.478	21945
880.605	21759
880.732	21861
880.859	22105
880.986	21857
881.112	21918
881.239	21842
881.366	21625
881.493	21481
881.619	21549
881.746	21454
881.872	21454
881.999	21439
882.125	21321
882.252	21424
882.378	21485
882.505	21557
882.631	21214
882.757	21264
882.883	21188
883.01	21214
883.136	21020
883.262	21058
883.388	20952
883.514	21226
883.64	21039
883.766	21165
883.892	20998
884.018	21093
884.143	21157
884.269	21272
884.395	20819
884.52	20929
884.646	20853
884.772	20754
884.897	20758
885.023	20857
885.148	21001
885.274	20990
885.399	20906
885.524	20804
885.65	20792
885.775	20781
885.9	20769
886.025	20883
886.15	21043
886.275	20705
886.4	20697
886.525	20750
886.65	20716
886.775	20606
886.9	20815
887.025	20925
887.149	20777
887.274	20621
887.399	20602
887.523	20598
887.648	20594
887.773	20583
887.897	20575
888.021	20682
888.146	20492
888.27	20693
888.395	20682
888.519	20613
888.643	20556
888.767	20632
888.891	20533
889.015	20446
889.139	20415
889.263	20248
889.387	20495
889.511	20636
889.635	20480
889.759	20419
889.883	20393
890.006	20332
890.13	20355
890.254	20252
890.377	20278
890.501	20100
890.624	20126
890.748	20233
890.871	20062
890.995	19986
891.118	20046
891.241	19925
891.364	19875
891.488	20069
891.611	20043
891.734	19970
891.857	20065
891.98	19978
892.103	20035
892.226	20001
892.349	19826
892.471	19750
892.594	19837
892.717	19928
892.839	19913
892.962	19868
893.085	20058
893.207	19822
893.33	19727
893.452	19803
893.575	19921
893.697	19761
893.819	20100
893.941	20005
894.064	19970
894.186	19746
894.308	19765
894.43	19921
894.552	19944
894.674	19917
894.796	19791
894.918	19898
895.04	19776
895.161	19902
895.283	20027
895.405	19830
895.526	19830
895.648	19837
895.769	19841
895.891	19837
896.012	19875
896.134	19906
896.255	19822
896.376	19822
896.498	19902
896.619	19898
896.74	19887
896.861	19841
896.982	20126
897.103	20237
897.224	20100
897.345	20111
897.466	20046
897.587	20149
897.708	20103
897.828	20092
897.949	19894
898.07	19932
898.19	20008
898.311	20012
898.431	20008
898.552	20043
898.672	20164
898.792	20058
898.913	20031
899.033	19795
899.153	19860
899.273	19738
899.393	19856
899.513	19986
899.633	19860
899.753	19856
899.873	19784
899.993	19936
900.113	19674
900.232	19807
900.352	19757
900.472	19655
900.591	19552
900.711	19559
900.83	19620
900.95	19795
901.069	19670
901.189	19460
901.308	19308
901.427	19133
901.546	19160
901.665	19156
901.784	19156
901.904	19042
902.023	18966
902.141	18707
902.26	18753
902.379	18791
902.498	18779
902.617	18791
902.735	18776
902.854	18654
902.973	18604
903.091	18338
903.21	18304
903.328	18376
903.446	18289
903.565	18174
903.683	18319
903.801	18030
903.919	18152
904.038	18133
904.156	17920
904.274	18038
904.392	17946
904.51	17931
904.627	17889
904.745	17992
904.863	18106
904.981	17707
905.098	17589
905.216	17707
905.334	17649
905.451	17707
905.569	17581
905.686	17726
905.803	17493
905.921	17474
906.038	17562
906.155	17372
906.272	17406
906.389	17368
906.506	17174
906.623	17143
906.74	17105
906.857	17033
906.974	17094
907.091	17140
907.208	17227
907.324	17189
907.441	17113
907.557	16793
907.674	16801
907.79	16797
907.907	16843
908.023	16881
908.139	16923
908.256	16755
908.372	16790
908.488	16771
908.604	16653
908.72	16672
908.836	16702
908.952	16516
909.068	16641
909.184	16740
909.3	16577
909.415	16664
909.531	16630
909.647	16428
909.762	16299
909.878	16276
909.993	16333
910.108	16261
910.224	16325
910.339	16284
910.454	16211
910.57	16101
910.685	16059
910.8	16394
910.915	16238
911.03	16097
911.145	15960
911.259	15953
911.374	15907
911.489	15827
911.604	15850
911.718	15648
911.833	15770
911.947	15564
912.062	15504
912.176	15622
912.291	15652
912.405	15652
912.519	15873
912.633	15899
912.748	15648
912.862	15660
912.976	15595
913.09	15397
913.204	15485
913.318	15412
913.431	15553
913.545	15511
913.659	15667
913.772	15447
913.886	15310
914	15272
914.113	15359
914.226	15439
914.34	15386
914.453	15062
914.566	15275
914.68	15176
914.793	15184
914.906	14948
915.019	15009
915.132	14883
915.245	14800
915.358	14891
915.47	14929
915.583	14849
915.696	14986
915.809	14986
915.921	15017
916.034	14895
916.146	14765
916.259	14724
916.371	14792
916.483	14880
916.595	14758
916.708	14762
916.82	14727
916.932	14674
917.044	14697
917.156	14697
917.268	14571
917.38	14590
917.491	14629
917.603	14629
917.715	14545
917.826	14644
917.938	14457
918.049	14442
918.161	14476
918.272	14663
918.384	14552
918.495	14473
918.606	14351
918.717	14271
918.828	14351
918.939	14275
919.05	14275
919.161	14252
919.272	14073
919.383	14206
919.494	14408
919.604	14495
919.715	14317
919.826	14206
919.936	14305
920.047	14343
920.157	14370
920.267	14347
920.378	14275
920.488	14240
920.598	14423
920.708	14549
920.818	14412
920.928	14377
921.038	14705
921.148	14587
921.258	14313
921.368	14153
921.477	14073
921.587	14084
921.697	13940
921.806	13989
921.916	13852
922.025	13788
922.134	13727
922.244	13556
922.353	13643
922.462	13502
922.571	13441
922.68	13362
922.789	13282
922.898	13335
923.007	13381
923.116	13327
923.224	13369
923.333	13232
923.442	13129
923.55	13149
923.659	13164
923.767	13145
923.876	12985
923.984	13190
924.092	13015
924.201	13072
924.309	13110
924.417	13061
924.525	13053
924.633	13038
924.741	13944
924.849	12825
924.956	12913
925.064	12738
925.172	12677
925.279	12715
925.387	12688
925.494	12760
925.602	12943
925.709	12703
925.816	12608
925.924	12734
926.031	12768
926.138	12715
926.245	12768
926.352	12616
926.459	12700
926.566	12779
926.673	12620
926.779	12467
926.886	12498
926.993	12308
927.099	12319
927.206	12273
927.312	12296
927.419	12353
927.525	12311
927.631	12308
927.737	12243
927.843	12148
927.95	12136
928.056	12163
928.162	12117
928.267	12163
928.373	12753
928.479	12243
928.585	11882
928.69	12076
928.796	12167
928.901	12019
929.007	11870
929.112	11980
929.218	12045
929.323	11946
929.428	11897
929.533	12015
929.638	11760
929.743	11855
929.848	11885
929.953	11798
930.058	11726
930.163	11577
930.267	11570
930.372	11722
930.477	11505
930.581	11805
930.685	11657
930.79	11467
930.894	11509
930.998	11395
931.103	11566
931.207	11223
931.311	11178
931.415	11064
931.519	10877
931.623	10839
