Data from test_V78500241_2662.txt Node
Date: Fri Mar 25 15:28:23 CST 2022
User: usil
Spectrometer: V785-0024
Trigger mode: 0
Integration Time (sec): 4.000000E-1
Scans to average: 1
Nonlinearity correction enabled: false
Boxcar width: 0
Storing dark spectrum: false
XAxis mode: Wavelengths
Number of Pixels in Spectrum: 1024
>>>>>Begin Spectral Data<<<<<
801.071	26994
801.214	26975
801.356	26651
801.499	26571
801.641	26492
801.783	26552
801.926	26495
802.068	26518
802.211	26336
802.353	26400
802.496	26187
802.638	26130
802.78	26176
802.923	26077
803.065	25966
803.208	26050
803.35	26077
803.492	26252
803.635	26317
803.777	26164
803.919	26271
804.061	26659
804.204	26408
804.346	26191
804.488	26050
804.63	26202
804.773	26039
804.915	26282
805.057	26358
805.199	26206
805.341	26240
805.483	26309
805.626	26389
805.768	26366
805.91	26294
806.052	26381
806.194	26294
806.336	26511
806.478	26343
806.62	26328
806.762	26522
806.904	26583
807.046	26834
807.188	26849
807.33	26720
807.472	26861
807.614	26765
807.756	26739
807.898	26552
808.04	26541
808.182	26602
808.324	26659
808.465	26716
808.607	26735
808.749	26933
808.891	26910
809.033	27119
809.174	26929
809.316	26845
809.458	27013
809.6	27005
809.741	26990
809.883	26940
810.025	27283
810.166	27230
810.308	27192
810.45	27138
810.591	27081
810.733	26914
810.875	26857
811.016	26807
811.158	26807
811.299	27005
811.441	27039
811.582	27039
811.724	27013
811.865	26826
812.007	26891
812.148	26811
812.29	26883
812.431	27043
812.573	27116
812.714	27283
812.855	27439
812.997	27549
813.138	27576
813.279	27507
813.421	27401
813.562	27245
813.703	27275
813.845	27081
813.986	26781
814.127	26716
814.268	26568
814.41	26663
814.551	26602
814.692	26682
814.833	26533
814.974	26530
815.115	26598
815.256	26484
815.397	26305
815.539	26621
815.68	26324
815.821	26142
815.962	26374
816.103	26248
816.244	26248
816.385	26134
816.526	26043
816.666	25997
816.807	25761
816.948	25833
817.089	25921
817.23	25883
817.371	25746
817.512	25746
817.653	25849
817.793	25860
817.934	25936
818.075	25693
818.216	25921
818.356	25769
818.497	25616
818.638	25426
818.778	25605
818.919	25552
819.06	25757
819.2	25651
819.341	25761
819.481	25837
819.622	25921
819.762	26092
819.903	26126
820.043	25902
820.184	25917
820.324	25966
820.465	26016
820.605	25883
820.746	25883
820.886	25727
821.026	25788
821.167	25887
821.307	25951
821.447	25788
821.588	25750
821.728	25681
821.868	25453
822.008	25297
822.149	25202
822.289	25225
822.429	25053
822.569	24939
822.709	24939
822.849	24795
822.99	24772
823.13	24745
823.27	24768
823.41	24707
823.55	24464
823.69	24646
823.83	24658
823.97	24536
824.11	24517
824.25	24365
824.389	24418
824.529	24536
824.669	24353
824.809	24547
824.949	24536
825.089	24627
825.228	24353
825.368	24232
825.508	24350
825.648	24315
825.787	24361
825.927	24338
826.067	24220
826.206	24388
826.346	24213
826.485	24270
826.625	24437
826.765	24334
826.904	24251
827.044	24171
827.183	23942
827.323	23996
827.462	24057
827.601	24045
827.741	23958
827.88	24007
828.02	23920
828.159	23999
828.298	24018
828.437	23999
828.577	23946
828.716	24079
828.855	23927
828.994	23817
829.134	23668
829.273	23722
829.412	23729
829.551	23653
829.69	23737
829.829	23676
829.968	23775
830.107	23649
830.246	23672
830.385	23691
830.524	23570
830.663	23455
830.802	23349
830.941	23284
831.08	23364
831.219	23322
831.357	23414
831.496	23520
831.635	23315
831.774	23147
831.913	23105
832.051	23037
832.19	23090
832.329	23064
832.467	23033
832.606	22835
832.744	22930
832.883	22949
833.022	22972
833.16	22908
833.299	23071
833.437	22957
833.576	22942
833.714	23136
833.852	23086
833.991	23029
834.129	23109
834.267	23010
834.406	23170
834.544	23117
834.682	23086
834.821	22968
834.959	23242
835.097	22995
835.235	23018
835.373	23044
835.511	22980
835.65	23029
835.788	22957
835.926	22729
836.064	22641
836.202	22752
836.34	22889
836.478	22987
836.615	22915
836.753	22942
836.891	22984
837.029	22892
837.167	22820
837.305	22782
837.443	22797
837.58	22744
837.718	22782
837.856	22797
837.993	22679
838.131	22672
838.269	22664
838.406	22740
838.544	22618
838.681	22344
838.819	22447
838.956	22169
839.094	22268
839.231	22238
839.369	22417
839.506	22649
839.643	22402
839.781	22318
839.918	22158
840.055	22265
840.193	22093
840.33	22048
840.467	22177
840.604	22284
840.742	22413
840.879	22055
841.016	22010
841.153	22109
841.29	22287
841.427	22093
841.564	22147
841.701	22154
841.838	22078
841.975	21983
842.112	22063
842.249	22029
842.385	22070
842.522	22253
842.659	22013
842.796	21937
842.933	21975
843.069	21850
843.206	21823
843.343	22059
843.479	21911
843.616	21865
843.752	21732
843.889	21694
844.025	21934
844.162	21713
844.298	21739
844.435	21785
844.571	21739
844.708	21667
844.844	21838
844.98	21743
845.117	21705
845.253	21561
845.389	21473
845.525	21637
845.661	21545
845.798	21408
845.934	21386
846.07	21412
846.206	21454
846.342	21530
846.478	21401
846.614	21230
846.75	21123
846.886	21154
847.022	21275
847.158	21192
847.294	21291
847.429	21233
847.565	21192
847.701	21306
847.837	20960
847.972	20823
848.108	20963
848.244	20971
848.379	20788
848.515	20682
848.65	20689
848.786	20727
848.921	20876
849.057	20941
849.192	20857
849.328	20743
849.463	20765
849.598	20693
849.734	20674
849.869	20625
850.004	20549
850.14	20640
850.275	20617
850.41	20461
850.545	20556
850.68	20522
850.815	20575
850.95	20408
851.085	20636
851.22	20686
851.355	20537
851.49	20549
851.625	20545
851.76	20602
851.895	20396
852.03	20476
852.165	20613
852.299	20613
852.434	20549
852.569	20549
852.703	20587
852.838	20560
852.973	20655
853.107	20640
853.242	20469
853.376	20336
853.511	20305
853.645	20328
853.78	20465
853.914	20431
854.048	20355
854.183	20282
854.317	20431
854.451	20541
854.585	20396
854.72	20404
854.854	20492
854.988	20278
855.122	20438
855.256	20244
855.39	20320
855.524	20480
855.658	20427
855.792	20301
855.926	20480
856.06	20366
856.194	20358
856.327	20393
856.461	20377
856.595	20343
856.729	20385
856.862	20450
856.996	20339
857.13	20434
857.263	20530
857.397	20457
857.53	20343
857.664	20393
857.797	20419
857.931	20457
858.064	20400
858.197	20514
858.331	20381
858.464	20313
858.597	20298
858.731	20301
858.864	20347
858.997	20313
859.13	20427
859.263	20324
859.396	20415
859.529	20328
859.662	20267
859.795	20202
859.928	20404
860.061	20419
860.194	20583
860.327	20355
860.46	20377
860.592	20358
860.725	20579
860.858	20446
860.99	20339
861.123	20317
861.256	20191
861.388	20332
861.521	20952
861.653	20138
861.786	20138
861.918	20313
862.05	20244
862.183	20267
862.315	20343
862.447	20309
862.58	20237
862.712	20092
862.844	20039
862.976	20122
863.108	20005
863.24	20442
863.372	20073
863.504	19970
863.636	20168
863.768	20115
863.9	20027
864.032	20046
864.164	20001
864.296	20050
864.428	20202
864.559	20134
864.691	20164
864.823	20039
864.954	20054
865.086	20134
865.217	19974
865.349	19967
865.48	19944
865.612	19974
865.743	20214
865.875	20096
866.006	19970
866.137	19868
866.269	19974
866.4	20024
866.531	19959
866.662	19822
866.793	20005
866.924	19982
867.055	19871
867.186	19928
867.317	19902
867.448	19833
867.579	19871
867.71	19921
867.841	19791
867.972	19944
868.103	19928
868.233	19925
868.364	19955
868.495	20058
868.625	20168
868.756	20248
868.886	20149
869.017	20214
869.147	20214
869.278	20347
869.408	20130
869.539	20103
869.669	20195
869.799	20301
869.929	20309
870.06	20351
870.19	20317
870.32	20560
870.45	20507
870.58	20465
870.71	20720
870.84	20689
870.97	20541
871.1	20644
871.23	20815
871.36	20838
871.489	20746
871.619	20826
871.749	20819
871.879	20849
872.008	20929
872.138	20872
872.267	20697
872.397	20663
872.526	20560
872.656	20606
872.785	20568
872.915	20800
873.044	20815
873.173	20830
873.303	20773
873.432	20876
873.561	20944
873.69	20830
873.819	20777
873.948	20963
874.077	20910
874.206	20769
874.335	20773
874.464	20944
874.593	20956
874.722	20979
874.851	21017
874.979	21070
875.108	20986
875.237	21001
875.365	20891
875.494	20933
875.623	21127
875.751	20937
875.88	21184
876.008	21199
876.136	21252
876.265	21542
876.393	21488
876.521	21614
876.65	21450
876.778	21511
876.906	21420
877.034	21386
877.162	21310
877.29	21340
877.418	21374
877.546	21416
877.674	21412
877.802	21473
877.93	21363
878.058	21317
878.185	21363
878.313	21367
878.441	21348
878.568	21272
878.696	21340
878.824	21370
878.951	21458
879.079	21564
879.206	21667
879.333	21572
879.461	21386
879.588	21462
879.715	21603
879.842	21633
879.97	21412
880.097	21291
880.224	21203
880.351	21268
880.478	21173
880.605	21226
880.732	21268
880.859	21443
880.986	21275
881.112	21287
881.239	21058
881.366	21036
881.493	20853
881.619	20899
881.746	20670
881.872	20811
881.999	20762
882.125	20796
882.252	20857
882.378	20834
882.505	20910
882.631	20632
882.757	20537
882.883	20568
883.01	20511
883.136	20370
883.262	20522
883.388	20313
883.514	20530
883.64	20473
883.766	20514
883.892	20389
884.018	20305
884.143	20415
884.269	20587
884.395	20294
884.52	20149
884.646	20244
884.772	20122
884.897	20180
885.023	20145
885.148	20343
885.274	20225
885.399	20119
885.524	20191
885.65	20240
885.775	20256
885.9	20134
886.025	20142
886.15	20351
886.275	20263
886.4	20039
886.525	19970
886.65	20126
886.775	20088
886.9	20126
887.025	20294
887.149	20062
887.274	20020
887.399	20005
887.523	19925
887.648	19818
887.773	19784
887.897	19955
888.021	19871
888.146	19852
888.27	20145
888.395	20039
888.519	19955
888.643	19928
888.767	19974
888.891	19868
889.015	19742
889.139	19784
889.263	19727
889.387	19871
889.511	19967
889.635	19822
889.759	19674
889.883	19776
890.006	19696
890.13	19830
890.254	19609
890.377	19750
890.501	19460
890.624	19483
890.748	19670
890.871	19396
890.995	19365
891.118	19335
891.241	19346
891.364	19449
891.488	19476
891.611	19202
891.734	19228
891.857	19403
891.98	19320
892.103	19331
892.226	19381
892.349	19384
892.471	19122
892.594	19156
892.717	19304
892.839	19255
892.962	19232
893.085	19308
893.207	19263
893.33	19206
893.452	19240
893.575	19335
893.697	19308
893.819	19346
893.941	19464
894.064	19373
894.186	19194
894.308	19194
894.43	19274
894.552	19392
894.674	19335
894.796	19221
894.918	19225
895.04	19160
895.161	19301
895.283	19228
895.405	19175
895.526	19255
895.648	19327
895.769	19308
895.891	19339
896.012	19384
896.134	19411
896.255	19346
896.376	19168
896.498	19301
896.619	19270
896.74	19384
896.861	19327
896.982	19601
897.103	19845
897.224	19594
897.345	19392
897.466	19537
897.587	19540
897.708	19601
897.828	19449
897.949	19483
898.07	19365
898.19	19392
898.311	19586
898.431	19506
898.552	19480
898.672	19693
898.792	19529
898.913	19556
899.033	19457
899.153	19312
899.273	19324
899.393	19278
899.513	19263
899.633	19331
899.753	19274
899.873	19289
899.993	19312
900.113	19285
900.232	19247
900.352	19217
900.472	19080
900.591	19057
900.711	19084
900.83	18966
900.95	19053
901.069	19160
901.189	18970
901.308	18734
901.427	18616
901.546	18673
901.665	18669
901.784	18730
901.904	18582
902.023	18418
902.141	18243
902.26	18235
902.379	18266
902.498	18262
902.617	18102
902.735	18300
902.854	18254
902.973	18117
903.091	17790
903.21	17954
903.328	17878
903.446	17817
903.565	17687
903.683	17718
903.801	17615
903.919	17668
904.038	17547
904.156	17452
904.274	17535
904.392	17417
904.51	17425
904.627	17417
904.745	17433
904.863	17440
904.981	17166
905.098	17117
905.216	17140
905.334	17086
905.451	17239
905.569	17022
905.686	17189
905.803	17147
905.921	16927
906.038	17105
906.155	16816
906.272	16721
906.389	16896
906.506	16554
906.623	16763
906.74	16702
906.857	16485
906.974	16577
907.091	16782
907.208	16736
907.324	16797
907.441	16596
907.557	16462
907.674	16352
907.79	16257
907.907	16398
908.023	16481
908.139	16390
908.256	16375
908.372	16295
908.488	16333
908.604	16177
908.72	16048
908.836	16135
908.952	16051
909.068	16223
909.184	16147
909.3	16109
909.415	16158
909.531	16097
909.647	15865
909.762	15934
909.878	15781
909.993	15800
910.108	15728
910.224	15781
910.339	15755
910.454	15759
910.57	15606
910.685	15549
910.8	15808
910.915	15781
911.03	15690
911.145	15431
911.259	15538
911.374	15492
911.489	15382
911.604	15184
911.718	15157
911.833	15249
911.947	15097
912.062	15074
912.176	15169
912.291	15279
912.405	15256
912.519	15450
912.633	15355
912.748	15264
912.862	15089
912.976	14967
913.09	14986
913.204	14937
913.318	14960
913.431	15055
913.545	15070
913.659	15199
913.772	14914
913.886	14807
914	14792
914.113	14918
914.226	14902
914.34	14773
914.453	14739
914.566	14933
914.68	14629
914.793	14670
914.906	14503
915.019	14434
915.132	14336
915.245	14495
915.358	14362
915.47	14590
915.583	14427
915.696	14370
915.809	14526
915.921	14598
916.034	14396
916.146	14385
916.259	14374
916.371	14427
916.483	14412
916.595	14263
916.708	14339
916.82	14282
916.932	14248
917.044	14290
917.156	14187
917.268	14115
917.38	14164
917.491	14073
917.603	14199
917.715	14126
917.826	14103
917.938	14142
918.049	13932
918.161	14123
918.272	14172
918.384	14199
918.495	14096
918.606	13890
918.717	13837
918.828	13913
918.939	13921
919.05	13795
919.161	13822
919.272	13715
919.383	13689
919.494	13947
919.604	14043
919.715	13936
919.826	13803
919.936	13852
920.047	13955
920.157	13791
920.267	14065
920.378	13860
920.488	13780
920.598	14050
920.708	14092
920.818	13955
920.928	13932
921.038	14115
921.148	14138
921.258	13837
921.368	13788
921.477	13674
921.587	13567
921.697	13403
921.806	13689
921.916	13453
922.025	13285
922.134	13327
922.244	13244
922.353	13289
922.462	13122
922.571	13061
922.68	13008
922.789	12943
922.898	12947
923.007	12829
923.116	12909
923.224	13012
923.333	12806
923.442	12646
923.55	12787
923.659	12791
923.767	12886
923.876	12627
923.984	12787
924.092	12601
924.201	12635
924.309	12696
924.417	12715
924.525	12677
924.633	12635
924.741	13514
924.849	12426
924.956	12582
925.064	12410
925.172	12270
925.279	12365
925.387	12429
925.494	12422
925.602	12494
925.709	12369
925.816	12243
925.924	12334
926.031	12407
926.138	12346
926.245	12369
926.352	12190
926.459	12330
926.566	12342
926.673	12281
926.779	12133
926.886	12167
926.993	11969
927.099	11912
927.206	11939
927.312	11969
927.419	12041
927.525	11946
927.631	11973
927.737	11821
927.843	11786
927.95	11722
928.056	11767
928.162	11802
928.267	11889
928.373	12277
928.479	11882
928.585	11684
928.69	11783
928.796	11729
928.901	11634
929.007	11520
929.112	11699
929.218	11600
929.323	11520
929.428	11528
929.533	11729
929.638	11520
929.743	11425
929.848	11490
929.953	11524
930.058	11395
930.163	11235
930.267	11250
930.372	11406
930.477	11292
930.581	11395
930.685	11311
930.79	11136
930.894	11113
930.998	11037
931.103	11212
931.207	10828
931.311	10816
931.415	10755
931.519	10523
931.623	10512
