Data from test_V78500241_821.txt Node
Date: Fri Mar 25 15:15:34 CST 2022
User: usil
Spectrometer: V785-0024
Trigger mode: 0
Integration Time (sec): 4.000000E-1
Scans to average: 1
Nonlinearity correction enabled: false
Boxcar width: 0
Storing dark spectrum: false
XAxis mode: Wavelengths
Number of Pixels in Spectrum: 1024
>>>>>Begin Spectral Data<<<<<
801.071	28291
801.214	28109
801.356	28025
801.499	28032
801.641	27819
801.783	27914
801.926	27945
802.068	27759
802.211	27857
802.353	27732
802.496	27466
802.638	27424
802.78	27481
802.923	27435
803.065	27557
803.208	27416
803.35	27534
803.492	27610
803.635	27751
803.777	27477
803.919	27755
804.061	28139
804.204	27690
804.346	27724
804.488	27656
804.63	27724
804.773	27618
804.915	27888
805.057	27857
805.199	27660
805.341	27701
805.483	27869
805.626	27914
805.768	27766
805.91	27778
806.052	27781
806.194	27842
806.336	28139
806.478	27892
806.62	27941
806.762	28074
806.904	28112
807.046	28409
807.188	28333
807.33	28268
807.472	28185
807.614	28284
807.756	28276
807.898	28192
808.04	28116
808.182	28048
808.324	28173
808.465	28337
808.607	28295
808.749	28470
808.891	28603
809.033	28771
809.174	28664
809.316	28649
809.458	28634
809.6	28481
809.741	28713
809.883	28809
810.025	28584
810.166	28869
810.308	28744
810.45	28831
810.591	28702
810.733	28672
810.875	28527
811.016	28436
811.158	28493
811.299	28599
811.441	28717
811.582	28618
811.724	28645
811.865	28440
812.007	28596
812.148	28660
812.29	28660
812.431	28630
812.573	28774
812.714	28888
812.855	29204
812.997	29204
813.138	29280
813.279	29246
813.421	29178
813.562	29014
813.703	28968
813.845	28927
813.986	28546
814.127	28367
814.268	28196
814.41	28280
814.551	28280
814.692	28504
814.833	28215
814.974	28128
815.115	28284
815.256	28173
815.397	28135
815.539	28200
815.68	28051
815.821	28010
815.962	28025
816.103	27857
816.244	27869
816.385	28036
816.526	27903
816.666	27705
816.807	27629
816.948	27526
817.089	27663
817.23	27610
817.371	27610
817.512	27751
817.653	27644
817.793	27561
817.934	27610
818.075	27534
818.216	27671
818.356	27587
818.497	27427
818.638	27306
818.778	27287
818.919	27332
819.06	27424
819.2	27496
819.341	27656
819.481	27481
819.622	27667
819.762	28093
819.903	27861
820.043	27816
820.184	27736
820.324	27637
820.465	27694
820.605	27591
820.746	27633
820.886	27443
821.026	27652
821.167	27762
821.307	27629
821.447	27614
821.588	27386
821.728	27408
821.868	27161
822.008	27024
822.149	27146
822.289	27066
822.429	26697
822.569	26754
822.709	26735
822.849	26697
822.99	26476
823.13	26549
823.27	26518
823.41	26408
823.55	26259
823.69	26366
823.83	26465
823.97	26385
824.11	26218
824.25	26142
824.389	26286
824.529	26370
824.669	26206
824.809	26412
824.949	26271
825.089	26275
825.228	26248
825.368	26119
825.508	26050
825.648	26138
825.787	26187
825.927	26081
826.067	25940
826.206	25989
826.346	26161
826.485	26183
826.625	26092
826.765	26187
826.904	26027
827.044	25909
827.183	25913
827.323	25799
827.462	25917
827.601	25791
827.741	25864
827.88	25780
828.02	25712
828.159	25833
828.298	25959
828.437	25871
828.577	25879
828.716	25864
828.855	25689
828.994	25537
829.134	25616
829.273	25559
829.412	25556
829.551	25339
829.69	25529
829.829	25540
829.968	25635
830.107	25628
830.246	25430
830.385	25445
830.524	25339
830.663	25407
830.802	25274
830.941	25251
831.08	24996
831.219	25221
831.357	25175
831.496	25381
831.635	25088
831.774	25004
831.913	24973
832.051	25012
832.19	24992
832.329	24924
832.467	24776
832.606	24779
832.744	24776
832.883	24734
833.022	24779
833.16	24814
833.299	24768
833.437	24916
833.576	24981
833.714	24787
833.852	24878
833.991	24913
834.129	25057
834.267	24814
834.406	24787
834.544	24920
834.682	24802
834.821	24852
834.959	24996
835.097	24700
835.235	24905
835.373	24730
835.511	24848
835.65	24635
835.788	24700
835.926	24658
836.064	24532
836.202	24414
836.34	24741
836.478	24852
836.615	24688
836.753	24673
836.891	24764
837.029	24696
837.167	24604
837.305	24467
837.443	24589
837.58	24494
837.718	24589
837.856	24441
837.993	24471
838.131	24547
838.269	24243
838.406	24350
838.544	24372
838.681	24277
838.819	24174
838.956	23901
839.094	23969
839.231	23984
839.369	24186
839.506	24327
839.643	24251
839.781	23923
839.918	23885
840.055	24018
840.193	23988
840.33	23775
840.467	23878
840.604	23935
840.742	24167
840.879	23821
841.016	23764
841.153	23790
841.29	24045
841.427	23657
841.564	23805
841.701	23851
841.838	23783
841.975	23699
842.112	23805
842.249	23680
842.385	23623
842.522	23821
842.659	23752
842.796	23596
842.933	23680
843.069	23596
843.206	23608
843.343	23680
843.479	23699
843.616	23634
843.752	23448
843.889	23490
844.025	23452
844.162	23448
844.298	23611
844.435	23486
844.571	23493
844.708	23566
844.844	23646
844.98	23592
845.117	23539
845.253	23288
845.389	23258
845.525	23269
845.661	23299
845.798	23178
845.934	23227
846.07	23044
846.206	23140
846.342	23284
846.478	23239
846.614	22999
846.75	22835
846.886	22889
847.022	22953
847.158	22847
847.294	22953
847.429	22987
847.565	22854
847.701	22999
847.837	22630
847.972	22592
848.108	22748
848.244	22584
848.379	22538
848.515	22462
848.65	22538
848.786	22508
848.921	22596
849.057	22668
849.192	22637
849.328	22596
849.463	22489
849.598	22360
849.734	22428
849.869	22417
850.004	22154
850.14	22226
850.275	22261
850.41	22234
850.545	22177
850.68	22150
850.815	22257
850.95	22200
851.085	22344
851.22	22344
851.355	22181
851.49	22253
851.625	22196
851.76	22128
851.895	22154
852.03	22029
852.165	22147
852.299	22188
852.434	22215
852.569	22390
852.703	22249
852.838	22386
852.973	22299
853.107	22325
853.242	22139
853.376	22154
853.511	21987
853.645	22070
853.78	22230
853.914	22135
854.048	22059
854.183	22025
854.317	22086
854.451	22268
854.585	21983
854.72	22124
854.854	22109
854.988	21945
855.122	21945
855.256	21816
855.39	21979
855.524	22116
855.658	22150
855.792	22101
855.926	22067
856.06	22101
856.194	22238
856.327	21987
856.461	21953
856.595	21968
856.729	21899
856.862	22139
856.996	22021
857.13	22101
857.263	22135
857.397	22128
857.53	22040
857.664	22017
857.797	22158
857.931	22207
858.064	22078
858.197	22120
858.331	22128
858.464	21930
858.597	21915
858.731	22006
858.864	21937
858.997	22017
859.13	22040
859.263	22101
859.396	22158
859.529	22090
859.662	22010
859.795	22162
859.928	21915
860.061	22284
860.194	22207
860.327	22131
860.46	21998
860.592	22150
860.725	22246
860.858	22090
860.99	21987
861.123	22010
861.256	21819
861.388	22021
861.521	22797
861.653	21926
861.786	21861
861.918	21918
862.05	21873
862.183	21918
862.315	21854
862.447	22025
862.58	21960
862.712	21835
862.844	21671
862.976	21823
863.108	21743
863.24	22135
863.372	21869
863.504	21572
863.636	21728
863.768	21876
863.9	21739
864.032	21705
864.164	21667
864.296	21793
864.428	21892
864.559	21812
864.691	21812
864.823	21819
864.954	21793
865.086	21633
865.217	21603
865.349	21682
865.48	21747
865.612	21500
865.743	21778
865.875	21637
866.006	21526
866.137	21568
866.269	21717
866.4	21633
866.531	21477
866.662	21545
866.793	21587
866.924	21652
867.055	21515
867.186	21583
867.317	21526
867.448	21492
867.579	21595
867.71	21454
867.841	21374
867.972	21564
868.103	21557
868.233	21606
868.364	21561
868.495	21728
868.625	21816
868.756	21854
868.886	21861
869.017	21831
869.147	21903
869.278	21857
869.408	21804
869.539	21644
869.669	21789
869.799	21865
869.929	22029
870.06	21949
870.19	22147
870.32	21983
870.45	22036
870.58	22215
870.71	22390
870.84	22322
870.97	22223
871.1	22188
871.23	22325
871.36	22322
871.489	22314
871.619	22276
871.749	22402
871.879	22390
872.008	22470
872.138	22402
872.267	22310
872.397	22265
872.526	22211
872.656	22211
872.785	22276
872.915	22375
873.044	22451
873.173	22535
873.303	22405
873.432	22424
873.561	22603
873.69	22417
873.819	22360
873.948	22459
874.077	22413
874.206	22382
874.335	22405
874.464	22485
874.593	22592
874.722	22626
874.851	22698
874.979	22679
875.108	22656
875.237	22470
875.365	22641
875.494	22599
875.623	22630
875.751	22596
875.88	22599
876.008	22683
876.136	22831
876.265	23029
876.393	23075
876.521	23018
876.65	23037
876.778	23029
876.906	22999
877.034	22949
877.162	22915
877.29	22927
877.418	22919
877.546	22957
877.674	22957
877.802	22923
877.93	22847
878.058	22953
878.185	22866
878.313	22915
878.441	22961
878.568	22721
878.696	22755
878.824	23041
878.951	23159
879.079	23181
879.206	23162
879.333	23124
879.461	22961
879.588	23098
879.715	23212
879.842	23208
879.97	22930
880.097	22763
880.224	22778
880.351	22892
880.478	22869
880.605	22740
880.732	22816
880.859	22976
880.986	22721
881.112	22691
881.239	22634
881.366	22424
881.493	22462
881.619	22333
881.746	22421
881.872	22424
881.999	22257
882.125	22177
882.252	22303
882.378	22177
882.505	22405
882.631	22329
882.757	21979
882.883	22173
883.01	22040
883.136	22093
883.262	21911
883.388	21857
883.514	22040
883.64	22067
883.766	21831
883.892	21759
884.018	21819
884.143	22059
884.269	22063
884.395	21854
884.52	21587
884.646	21720
884.772	21511
884.897	21526
885.023	21705
885.148	21705
885.274	21778
885.399	21724
885.524	21762
885.65	21705
885.775	21606
885.9	21629
886.025	21732
886.15	21762
886.275	21603
886.4	21542
886.525	21538
886.65	21530
886.775	21568
886.9	21800
887.025	21838
887.149	21675
887.274	21538
887.399	21450
887.523	21466
887.648	21355
887.773	21401
887.897	21462
888.021	21428
888.146	21336
888.27	21450
888.395	21420
888.519	21428
888.643	21515
888.767	21477
888.891	21351
889.015	21226
889.139	21237
889.263	21252
889.387	21450
889.511	21329
889.635	21435
889.759	21199
889.883	21233
890.006	21306
890.13	21275
890.254	21154
890.377	21093
890.501	20967
890.624	20956
890.748	21112
890.871	20891
890.995	20800
891.118	20750
891.241	20697
891.364	20765
891.488	20826
891.611	20708
891.734	20910
891.857	20880
891.98	20792
892.103	20708
892.226	20800
892.349	20746
892.471	20469
892.594	20735
892.717	20705
892.839	20678
892.962	20716
893.085	20754
893.207	20682
893.33	20541
893.452	20514
893.575	20579
893.697	20606
893.819	20743
893.941	20762
894.064	20811
894.186	20701
894.308	20575
894.43	20815
894.552	20739
894.674	20667
894.796	20537
894.918	20682
895.04	20590
895.161	20739
895.283	20617
895.405	20644
895.526	20648
895.648	20564
895.769	20621
895.891	20689
896.012	20678
896.134	20708
896.255	20678
896.376	20530
896.498	20632
896.619	20644
896.74	20602
896.861	20773
896.982	20994
897.103	21146
897.224	21001
897.345	20853
897.466	20792
897.587	20842
897.708	20849
897.828	20944
897.949	20754
898.07	20800
898.19	20811
898.311	20876
898.431	20830
898.552	20876
898.672	20876
898.792	21001
898.913	20979
899.033	20705
899.153	20644
899.273	20549
899.393	20590
899.513	20667
899.633	20606
899.753	20648
899.873	20568
899.993	20648
900.113	20469
900.232	20606
900.352	20518
900.472	20522
900.591	20351
900.711	20415
900.83	20328
900.95	20332
901.069	20526
901.189	20267
901.308	20130
901.427	19993
901.546	19944
901.665	19936
901.784	20001
901.904	19856
902.023	19731
902.141	19559
902.26	19476
902.379	19434
902.498	19502
902.617	19480
902.735	19502
902.854	19480
902.973	19441
903.091	19164
903.21	19072
903.328	19084
903.446	18977
903.565	18958
903.683	18878
903.801	18806
903.919	18951
904.038	18829
904.156	18798
904.274	18825
904.392	18601
904.51	18658
904.627	18681
904.745	18650
904.863	18661
904.981	18509
905.098	18365
905.216	18471
905.334	18334
905.451	18391
905.569	18369
905.686	18342
905.803	18323
905.921	18091
906.038	18205
906.155	18174
906.272	18068
906.389	18136
906.506	17855
906.623	17904
906.74	17882
906.857	17722
906.974	17813
907.091	17984
907.208	17965
907.324	17973
907.441	17798
907.557	17699
907.674	17516
907.79	17649
907.907	17547
908.023	17585
908.139	17532
908.256	17528
908.372	17471
908.488	17448
908.604	17277
908.72	17398
908.836	17383
908.952	17303
909.068	17280
909.184	17417
909.3	17242
909.415	17322
909.531	17261
909.647	17079
909.762	16968
909.878	16999
909.993	17098
910.108	17094
910.224	16965
910.339	17014
910.454	16850
910.57	16733
910.685	16744
910.8	17064
910.915	16900
911.03	16786
911.145	16733
911.259	16641
911.374	16523
911.489	16481
911.604	16428
911.718	16371
911.833	16386
911.947	16291
912.062	16143
912.176	16356
912.291	16234
912.405	16299
912.519	16443
912.633	16527
912.748	16333
912.862	16303
912.976	16223
913.09	16097
913.204	16200
913.318	16223
913.431	16223
913.545	16188
913.659	16154
913.772	16109
913.886	15979
914	15930
914.113	16017
914.226	15998
914.34	16048
914.453	15892
914.566	16044
914.68	15838
914.793	15857
914.906	15591
915.019	15538
915.132	15584
915.245	15526
915.358	15576
915.47	15469
915.583	15633
915.696	15545
915.809	15622
915.921	15641
916.034	15428
916.146	15545
916.259	15469
916.371	15496
916.483	15473
916.595	15405
916.708	15435
916.82	15340
916.932	15340
917.044	15241
917.156	15310
917.268	15192
917.38	15214
917.491	15184
917.603	15256
917.715	15237
917.826	15226
917.938	15104
918.049	14941
918.161	15036
918.272	15180
918.384	15180
918.495	15188
918.606	15017
918.717	14811
918.828	15081
918.939	14933
919.05	14845
919.161	14883
919.272	14705
919.383	14800
919.494	14967
919.604	15123
919.715	14895
919.826	14842
919.936	14891
920.047	15009
920.157	14899
920.267	15024
920.378	14849
920.488	14834
920.598	14952
920.708	15127
920.818	14971
920.928	15051
921.038	15127
921.148	15077
921.258	14830
921.368	14697
921.477	14632
921.587	14613
921.697	14556
921.806	14606
921.916	14385
922.025	14377
922.134	14256
922.244	14191
922.353	14202
922.462	14081
922.571	13989
922.68	13955
922.789	13879
922.898	13909
923.007	13814
923.116	13868
923.224	13917
923.333	13875
923.442	13757
923.55	13674
923.659	13780
923.767	13750
923.876	13582
923.984	13723
924.092	13643
924.201	13632
924.309	13643
924.417	13628
924.525	13594
924.633	13643
924.741	14374
924.849	13339
924.956	13533
925.064	13278
925.172	13225
925.279	13339
925.387	13343
925.494	13221
925.602	13556
925.709	13350
925.816	13118
925.924	13156
926.031	13270
926.138	13217
926.245	13274
926.352	13156
926.459	13293
926.566	13251
926.673	13202
926.779	13095
926.886	13015
926.993	13019
927.099	12848
927.206	12837
927.312	12764
927.419	12897
927.525	12916
927.631	12882
927.737	12726
927.843	12658
927.95	12616
928.056	12700
928.162	12623
928.267	12741
928.373	13320
928.479	12703
928.585	12502
928.69	12623
928.796	12563
928.901	12452
929.007	12292
929.112	12418
929.218	12452
929.323	12342
929.428	12426
929.533	12410
929.638	12228
929.743	12334
929.848	12330
929.953	12197
930.058	12251
930.163	12068
930.267	12045
930.372	12091
930.477	12049
930.581	12296
930.685	12015
930.79	11923
930.894	11984
930.998	11870
931.103	12015
931.207	11676
931.311	11562
931.415	11551
931.519	11265
931.623	11280
