Data from test_V78500241_413.txt Node
Date: Fri Mar 25 15:12:44 CST 2022
User: usil
Spectrometer: V785-0024
Trigger mode: 0
Integration Time (sec): 4.000000E-1
Scans to average: 1
Nonlinearity correction enabled: false
Boxcar width: 0
Storing dark spectrum: false
XAxis mode: Wavelengths
Number of Pixels in Spectrum: 1024
>>>>>Begin Spectral Data<<<<<
801.071	27055
801.214	27009
801.356	26861
801.499	26716
801.641	26746
801.783	26785
801.926	26724
802.068	26625
802.211	26659
802.353	26533
802.496	26434
802.638	26400
802.78	26381
802.923	26294
803.065	26389
803.208	26309
803.35	26427
803.492	26537
803.635	26522
803.777	26408
803.919	26476
804.061	26773
804.204	26568
804.346	26396
804.488	26381
804.63	26526
804.773	26488
804.915	26423
805.057	26518
805.199	26518
805.341	26636
805.483	26705
805.626	26667
805.768	26583
805.91	26579
806.052	26522
806.194	26434
806.336	26796
806.478	26629
806.62	26541
806.762	26804
806.904	26826
807.046	27047
807.188	27135
807.33	27051
807.472	26960
807.614	26948
807.756	26910
807.898	26826
808.04	26830
808.182	26864
808.324	26800
808.465	26902
808.607	27024
808.749	27104
808.891	27302
809.033	27454
809.174	27329
809.316	27237
809.458	27176
809.6	27176
809.741	27252
809.883	27416
810.025	27485
810.166	27450
810.308	27405
810.45	27454
810.591	27317
810.733	27359
810.875	27176
811.016	26990
811.158	27066
811.299	27310
811.441	27348
811.582	27416
811.724	27268
811.865	27195
812.007	27146
812.148	27123
812.29	27226
812.431	27363
812.573	27507
812.714	27614
812.855	27789
812.997	27865
813.138	27922
813.279	27823
813.421	27694
813.562	27781
813.703	27603
813.845	27378
813.986	27176
814.127	26880
814.268	27039
814.41	26956
814.551	26864
814.692	26963
814.833	26670
814.974	26739
815.115	26845
815.256	26659
815.397	26648
815.539	26720
815.68	26674
815.821	26533
815.962	26606
816.103	26552
816.244	26568
816.385	26431
816.526	26400
816.666	26267
816.807	26305
816.948	26187
817.089	26145
817.23	26290
817.371	26161
817.512	26092
817.653	26058
817.793	26020
817.934	26168
818.075	26259
818.216	26176
818.356	26138
818.497	26069
818.638	25795
818.778	25944
818.919	25868
819.06	25879
819.2	26084
819.341	26119
819.481	26119
819.622	26301
819.762	26480
819.903	26533
820.043	26301
820.184	26271
820.324	26301
820.465	26377
820.605	26214
820.746	26301
820.886	26088
821.026	26111
821.167	26256
821.307	26309
821.447	26008
821.588	26039
821.728	25913
821.868	25818
822.008	25677
822.149	25605
822.289	25594
822.429	25403
822.569	25263
822.709	25419
822.849	25034
822.99	25156
823.13	24981
823.27	25023
823.41	24920
823.55	24863
823.69	24939
823.83	24875
823.97	24848
824.11	24779
824.25	24757
824.389	24738
824.529	24833
824.669	24692
824.809	24783
824.949	24859
825.089	24867
825.228	24700
825.368	24574
825.508	24589
825.648	24612
825.787	24597
825.927	24677
826.067	24551
826.206	24566
826.346	24536
826.485	24593
826.625	24715
826.765	24559
826.904	24658
827.044	24426
827.183	24369
827.323	24327
827.462	24445
827.601	24311
827.741	24292
827.88	24407
828.02	24277
828.159	24239
828.298	24323
828.437	24441
828.577	24243
828.716	24418
828.855	24304
828.994	24155
829.134	24083
829.273	24064
829.412	24007
829.551	23977
829.69	23961
829.829	24049
829.968	24079
830.107	24171
830.246	24087
830.385	24038
830.524	23927
830.663	23965
830.802	23794
830.941	23657
831.08	23520
831.219	23775
831.357	23737
831.496	23836
831.635	23756
831.774	23657
831.913	23471
832.051	23486
832.19	23562
832.329	23490
832.467	23440
832.606	23299
832.744	23410
832.883	23326
833.022	23337
833.16	23368
833.299	23410
833.437	23459
833.576	23497
833.714	23395
833.852	23509
833.991	23573
834.129	23452
834.267	23558
834.406	23318
834.544	23368
834.682	23391
834.821	23459
834.959	23585
835.097	23337
835.235	23414
835.373	23376
835.511	23452
835.65	23250
835.788	23398
835.926	23090
836.064	23075
836.202	23041
836.34	23292
836.478	23421
836.615	23277
836.753	23383
836.891	23376
837.029	23239
837.167	23159
837.305	23299
837.443	23136
837.58	22987
837.718	23280
837.856	23162
837.993	23151
838.131	22999
838.269	22927
838.406	23117
838.544	22980
838.681	22801
838.819	22759
838.956	22615
839.094	22672
839.231	22485
839.369	22820
839.506	23121
839.643	22828
839.781	22561
839.918	22577
840.055	22531
840.193	22580
840.33	22519
840.467	22516
840.604	22615
840.742	22892
840.879	22363
841.016	22405
841.153	22386
841.29	22573
841.427	22466
841.564	22599
841.701	22641
841.838	22459
841.975	22455
842.112	22249
842.249	22367
842.385	22303
842.522	22462
842.659	22398
842.796	22223
842.933	22234
843.069	22257
843.206	22215
843.343	22306
843.479	22230
843.616	22242
843.752	22135
843.889	22078
844.025	22177
844.162	22101
844.298	22200
844.435	22059
844.571	22036
844.708	22185
844.844	22272
844.98	22276
845.117	22086
845.253	22040
845.389	21998
845.525	21979
845.661	21975
845.798	21907
845.934	21941
846.07	21679
846.206	21797
846.342	21861
846.478	21797
846.614	21614
846.75	21488
846.886	21549
847.022	21743
847.158	21553
847.294	21583
847.429	21603
847.565	21542
847.701	21682
847.837	21188
847.972	21226
848.108	21291
848.244	21420
848.379	21112
848.515	21176
848.65	21184
848.786	21146
848.921	21127
849.057	21226
849.192	21268
849.328	21272
849.463	21093
849.598	21043
849.734	21169
849.869	21005
850.004	20933
850.14	21001
850.275	21017
850.41	20697
850.545	20910
850.68	20811
850.815	20990
850.95	20914
851.085	21024
851.22	20914
851.355	20956
851.49	20941
851.625	20826
851.76	20826
851.895	20758
852.03	20765
852.165	20887
852.299	20944
852.434	20895
852.569	20902
852.703	20845
852.838	20948
852.973	21081
853.107	21058
853.242	20899
853.376	20670
853.511	20674
853.645	20659
853.78	20956
853.914	20636
854.048	20682
854.183	20708
854.317	20735
854.451	20933
854.585	20750
854.72	20697
854.854	20750
854.988	20587
855.122	20804
855.256	20533
855.39	20769
855.524	20686
855.658	20758
855.792	20819
855.926	20750
856.06	20800
856.194	20807
856.327	20777
856.461	20617
856.595	20705
856.729	20689
856.862	20819
856.996	20807
857.13	20838
857.263	20883
857.397	20872
857.53	20708
857.664	20781
857.797	20705
857.931	20750
858.064	20838
858.197	21047
858.331	20781
858.464	20697
858.597	20629
858.731	20579
858.864	20769
858.997	20670
859.13	20769
859.263	20727
859.396	20769
859.529	20693
859.662	20686
859.795	20590
859.928	20769
860.061	20819
860.194	20960
860.327	20785
860.46	20845
860.592	20880
860.725	20857
860.858	20834
860.99	20845
861.123	20609
861.256	20632
861.388	20762
861.521	21466
861.653	20625
861.786	20568
861.918	20583
862.05	20590
862.183	20648
862.315	20731
862.447	20765
862.58	20670
862.712	20476
862.844	20385
862.976	20518
863.108	20488
863.24	20838
863.372	20423
863.504	20454
863.636	20473
863.768	20537
863.9	20412
864.032	20221
864.164	20377
864.296	20393
864.428	20564
864.559	20579
864.691	20533
864.823	20271
864.954	20431
865.086	20465
865.217	20366
865.349	20332
865.48	20358
865.612	20476
865.743	20556
865.875	20427
866.006	20362
866.137	20248
866.269	20434
866.4	20145
866.531	20252
866.662	20172
866.793	20145
866.924	20332
867.055	20434
867.186	20263
867.317	20290
867.448	20221
867.579	20244
867.71	20145
867.841	20195
867.972	20290
868.103	20229
868.233	20320
868.364	20317
868.495	20427
868.625	20488
868.756	20625
868.886	20488
869.017	20568
869.147	20621
869.278	20689
869.408	20579
869.539	20579
869.669	20655
869.799	20602
869.929	20773
870.06	20670
870.19	20887
870.32	20826
870.45	20910
870.58	20906
870.71	21009
870.84	21005
870.97	20899
871.1	21013
871.23	21192
871.36	21036
871.489	21020
871.619	21032
871.749	21013
871.879	21291
872.008	21317
872.138	21165
872.267	21096
872.397	20979
872.526	20906
872.656	21001
872.785	21093
872.915	21142
873.044	21074
873.173	21256
873.303	21138
873.432	21165
873.561	21218
873.69	21233
873.819	21214
873.948	21291
874.077	21127
874.206	21135
874.335	21119
874.464	21363
874.593	21310
874.722	21348
874.851	21420
874.979	21321
875.108	21435
875.237	21397
875.365	21321
875.494	21310
875.623	21504
875.751	21306
875.88	21340
876.008	21477
876.136	21439
876.265	21759
876.393	21865
876.521	21937
876.65	21785
876.778	21823
876.906	21641
877.034	21759
877.162	21732
877.29	21671
877.418	21709
877.546	21842
877.674	21739
877.802	21732
877.93	21797
878.058	21720
878.185	21694
878.313	21599
878.441	21679
878.568	21625
878.696	21667
878.824	21709
878.951	21880
879.079	21869
879.206	22067
879.333	21930
879.461	21728
879.588	21903
879.715	22044
879.842	21975
879.97	21800
880.097	21481
880.224	21526
880.351	21572
880.478	21564
880.605	21557
880.732	21519
880.859	21789
880.986	21481
881.112	21580
881.239	21431
881.366	21332
881.493	21184
881.619	21222
881.746	21192
881.872	21104
881.999	21146
882.125	21013
882.252	21260
882.378	21119
882.505	21249
882.631	21039
882.757	20937
882.883	20910
883.01	20887
883.136	20735
883.262	20739
883.388	20632
883.514	20895
883.64	20815
883.766	20796
883.892	20587
884.018	20625
884.143	20830
884.269	20902
884.395	20530
884.52	20454
884.646	20461
884.772	20366
884.897	20454
885.023	20609
885.148	20484
885.274	20644
885.399	20632
885.524	20423
885.65	20621
885.775	20556
885.9	20594
886.025	20655
886.15	20480
886.275	20427
886.4	20374
886.525	20442
886.65	20473
886.775	20488
886.9	20613
887.025	20678
887.149	20503
887.274	20423
887.399	20328
887.523	20282
887.648	20199
887.773	20221
887.897	20305
888.021	20301
888.146	20195
888.27	20355
888.395	20427
888.519	20336
888.643	20351
888.767	20370
888.891	20229
889.015	20035
889.139	20199
889.263	20065
889.387	20119
889.511	20275
889.635	20073
889.759	20103
889.883	20180
890.006	20065
890.13	20062
890.254	19944
890.377	20115
890.501	19856
890.624	19947
890.748	19959
890.871	19674
890.995	19635
891.118	19586
891.241	19647
891.364	19685
891.488	19795
891.611	19757
891.734	19727
891.857	19822
891.98	19662
892.103	19871
892.226	19712
892.349	19685
892.471	19430
892.594	19635
892.717	19552
892.839	19605
892.962	19540
893.085	19674
893.207	19514
893.33	19468
893.452	19460
893.575	19696
893.697	19567
893.819	19666
893.941	19811
894.064	19613
894.186	19559
894.308	19384
894.43	19666
894.552	19658
894.674	19632
894.796	19430
894.918	19613
895.04	19548
895.161	19704
895.283	19715
895.405	19468
895.526	19556
895.648	19537
895.769	19723
895.891	19563
896.012	19708
896.134	19525
896.255	19628
896.376	19472
896.498	19525
896.619	19655
896.74	19544
896.861	19567
896.982	19875
897.103	20134
897.224	19803
897.345	19784
897.466	19731
897.587	19871
897.708	19860
897.828	19807
897.949	19685
898.07	19681
898.19	19788
898.311	19818
898.431	19837
898.552	19864
898.672	19921
898.792	19898
898.913	19780
899.033	19635
899.153	19651
899.273	19472
899.393	19525
899.513	19616
899.633	19628
899.753	19571
899.873	19472
899.993	19609
900.113	19464
900.232	19620
900.352	19487
900.472	19537
900.591	19358
900.711	19480
900.83	19312
900.95	19316
901.069	19430
901.189	19175
901.308	19023
901.427	18966
901.546	18951
901.665	18947
901.784	18897
901.904	18795
902.023	18806
902.141	18544
902.26	18509
902.379	18555
902.498	18456
902.617	18399
902.735	18494
902.854	18426
902.973	18456
903.091	18140
903.21	18121
903.328	18117
903.446	18034
903.565	18079
903.683	17992
903.801	17790
903.919	17821
904.038	17809
904.156	17653
904.274	17718
904.392	17718
904.51	17638
904.627	17646
904.745	17668
904.863	17672
904.981	17551
905.098	17280
905.216	17372
905.334	17379
905.451	17368
905.569	17345
905.686	17448
905.803	17490
905.921	17185
906.038	17353
906.155	17239
906.272	17071
906.389	17067
906.506	17037
906.623	16984
906.74	16923
906.857	16858
906.974	16896
907.091	16953
907.208	17064
907.324	16961
907.441	16744
907.557	16698
907.674	16706
907.79	16611
907.907	16630
908.023	16637
908.139	16542
908.256	16569
908.372	16607
908.488	16565
908.604	16512
908.72	16405
908.836	16299
908.952	16356
909.068	16405
909.184	16405
909.3	16417
909.415	16485
909.531	16375
909.647	16166
909.762	16109
909.878	16036
909.993	16025
910.108	16101
910.224	16063
910.339	16093
910.454	15987
910.57	15934
910.685	15888
910.8	16051
910.915	16105
911.03	15956
911.145	15705
911.259	15694
911.374	15667
911.489	15633
911.604	15561
911.718	15424
911.833	15416
911.947	15268
912.062	15332
912.176	15447
912.291	15439
912.405	15428
912.519	15675
912.633	15679
912.748	15431
912.862	15386
912.976	15218
913.09	15112
913.204	15116
913.318	15272
913.431	15355
913.545	15348
913.659	15348
913.772	15245
913.886	15074
914	15081
914.113	15089
914.226	15093
914.34	15089
914.453	15001
914.566	15116
914.68	15005
914.793	14891
914.906	14689
915.019	14701
915.132	14606
915.245	14655
915.358	14777
915.47	14716
915.583	14644
915.696	14640
915.809	14754
915.921	14804
916.034	14705
916.146	14663
916.259	14629
916.371	14648
916.483	14571
916.595	14511
916.708	14530
916.82	14552
916.932	14495
917.044	14537
917.156	14450
917.268	14389
917.38	14309
917.491	14328
917.603	14355
917.715	14434
917.826	14499
917.938	14225
918.049	14180
918.161	14290
918.272	14415
918.384	14389
918.495	14370
918.606	14168
918.717	14199
918.828	14157
918.939	14202
919.05	14001
919.161	14130
919.272	13906
919.383	14046
919.494	14115
919.604	14317
919.715	14161
919.826	13951
919.936	14077
920.047	14240
920.157	13997
920.267	14389
920.378	14164
920.488	14138
920.598	14252
920.708	14461
920.818	14176
920.928	14195
921.038	14381
921.148	14317
921.258	14092
921.368	13955
921.477	13860
921.587	13864
921.697	13818
921.806	13868
921.916	13651
922.025	13525
922.134	13472
922.244	13407
922.353	13476
922.462	13377
922.571	13411
922.68	13099
922.789	13190
922.898	13198
923.007	13103
923.116	13217
923.224	13149
923.333	13114
923.442	12943
923.55	13050
923.659	13072
923.767	12981
923.876	13015
923.984	13057
924.092	12894
924.201	13050
924.309	12920
924.417	12897
924.525	12806
924.633	12996
924.741	13723
924.849	12669
924.956	12779
925.064	12654
925.172	12509
925.279	12574
925.387	12650
925.494	12604
925.602	12703
925.709	12700
925.816	12490
925.924	12471
926.031	12540
926.138	12490
926.245	12506
926.352	12403
926.459	12528
926.566	12616
926.673	12555
926.779	12361
926.886	12334
926.993	12148
927.099	12098
927.206	12045
927.312	12091
927.419	12159
927.525	12152
927.631	12190
927.737	12053
927.843	11980
927.95	11901
928.056	11912
928.162	12095
928.267	12015
928.373	12684
928.479	12106
928.585	11847
928.69	11954
928.796	12015
928.901	11870
929.007	11680
929.112	11878
929.218	11817
929.323	11790
929.428	11756
929.533	11824
929.638	11691
929.743	11707
929.848	11790
929.953	11729
930.058	11638
930.163	11406
930.267	11455
930.372	11512
930.477	11349
930.581	11570
930.685	11486
930.79	11315
930.894	11307
930.998	11330
931.103	11364
931.207	11056
931.311	11006
931.415	10858
931.519	10714
931.623	10698
