Data from test_V78500241_3272.txt Node
Date: Fri Mar 25 15:32:38 CST 2022
User: usil
Spectrometer: V785-0024
Trigger mode: 0
Integration Time (sec): 4.000000E-1
Scans to average: 1
Nonlinearity correction enabled: false
Boxcar width: 0
Storing dark spectrum: false
XAxis mode: Wavelengths
Number of Pixels in Spectrum: 1024
>>>>>Begin Spectral Data<<<<<
801.071	27218
801.214	27169
801.356	27024
801.499	26910
801.641	26929
801.783	26842
801.926	26853
802.068	26876
802.211	26876
802.353	26682
802.496	26579
802.638	26579
802.78	26522
802.923	26393
803.065	26396
803.208	26427
803.35	26453
803.492	26495
803.635	26663
803.777	26632
803.919	26613
804.061	27070
804.204	26769
804.346	26667
804.488	26518
804.63	26556
804.773	26473
804.915	26686
805.057	26632
805.199	26461
805.341	26701
805.483	26655
805.626	26872
805.768	26720
805.91	26815
806.052	26861
806.194	26697
806.336	27009
806.478	26727
806.62	26727
806.762	26921
806.904	26975
807.046	27268
807.188	27233
807.33	27039
807.472	27207
807.614	27112
807.756	27176
807.898	26933
808.04	26857
808.182	27005
808.324	26811
808.465	26960
808.607	27233
808.749	27230
808.891	27374
809.033	27427
809.174	27405
809.316	27294
809.458	27355
809.6	27241
809.741	27332
809.883	27431
810.025	27652
810.166	27629
810.308	27652
810.45	27511
810.591	27519
810.733	27370
810.875	27192
811.016	27245
811.158	27283
811.299	27412
811.441	27591
811.582	27458
811.724	27332
811.865	27291
812.007	27272
812.148	27370
812.29	27374
812.431	27458
812.573	27652
812.714	27713
812.855	27846
812.997	27888
813.138	27861
813.279	27926
813.421	27747
813.562	27690
813.703	27629
813.845	27439
813.986	27291
814.127	27077
814.268	27009
814.41	27032
814.551	26887
814.692	27070
814.833	26929
814.974	26933
815.115	26906
815.256	26773
815.397	26868
815.539	26971
815.68	26861
815.821	26708
815.962	26708
816.103	26838
816.244	26670
816.385	26541
816.526	26408
816.666	26412
816.807	26290
816.948	26366
817.089	26259
817.23	26408
817.371	26168
817.512	26202
817.653	26290
817.793	26107
817.934	26252
818.075	26210
818.216	26180
818.356	26278
818.497	26035
818.638	25989
818.778	26043
818.919	26050
819.06	26168
819.2	26199
819.341	26164
819.481	26115
819.622	26381
819.762	26720
819.903	26640
820.043	26400
820.184	26377
820.324	26305
820.465	26408
820.605	26362
820.746	26221
820.886	26206
821.026	26358
821.167	26122
821.307	26358
821.447	26343
821.588	26199
821.728	26012
821.868	25978
822.008	25803
822.149	25715
822.289	25655
822.429	25339
822.569	25316
822.709	25521
822.849	25236
822.99	25206
823.13	25198
823.27	25175
823.41	24966
823.55	24852
823.69	25027
823.83	25053
823.97	25053
824.11	24791
824.25	24852
824.389	24951
824.529	25019
824.669	24821
824.809	24924
824.949	25034
825.089	24932
825.228	24840
825.368	24703
825.508	24776
825.648	24722
825.787	24768
825.927	24745
826.067	24692
826.206	24730
826.346	24871
826.485	24787
826.625	24817
826.765	24928
826.904	24779
827.044	24563
827.183	24418
827.323	24300
827.462	24578
827.601	24399
827.741	24384
827.88	24525
828.02	24254
828.159	24437
828.298	24342
828.437	24608
828.577	24372
828.716	24509
828.855	24327
828.994	24334
829.134	24148
829.273	24194
829.412	24060
829.551	24136
829.69	24045
829.829	24114
829.968	24232
830.107	24129
830.246	24186
830.385	24102
830.524	24095
830.663	23859
830.802	23866
830.941	23760
831.08	23668
831.219	23752
831.357	23901
831.496	24015
831.635	23729
831.774	23623
831.913	23687
832.051	23486
832.19	23684
832.329	23665
832.467	23486
832.606	23299
832.744	23425
832.883	23379
833.022	23360
833.16	23356
833.299	23482
833.437	23486
833.576	23547
833.714	23543
833.852	23676
833.991	23482
834.129	23573
834.267	23665
834.406	23520
834.544	23448
834.682	23718
834.821	23493
834.959	23600
835.097	23459
835.235	23733
835.373	23512
835.511	23505
835.65	23421
835.788	23395
835.926	23258
836.064	23227
836.202	23155
836.34	23334
836.478	23524
836.615	23383
836.753	23334
836.891	23356
837.029	23360
837.167	23280
837.305	23258
837.443	23189
837.58	23242
837.718	23204
837.856	23212
837.993	23174
838.131	23204
838.269	23159
838.406	23216
838.544	23052
838.681	22805
838.819	22812
838.956	22725
839.094	22736
839.231	22782
839.369	22915
839.506	23124
839.643	22968
839.781	22717
839.918	22736
840.055	22706
840.193	22706
840.33	22599
840.467	22733
840.604	22691
840.742	22915
840.879	22508
841.016	22455
841.153	22405
841.29	22668
841.427	22603
841.564	22752
841.701	22561
841.838	22596
841.975	22550
842.112	22565
842.249	22516
842.385	22466
842.522	22615
842.659	22474
842.796	22386
842.933	22508
843.069	22436
843.206	22413
843.343	22440
843.479	22363
843.616	22390
843.752	22135
843.889	22291
844.025	22284
844.162	22280
844.298	22219
844.435	22154
844.571	22032
844.708	22185
844.844	22382
844.98	22318
845.117	22139
845.253	22181
845.389	22070
845.525	22082
845.661	22051
845.798	21903
845.934	22017
846.07	21865
846.206	21991
846.342	22070
846.478	21854
846.614	21759
846.75	21504
846.886	21652
847.022	21823
847.158	21690
847.294	21656
847.429	21724
847.565	21644
847.701	21876
847.837	21389
847.972	21378
848.108	21492
848.244	21393
848.379	21275
848.515	21154
848.65	21230
848.786	21199
848.921	21165
849.057	21348
849.192	21401
849.328	21230
849.463	21348
849.598	21173
849.734	21165
849.869	21165
850.004	21043
850.14	21039
850.275	20982
850.41	20975
850.545	20990
850.68	20933
850.815	21017
850.95	20998
851.085	21146
851.22	21089
851.355	21085
851.49	20944
851.625	20929
851.76	21017
851.895	20895
852.03	20956
852.165	21066
852.299	21119
852.434	21066
852.569	21051
852.703	21005
852.838	21001
852.973	21081
853.107	21093
853.242	20918
853.376	20975
853.511	20746
853.645	20758
853.78	20895
853.914	20849
854.048	20746
854.183	20792
854.317	20887
854.451	21024
854.585	20925
854.72	20853
854.854	21013
854.988	20868
855.122	20979
855.256	20636
855.39	20842
855.524	20910
855.658	20914
855.792	20899
855.926	20811
856.06	20899
856.194	20941
856.327	20792
856.461	20735
856.595	20785
856.729	20876
856.862	20849
856.996	20918
857.13	20864
857.263	20937
857.397	20975
857.53	20769
857.664	20902
857.797	20918
857.931	20929
858.064	20872
858.197	20979
858.331	20902
858.464	20689
858.597	20792
858.731	20811
858.864	20864
858.997	20800
859.13	20880
859.263	20777
859.396	20864
859.529	20743
859.662	20819
859.795	20876
859.928	20800
860.061	21028
860.194	21047
860.327	20838
860.46	20807
860.592	20914
860.725	21020
860.858	20941
860.99	20883
861.123	20674
861.256	20708
861.388	20834
861.521	21382
861.653	20785
861.786	20530
861.918	20777
862.05	20807
862.183	20800
862.315	20826
862.447	20834
862.58	20773
862.712	20545
862.844	20492
862.976	20667
863.108	20541
863.24	21062
863.372	20454
863.504	20522
863.636	20564
863.768	20518
863.9	20556
864.032	20438
864.164	20499
864.296	20503
864.428	20640
864.559	20743
864.691	20564
864.823	20537
864.954	20640
865.086	20598
865.217	20469
865.349	20446
865.48	20336
865.612	20457
865.743	20518
865.875	20518
866.006	20298
866.137	20484
866.269	20336
866.4	20427
866.531	20431
866.662	20381
866.793	20427
866.924	20320
867.055	20492
867.186	20431
867.317	20351
867.448	20244
867.579	20412
867.71	20313
867.841	20366
867.972	20358
868.103	20362
868.233	20317
868.364	20415
868.495	20537
868.625	20648
868.756	20617
868.886	20640
869.017	20682
869.147	20796
869.278	20792
869.408	20727
869.539	20629
869.669	20632
869.799	20769
869.929	20746
870.06	20731
870.19	20944
870.32	20857
870.45	20914
870.58	20986
870.71	21127
870.84	21157
870.97	20998
871.1	21123
871.23	21199
871.36	21272
871.489	21036
871.619	21199
871.749	21252
871.879	21268
872.008	21340
872.138	21203
872.267	21272
872.397	21074
872.526	21077
872.656	21127
872.785	21131
872.915	21165
873.044	21211
873.173	21226
873.303	21389
873.432	21249
873.561	21401
873.69	21283
873.819	21245
873.948	21249
874.077	21260
874.206	21283
874.335	21260
874.464	21294
874.593	21523
874.722	21488
874.851	21519
874.979	21515
875.108	21500
875.237	21572
875.365	21428
875.494	21462
875.623	21580
875.751	21450
875.88	21496
876.008	21679
876.136	21675
876.265	21884
876.393	22070
876.521	21953
876.65	21956
876.778	22040
876.906	21934
877.034	21918
877.162	21812
877.29	21751
877.418	21854
877.546	21865
877.674	21781
877.802	21850
877.93	21762
878.058	21808
878.185	21838
878.313	21895
878.441	21812
878.568	21656
878.696	21781
878.824	21968
878.951	22025
879.079	22109
879.206	22124
879.333	21972
879.461	21994
879.588	21903
879.715	21930
879.842	22147
879.97	21895
880.097	21682
880.224	21652
880.351	21785
880.478	21622
880.605	21663
880.732	21690
880.859	21930
880.986	21732
881.112	21709
881.239	21454
881.366	21447
881.493	21344
881.619	21287
881.746	21363
881.872	21443
881.999	21268
882.125	21260
882.252	21359
882.378	21283
882.505	21408
882.631	21150
882.757	20937
882.883	21135
883.01	20906
883.136	21093
883.262	20819
883.388	20796
883.514	21001
883.64	21001
883.766	20857
883.892	20807
884.018	20845
884.143	20914
884.269	20857
884.395	20724
884.52	20537
884.646	20602
884.772	20492
884.897	20545
885.023	20659
885.148	20750
885.274	20754
885.399	20625
885.524	20724
885.65	20765
885.775	20625
885.9	20640
886.025	20777
886.15	20598
886.275	20609
886.4	20507
886.525	20526
886.65	20514
886.775	20431
886.9	20731
887.025	20781
887.149	20473
887.274	20313
887.399	20374
887.523	20275
887.648	20328
887.773	20408
887.897	20454
888.021	20442
888.146	20381
888.27	20488
888.395	20552
888.519	20343
888.643	20347
888.767	20381
888.891	20396
889.015	20233
889.139	20244
889.263	20221
889.387	20362
889.511	20385
889.635	20263
889.759	20278
889.883	20202
890.006	20142
890.13	20324
890.254	20054
890.377	20138
890.501	19959
890.624	20001
890.748	20096
890.871	19887
890.995	19818
891.118	19639
891.241	19833
891.364	19746
891.488	19868
891.611	19833
891.734	19666
891.857	19856
891.98	19837
892.103	19868
892.226	19769
892.349	19723
892.471	19696
892.594	19647
892.717	19833
892.839	19712
892.962	19742
893.085	19799
893.207	19723
893.33	19620
893.452	19502
893.575	19772
893.697	19639
893.819	19628
893.941	19890
894.064	19780
894.186	19605
894.308	19567
894.43	19811
894.552	19784
894.674	19715
894.796	19632
894.918	19674
895.04	19483
895.161	19814
895.283	19719
895.405	19613
895.526	19662
895.648	19715
895.769	19715
895.891	19723
896.012	19776
896.134	19712
896.255	19693
896.376	19677
896.498	19765
896.619	19814
896.74	19727
896.861	19712
896.982	20020
897.103	20096
897.224	19894
897.345	19944
897.466	19875
897.587	19906
897.708	20077
897.828	19925
897.949	19864
898.07	19719
898.19	19856
898.311	19913
898.431	19875
898.552	19928
898.672	19879
898.792	19928
898.913	19928
899.033	19849
899.153	19750
899.273	19662
899.393	19582
899.513	19780
899.633	19632
899.753	19742
899.873	19525
899.993	19685
900.113	19510
900.232	19685
900.352	19590
900.472	19628
900.591	19460
900.711	19335
900.83	19441
900.95	19655
901.069	19639
901.189	19247
901.308	19061
901.427	19023
901.546	18985
901.665	19175
901.784	19038
901.904	18863
902.023	18886
902.141	18688
902.26	18551
902.379	18574
902.498	18570
902.617	18452
902.735	18486
902.854	18540
902.973	18380
903.091	18133
903.21	18091
903.328	18216
903.446	18114
903.565	18098
903.683	17992
903.801	17942
903.919	18045
904.038	17999
904.156	17836
904.274	17813
904.392	17707
904.51	17729
904.627	17733
904.745	17859
904.863	17908
904.981	17615
905.098	17455
905.216	17532
905.334	17554
905.451	17596
905.569	17455
905.686	17505
905.803	17387
905.921	17345
906.038	17402
906.155	17436
906.272	17307
906.389	17318
906.506	16991
906.623	16987
906.74	17033
906.857	16873
906.974	16843
907.091	17025
907.208	17128
907.324	17132
907.441	16892
907.557	16786
907.674	16752
907.79	16550
907.907	16710
908.023	16748
908.139	16717
908.256	16653
908.372	16679
908.488	16653
908.604	16462
908.72	16379
908.836	16508
908.952	16447
909.068	16527
909.184	16527
909.3	16455
909.415	16538
909.531	16436
909.647	16139
909.762	16287
909.878	16131
909.993	16158
910.108	16074
910.224	16082
910.339	16181
910.454	15983
910.57	16017
910.685	15983
910.8	16150
910.915	16124
911.03	15960
911.145	15937
911.259	15778
911.374	15846
911.489	15781
911.604	15595
911.718	15515
911.833	15576
911.947	15534
912.062	15298
912.176	15622
912.291	15633
912.405	15549
912.519	15736
912.633	15736
912.748	15534
912.862	15561
912.976	15355
913.09	15192
913.204	15272
913.318	15378
913.431	15435
913.545	15488
913.659	15450
913.772	15218
913.886	15211
914	15146
914.113	15389
914.226	15298
914.34	15272
914.453	15188
914.566	15241
914.68	15036
914.793	15017
914.906	14834
915.019	14826
915.132	14724
915.245	14625
915.358	14781
915.47	14838
915.583	14830
915.696	14796
915.809	14998
915.921	14941
916.034	14758
916.146	14678
916.259	14575
916.371	14682
916.483	14678
916.595	14727
916.708	14632
916.82	14659
916.932	14552
917.044	14568
917.156	14518
917.268	14294
917.38	14412
917.491	14434
917.603	14454
917.715	14575
917.826	14545
917.938	14339
918.049	14214
918.161	14385
918.272	14594
918.384	14476
918.495	14366
918.606	14180
918.717	14183
918.828	14229
918.939	14210
919.05	14065
919.161	14134
919.272	14008
919.383	14039
919.494	14221
919.604	14347
919.715	14183
919.826	14107
919.936	14168
920.047	14191
920.157	14225
920.267	14294
920.378	14195
920.488	14065
920.598	14259
920.708	14446
920.818	14332
920.928	14347
921.038	14469
921.148	14484
921.258	14214
921.368	14046
921.477	13864
921.587	13997
921.697	13803
921.806	13864
921.916	13769
922.025	13499
922.134	13533
922.244	13544
922.353	13632
922.462	13384
922.571	13464
922.68	13312
922.789	13263
922.898	13198
923.007	13160
923.116	13194
923.224	13114
923.333	13244
923.442	13072
923.55	12989
923.659	13053
923.767	13141
923.876	12973
923.984	13019
924.092	12920
924.201	13004
924.309	12962
924.417	12920
924.525	12856
924.633	12939
924.741	13822
924.849	12760
924.956	12897
925.064	12642
925.172	12642
925.279	12669
925.387	12662
925.494	12582
925.602	12882
925.709	12707
925.816	12536
925.924	12578
926.031	12692
926.138	12521
926.245	12566
926.352	12479
926.459	12604
926.566	12582
926.673	12544
926.779	12414
926.886	12403
926.993	12243
927.099	12201
927.206	12209
927.312	12102
927.419	12308
927.525	12266
927.631	12258
927.737	12087
927.843	12091
927.95	11961
928.056	12098
928.162	12022
928.267	12129
928.373	12662
928.479	12110
928.585	11893
928.69	12057
928.796	12034
928.901	11916
929.007	11779
929.112	11836
929.218	11843
929.323	11851
929.428	11851
929.533	11961
929.638	11661
929.743	11722
929.848	11802
929.953	11699
930.058	11649
930.163	11448
930.267	11554
930.372	11676
930.477	11391
930.581	11642
930.685	11524
930.79	11376
930.894	11482
930.998	11421
931.103	11467
931.207	11090
931.311	11052
931.415	10972
931.519	10816
931.623	10763
