Data from test_V78500241_238.txt Node
Date: Fri Mar 25 15:11:31 CST 2022
User: usil
Spectrometer: V785-0024
Trigger mode: 0
Integration Time (sec): 4.000000E-1
Scans to average: 1
Nonlinearity correction enabled: false
Boxcar width: 0
Storing dark spectrum: false
XAxis mode: Wavelengths
Number of Pixels in Spectrum: 1024
>>>>>Begin Spectral Data<<<<<
801.071	27987
801.214	27914
801.356	27656
801.499	27614
801.641	27603
801.783	27511
801.926	27542
802.068	27534
802.211	27279
802.353	27340
802.496	27157
802.638	27165
802.78	27176
802.923	26944
803.065	26933
803.208	27100
803.35	27077
803.492	27176
803.635	27287
803.777	26975
803.919	27108
804.061	27526
804.204	27207
804.346	27211
804.488	27085
804.63	27020
804.773	27173
804.915	27058
805.057	27233
805.199	27131
805.341	27192
805.483	27218
805.626	27184
805.768	27195
805.91	27382
806.052	27332
806.194	27214
806.336	27462
806.478	27329
806.62	27272
806.762	27298
806.904	27542
807.046	27793
807.188	27595
807.33	27561
807.472	27804
807.614	27507
807.756	27568
807.898	27435
808.04	27485
808.182	27500
808.324	27374
808.465	27633
808.607	27595
808.749	27838
808.891	27949
809.033	28074
809.174	28006
809.316	27835
809.458	27770
809.6	27914
809.741	27975
809.883	27983
810.025	28120
810.166	28067
810.308	28101
810.45	28067
810.591	28021
810.733	27876
810.875	27679
811.016	27743
811.158	27652
811.299	27854
811.441	27869
811.582	27968
811.724	27869
811.865	27686
812.007	27637
812.148	27789
812.29	27812
812.431	27831
812.573	28078
812.714	28116
812.855	28318
812.997	28413
813.138	28481
813.279	28409
813.421	28371
813.562	28230
813.703	28051
813.845	27926
813.986	27679
814.127	27587
814.268	27564
814.41	27591
814.551	27363
814.692	27507
814.833	27344
814.974	27370
815.115	27355
815.256	27272
815.397	27325
815.539	27230
815.68	27218
815.821	27279
815.962	27146
816.103	27249
816.244	27055
816.385	27116
816.526	26948
816.666	26678
816.807	26689
816.948	26735
817.089	26754
817.23	26670
817.371	26659
817.512	26697
817.653	26659
817.793	26606
817.934	26609
818.075	26727
818.216	26659
818.356	26579
818.497	26518
818.638	26176
818.778	26336
818.919	26298
819.06	26328
819.2	26526
819.341	26507
819.481	26480
819.622	26788
819.762	26876
819.903	26861
820.043	26678
820.184	26731
820.324	26655
820.465	26689
820.605	26689
820.746	26636
820.886	26636
821.026	26693
821.167	26511
821.307	26701
821.447	26613
821.588	26571
821.728	26389
821.868	26278
822.008	26130
822.149	26088
822.289	25898
822.429	25655
822.569	25582
822.709	25723
822.849	25563
822.99	25620
823.13	25525
823.27	25415
823.41	25221
823.55	25183
823.69	25403
823.83	25339
823.97	25270
824.11	25038
824.25	24985
824.389	25072
824.529	25217
824.669	25103
824.809	25316
824.949	25225
825.089	25228
825.228	25095
825.368	24966
825.508	24973
825.648	24867
825.787	24920
825.927	25118
826.067	24989
826.206	25065
826.346	24989
826.485	24928
826.625	24935
826.765	25091
826.904	24916
827.044	24783
827.183	24757
827.323	24654
827.462	24665
827.601	24772
827.741	24597
827.88	24616
828.02	24574
828.159	24658
828.298	24635
828.437	24707
828.577	24692
828.716	24665
828.855	24601
828.994	24330
829.134	24380
829.273	24460
829.412	24384
829.551	24281
829.69	24330
829.829	24232
829.968	24365
830.107	24445
830.246	24323
830.385	24361
830.524	24209
830.663	24232
830.802	24030
830.941	24068
831.08	23980
831.219	24041
831.357	24049
831.496	24197
831.635	23988
831.774	23904
831.913	23828
832.051	23821
832.19	23733
832.329	23745
832.467	23573
832.606	23699
832.744	23600
832.883	23471
833.022	23722
833.16	23558
833.299	23653
833.437	23699
833.576	23619
833.714	23691
833.852	23695
833.991	23760
834.129	23752
834.267	23646
834.406	23600
834.544	23623
834.682	23623
834.821	23634
834.959	23729
835.097	23543
835.235	23649
835.373	23729
835.511	23733
835.65	23429
835.788	23512
835.926	23425
836.064	23269
836.202	23395
836.34	23474
836.478	23531
836.615	23467
836.753	23486
836.891	23577
837.029	23372
837.167	23334
837.305	23345
837.443	23383
837.58	23318
837.718	23372
837.856	23376
837.993	23250
838.131	23318
838.269	23200
838.406	23353
838.544	23246
838.681	22961
838.819	22923
838.956	22820
839.094	22797
839.231	22885
839.369	22949
839.506	23060
839.643	22961
839.781	22885
839.918	22672
840.055	22797
840.193	22744
840.33	22538
840.467	22603
840.604	22698
840.742	22987
840.879	22557
841.016	22489
841.153	22584
841.29	22672
841.427	22668
841.564	22698
841.701	22615
841.838	22615
841.975	22577
842.112	22622
842.249	22440
842.385	22329
842.522	22740
842.659	22512
842.796	22348
842.933	22432
843.069	22371
843.206	22306
843.343	22417
843.479	22489
843.616	22405
843.752	22143
843.889	22230
844.025	22348
844.162	22078
844.298	22147
844.435	22109
844.571	22090
844.708	22204
844.844	22280
844.98	22265
845.117	22322
845.253	22139
845.389	22010
845.525	22173
845.661	21972
845.798	21854
845.934	21865
846.07	21949
846.206	21816
846.342	21968
846.478	21907
846.614	21648
846.75	21587
846.886	21526
847.022	21797
847.158	21614
847.294	21614
847.429	21686
847.565	21648
847.701	21766
847.837	21435
847.972	21340
848.108	21348
848.244	21534
848.379	21233
848.515	21218
848.65	21180
848.786	21329
848.921	21310
849.057	21389
849.192	21233
849.328	21325
849.463	21283
849.598	21138
849.734	21195
849.869	20982
850.004	20880
850.14	20975
850.275	20982
850.41	20864
850.545	21017
850.68	20902
850.815	20868
850.95	20880
851.085	21081
851.22	20986
851.355	20895
851.49	20853
851.625	20944
851.76	20864
851.895	20883
852.03	20857
852.165	20910
852.299	20857
852.434	20990
852.569	20883
852.703	21047
852.838	21077
852.973	21013
853.107	21043
853.242	20925
853.376	20895
853.511	20716
853.645	20785
853.78	20872
853.914	20849
854.048	20773
854.183	20739
854.317	20819
854.451	20887
854.585	20735
854.72	20644
854.854	20804
854.988	20590
855.122	20724
855.256	20682
855.39	20750
855.524	20868
855.658	20777
855.792	20811
855.926	20781
856.06	20838
856.194	20800
856.327	20746
856.461	20625
856.595	20819
856.729	20796
856.862	20937
856.996	20674
857.13	20781
857.263	20830
857.397	20887
857.53	20724
857.664	20792
857.797	20800
857.931	21055
858.064	20613
858.197	20796
858.331	20781
858.464	20678
858.597	20644
858.731	20625
858.864	20625
858.997	20617
859.13	20746
859.263	20686
859.396	20834
859.529	20686
859.662	20579
859.795	20762
859.928	20651
860.061	20845
860.194	20933
860.327	20705
860.46	20678
860.592	20788
860.725	20872
860.858	20811
860.99	20682
861.123	20678
861.256	20571
861.388	20735
861.521	21321
861.653	20526
861.786	20518
861.918	20564
862.05	20606
862.183	20720
862.315	20636
862.447	20674
862.58	20686
862.712	20507
862.844	20366
862.976	20511
863.108	20602
863.24	20872
863.372	20244
863.504	20385
863.636	20419
863.768	20370
863.9	20484
864.032	20313
864.164	20377
864.296	20427
864.428	20492
864.559	20415
864.691	20400
864.823	20457
864.954	20336
865.086	20412
865.217	20374
865.349	20138
865.48	20278
865.612	20237
865.743	20446
865.875	20343
866.006	20278
866.137	20370
866.269	20218
866.4	20294
866.531	20313
866.662	20339
866.793	20130
866.924	20221
867.055	20362
867.186	20301
867.317	20172
867.448	20111
867.579	20195
867.71	20214
867.841	20229
867.972	20263
868.103	20290
868.233	20119
868.364	20187
868.495	20362
868.625	20431
868.756	20442
868.886	20503
869.017	20480
869.147	20583
869.278	20571
869.408	20514
869.539	20427
869.669	20530
869.799	20511
869.929	20613
870.06	20655
870.19	20667
870.32	20739
870.45	20773
870.58	20811
870.71	20899
870.84	21047
870.97	20792
871.1	20792
871.23	21116
871.36	21138
871.489	20902
871.619	21214
871.749	21089
871.879	21112
872.008	21138
872.138	21070
872.267	21005
872.397	20883
872.526	20804
872.656	20872
872.785	20956
872.915	21077
873.044	21169
873.173	21150
873.303	21074
873.432	21123
873.561	21199
873.69	21199
873.819	20944
873.948	21226
874.077	21188
874.206	21112
874.335	21093
874.464	21207
874.593	21469
874.722	21214
874.851	21367
874.979	21370
875.108	21428
875.237	21252
875.365	21157
875.494	21348
875.623	21367
875.751	21302
875.88	21340
876.008	21485
876.136	21504
876.265	21713
876.393	21793
876.521	21873
876.65	21720
876.778	21781
876.906	21587
877.034	21739
877.162	21747
877.29	21675
877.418	21698
877.546	21819
877.674	21682
877.802	21774
877.93	21637
878.058	21675
878.185	21622
878.313	21641
878.441	21667
878.568	21542
878.696	21606
878.824	21606
878.951	21728
879.079	21793
879.206	21956
879.333	21880
879.461	21728
879.588	21736
879.715	21705
879.842	21949
879.97	21762
880.097	21564
880.224	21545
880.351	21564
880.478	21561
880.605	21538
880.732	21538
880.859	21770
880.986	21549
881.112	21481
881.239	21325
881.366	21108
881.493	21241
881.619	21093
881.746	21161
881.872	21135
881.999	21188
882.125	21055
882.252	21058
882.378	21135
882.505	21180
882.631	21047
882.757	20815
882.883	21009
883.01	20804
883.136	20800
883.262	20727
883.388	20712
883.514	20918
883.64	20876
883.766	20762
883.892	20629
884.018	20564
884.143	20705
884.269	20777
884.395	20526
884.52	20503
884.646	20507
884.772	20404
884.897	20385
885.023	20427
885.148	20495
885.274	20617
885.399	20568
885.524	20526
885.65	20320
885.775	20461
885.9	20438
886.025	20667
886.15	20465
886.275	20484
886.4	20431
886.525	20396
886.65	20419
886.775	20389
886.9	20667
887.025	20674
887.149	20434
887.274	20309
887.399	20294
887.523	20278
887.648	20218
887.773	20161
887.897	20320
888.021	20263
888.146	20252
888.27	20252
888.395	20301
888.519	20275
888.643	20221
888.767	20309
888.891	20138
889.015	20043
889.139	20092
889.263	19967
889.387	20088
889.511	20149
889.635	20111
889.759	20126
889.883	20077
890.006	19967
890.13	20081
890.254	19830
890.377	19894
890.501	19643
890.624	19727
890.748	19723
890.871	19632
890.995	19487
891.118	19472
891.241	19567
891.364	19632
891.488	19772
891.611	19674
891.734	19556
891.857	19670
891.98	19552
892.103	19681
892.226	19643
892.349	19590
892.471	19510
892.594	19525
892.717	19499
892.839	19472
892.962	19525
893.085	19430
893.207	19521
893.33	19426
893.452	19472
893.575	19674
893.697	19544
893.819	19674
893.941	19712
894.064	19658
894.186	19495
894.308	19460
894.43	19597
894.552	19559
894.674	19601
894.796	19468
894.918	19556
895.04	19575
895.161	19518
895.283	19594
895.405	19491
895.526	19457
895.648	19487
895.769	19639
895.891	19537
896.012	19632
896.134	19628
896.255	19556
896.376	19609
896.498	19594
896.619	19594
896.74	19548
896.861	19575
896.982	19807
897.103	19989
897.224	19807
897.345	19951
897.466	19670
897.587	19712
897.708	19803
897.828	19727
897.949	19651
898.07	19681
898.19	19715
898.311	19776
898.431	19655
898.552	19784
898.672	19811
898.792	19826
898.913	19753
899.033	19632
899.153	19502
899.273	19441
899.393	19476
899.513	19487
899.633	19586
899.753	19537
899.873	19365
899.993	19529
900.113	19472
900.232	19369
900.352	19441
900.472	19320
900.591	19324
900.711	19327
900.83	19285
900.95	19381
901.069	19297
901.189	19247
901.308	19053
901.427	18787
901.546	18848
901.665	18973
901.784	18867
901.904	18798
902.023	18631
902.141	18414
902.26	18456
902.379	18551
902.498	18464
902.617	18429
902.735	18384
902.854	18311
902.973	18224
903.091	18087
903.21	18091
903.328	18083
903.446	17908
903.565	17893
903.683	17946
903.801	17726
903.919	17798
904.038	17851
904.156	17771
904.274	17665
904.392	17661
904.51	17630
904.627	17680
904.745	17573
904.863	17600
904.981	17512
905.098	17387
905.216	17330
905.334	17239
905.451	17376
905.569	17280
905.686	17360
905.803	17292
905.921	17029
906.038	17159
906.155	17086
906.272	16965
906.389	17048
906.506	16873
906.623	16843
906.74	16797
906.857	16801
906.974	16805
907.091	16835
907.208	16991
907.324	16835
907.441	16752
907.557	16504
907.674	16500
907.79	16535
907.907	16584
908.023	16679
908.139	16512
908.256	16565
908.372	16398
908.488	16314
908.604	16261
908.72	16204
908.836	16303
908.952	16147
909.068	16337
909.184	16276
909.3	16325
909.415	16306
909.531	16215
909.647	16071
909.762	15979
909.878	15884
909.993	15972
910.108	15880
910.224	15903
910.339	15941
910.454	15808
910.57	15789
910.685	15591
910.8	15968
910.915	15899
911.03	15682
911.145	15473
911.259	15599
911.374	15564
911.489	15595
911.604	15420
911.718	15252
911.833	15272
911.947	15226
912.062	15180
912.176	15287
912.291	15252
912.405	15211
912.519	15428
912.633	15469
912.748	15329
912.862	15275
912.976	15169
913.09	15047
913.204	14982
913.318	15116
913.431	15237
913.545	15256
913.659	15176
913.772	15028
913.886	14952
914	14902
914.113	14994
914.226	15093
914.34	14891
914.453	14876
914.566	14982
914.68	14804
914.793	14804
914.906	14610
915.019	14564
915.132	14526
915.245	14522
915.358	14568
915.47	14537
915.583	14454
915.696	14598
915.809	14636
915.921	14632
916.034	14377
916.146	14408
916.259	14473
916.371	14651
916.483	14465
916.595	14438
916.708	14229
916.82	14419
916.932	14347
917.044	14396
917.156	14278
917.268	14225
917.38	14210
917.491	14221
917.603	14271
917.715	14358
917.826	14355
917.938	14225
918.049	14134
918.161	14130
918.272	14290
918.384	14282
918.495	14081
918.606	13993
918.717	13974
918.828	14031
918.939	14020
919.05	13951
919.161	13978
919.272	13719
919.383	13833
919.494	14027
919.604	14176
919.715	13940
919.826	13799
919.936	13879
920.047	14039
920.157	13982
920.267	14126
920.378	14005
920.488	13959
920.598	14103
920.708	14240
920.818	14084
920.928	14065
921.038	14309
921.148	14183
921.258	13959
921.368	13818
921.477	13738
921.587	13765
921.697	13525
921.806	13658
921.916	13594
922.025	13419
922.134	13320
922.244	13217
922.353	13339
922.462	13244
922.571	13209
922.68	13000
922.789	12993
922.898	12989
923.007	12939
923.116	13069
923.224	12977
923.333	12958
923.442	12825
923.55	12787
923.659	12856
923.767	12913
923.876	12722
923.984	12802
924.092	12711
924.201	12741
924.309	12711
924.417	12749
924.525	12631
924.633	12616
924.741	13434
924.849	12456
924.956	12593
925.064	12395
925.172	12342
925.279	12429
925.387	12486
925.494	12448
925.602	12506
925.709	12418
925.816	12369
925.924	12353
926.031	12452
926.138	12327
926.245	12448
926.352	12330
926.459	12464
926.566	12467
926.673	12300
926.779	12167
926.886	12194
926.993	11992
927.099	12015
927.206	11901
927.312	11935
927.419	12076
927.525	11996
927.631	12022
927.737	11942
927.843	11832
927.95	11676
928.056	11764
928.162	11847
928.267	11786
928.373	12350
928.479	11912
928.585	11718
928.69	11821
928.796	11855
928.901	11741
929.007	11566
929.112	11710
929.218	11672
929.323	11543
929.428	11554
929.533	11748
929.638	11490
929.743	11562
929.848	11592
929.953	11512
930.058	11360
930.163	11216
930.267	11231
930.372	11353
930.477	11265
930.581	11482
930.685	11265
930.79	11121
930.894	11155
930.998	11143
931.103	11284
931.207	10847
931.311	10862
931.415	10809
931.519	10592
931.623	10462
