Data from test_V78500241_171.txt Node
Date: Fri Mar 25 15:11:03 CST 2022
User: usil
Spectrometer: V785-0024
Trigger mode: 0
Integration Time (sec): 4.000000E-1
Scans to average: 1
Nonlinearity correction enabled: false
Boxcar width: 0
Storing dark spectrum: false
XAxis mode: Wavelengths
Number of Pixels in Spectrum: 1024
>>>>>Begin Spectral Data<<<<<
801.071	27907
801.214	27850
801.356	27759
801.499	27576
801.641	27557
801.783	27462
801.926	27477
802.068	27408
802.211	27374
802.353	27359
802.496	27135
802.638	27180
802.78	27138
802.923	27157
803.065	26956
803.208	26895
803.35	27055
803.492	27211
803.635	27169
803.777	27222
803.919	27279
804.061	27583
804.204	27230
804.346	27195
804.488	27074
804.63	27184
804.773	26895
804.915	27108
805.057	27268
805.199	27165
805.341	27264
805.483	27180
805.626	27214
805.768	27138
805.91	27165
806.052	27340
806.194	27245
806.336	27447
806.478	27272
806.62	27131
806.762	27363
806.904	27526
807.046	27705
807.188	27580
807.33	27705
807.472	27583
807.614	27431
807.756	27485
807.898	27420
808.04	27481
808.182	27382
808.324	27526
808.465	27458
808.607	27698
808.749	27724
808.891	27835
809.033	28070
809.174	27888
809.316	27914
809.458	27899
809.6	27694
809.741	27835
809.883	27888
810.025	28010
810.166	28154
810.308	28055
810.45	28029
810.591	27953
810.733	27831
810.875	27705
811.016	27679
811.158	27587
811.299	27766
811.441	27861
811.582	27812
811.724	27671
811.865	27644
812.007	27751
812.148	27747
812.29	27717
812.431	27930
812.573	28101
812.714	28131
812.855	28173
812.997	28344
813.138	28580
813.279	28333
813.421	28219
813.562	28314
813.703	27994
813.845	27987
813.986	27854
814.127	27511
814.268	27291
814.41	27355
814.551	27302
814.692	27359
814.833	27268
814.974	27378
815.115	27203
815.256	27287
815.397	27306
815.539	27119
815.68	27055
815.821	27161
815.962	27157
816.103	27089
816.244	26956
816.385	26868
816.526	26792
816.666	26678
816.807	26560
816.948	26507
817.089	26667
817.23	26583
817.371	26442
817.512	26602
817.653	26609
817.793	26579
817.934	26659
818.075	26568
818.216	26579
818.356	26412
818.497	26358
818.638	26180
818.778	26263
818.919	26233
819.06	26408
819.2	26237
819.341	26450
819.481	26484
819.622	26705
819.762	26796
819.903	26678
820.043	26583
820.184	26556
820.324	26469
820.465	26598
820.605	26492
820.746	26575
820.886	26461
821.026	26522
821.167	26465
821.307	26549
821.447	26393
821.588	26396
821.728	26263
821.868	26046
822.008	25921
822.149	25936
822.289	25921
822.429	25738
822.569	25609
822.709	25575
822.849	25381
822.99	25438
823.13	25331
823.27	25411
823.41	25221
823.55	25206
823.69	25232
823.83	25263
823.97	25236
824.11	24951
824.25	24989
824.389	25046
824.529	25114
824.669	24954
824.809	25179
824.949	25000
825.089	25065
825.228	25110
825.368	24947
825.508	24939
825.648	24852
825.787	24859
825.927	24928
826.067	24810
826.206	24817
826.346	24802
826.485	24783
826.625	24829
826.765	24928
826.904	24779
827.044	24490
827.183	24559
827.323	24578
827.462	24536
827.601	24445
827.741	24578
827.88	24528
828.02	24445
828.159	24490
828.298	24441
828.437	24407
828.577	24441
828.716	24403
828.855	24384
828.994	24266
829.134	24186
829.273	24159
829.412	24254
829.551	24152
829.69	24197
829.829	24338
829.968	24327
830.107	24281
830.246	24106
830.385	24068
830.524	24140
830.663	23908
830.802	23882
830.941	23611
831.08	23627
831.219	23840
831.357	23847
831.496	23893
831.635	23695
831.774	23760
831.913	23718
832.051	23535
832.19	23520
832.329	23543
832.467	23528
832.606	23395
832.744	23448
832.883	23452
833.022	23307
833.16	23364
833.299	23429
833.437	23421
833.576	23524
833.714	23311
833.852	23497
833.991	23516
834.129	23672
834.267	23512
834.406	23463
834.544	23299
834.682	23368
834.821	23208
834.959	23657
835.097	23356
835.235	23452
835.373	23391
835.511	23421
835.65	23235
835.788	23277
835.926	23121
836.064	23178
836.202	23147
836.34	23280
836.478	23379
836.615	23254
836.753	23231
836.891	23356
837.029	23296
837.167	23181
837.305	23159
837.443	23052
837.58	23208
837.718	23113
837.856	23121
837.993	23075
838.131	23044
838.269	22930
838.406	22949
838.544	22934
838.681	22733
838.819	22622
838.956	22417
839.094	22459
839.231	22523
839.369	22672
839.506	22915
839.643	22752
839.781	22592
839.918	22424
840.055	22428
840.193	22424
840.33	22386
840.467	22497
840.604	22584
840.742	22721
840.879	22443
841.016	22432
841.153	22390
841.29	22497
841.427	22417
841.564	22466
841.701	22363
841.838	22409
841.975	22322
842.112	22280
842.249	22261
842.385	22036
842.522	22375
842.659	22314
842.796	22105
842.933	22173
843.069	22036
843.206	22097
843.343	22169
843.479	22169
843.616	22188
843.752	21987
843.889	21949
844.025	22044
844.162	21911
844.298	22048
844.435	21876
844.571	21850
844.708	22002
844.844	22070
844.98	22105
845.117	21960
845.253	21819
845.389	21797
845.525	21869
845.661	21732
845.798	21743
845.934	21732
846.07	21660
846.206	21660
846.342	21812
846.478	21724
846.614	21378
846.75	21329
846.886	21382
847.022	21534
847.158	21530
847.294	21393
847.429	21443
847.565	21408
847.701	21641
847.837	21157
847.972	21066
848.108	21230
848.244	21116
848.379	20918
848.515	21001
848.65	20918
848.786	20849
848.921	20925
849.057	21104
849.192	20986
849.328	20933
849.463	20918
849.598	20948
849.734	20891
849.869	20785
850.004	20758
850.14	20693
850.275	20720
850.41	20689
850.545	20644
850.68	20701
850.815	20644
850.95	20746
851.085	20990
851.22	20872
851.355	20724
851.49	20667
851.625	20663
851.76	20636
851.895	20621
852.03	20522
852.165	20693
852.299	20769
852.434	20727
852.569	20735
852.703	20556
852.838	20693
852.973	20876
853.107	20838
853.242	20598
853.376	20533
853.511	20461
853.645	20385
853.78	20659
853.914	20313
854.048	20602
854.183	20499
854.317	20522
854.451	20617
854.585	20419
854.72	20495
854.854	20587
854.988	20427
855.122	20609
855.256	20339
855.39	20526
855.524	20541
855.658	20488
855.792	20446
855.926	20518
856.06	20594
856.194	20537
856.327	20351
856.461	20484
856.595	20495
856.729	20484
856.862	20583
856.996	20499
857.13	20575
857.263	20419
857.397	20568
857.53	20438
857.664	20423
857.797	20511
857.931	20545
858.064	20590
858.197	20602
858.331	20495
858.464	20374
858.597	20358
858.731	20423
858.864	20305
858.997	20343
859.13	20522
859.263	20450
859.396	20423
859.529	20404
859.662	20347
859.795	20400
859.928	20404
860.061	20609
860.194	20571
860.327	20385
860.46	20480
860.592	20598
860.725	20583
860.858	20594
860.99	20507
861.123	20389
861.256	20351
861.388	20362
861.521	21055
861.653	20225
861.786	20153
861.918	20282
862.05	20412
862.183	20457
862.315	20526
862.447	20473
862.58	20385
862.712	20256
862.844	20069
862.976	20210
863.108	20210
863.24	20564
863.372	20039
863.504	20142
863.636	20153
863.768	20134
863.9	20020
864.032	19955
864.164	20031
864.296	20168
864.428	20111
864.559	20256
864.691	20161
864.823	20183
864.954	20157
865.086	20161
865.217	20065
865.349	19970
865.48	20073
865.612	20016
865.743	20199
865.875	20031
866.006	19868
866.137	20005
866.269	19982
866.4	19989
866.531	20065
866.662	19841
866.793	20164
866.924	20008
867.055	19936
867.186	20103
867.317	19902
867.448	19807
867.579	19841
867.71	19913
867.841	19902
867.972	20020
868.103	20058
868.233	19849
868.364	19963
868.495	20107
868.625	20282
868.756	20278
868.886	20168
869.017	20119
869.147	20237
869.278	20271
869.408	20305
869.539	20237
869.669	20336
869.799	20157
869.929	20324
870.06	20324
870.19	20541
870.32	20507
870.45	20522
870.58	20590
870.71	20701
870.84	20686
870.97	20606
871.1	20549
871.23	20815
871.36	20731
871.489	20621
871.619	20769
871.749	20842
871.879	20705
872.008	20880
872.138	20842
872.267	20769
872.397	20724
872.526	20590
872.656	20674
872.785	20594
872.915	20937
873.044	20826
873.173	20750
873.303	20933
873.432	20731
873.561	20933
873.69	20830
873.819	20743
873.948	21024
874.077	20826
874.206	20769
874.335	20769
874.464	20948
874.593	21116
874.722	21043
874.851	21150
874.979	21157
875.108	21176
875.237	21032
875.365	20925
875.494	21154
875.623	21214
875.751	21085
875.88	21138
876.008	21218
876.136	21245
876.265	21363
876.393	21679
876.521	21515
876.65	21424
876.778	21359
876.906	21408
877.034	21428
877.162	21462
877.29	21412
877.418	21485
877.546	21374
877.674	21462
877.802	21363
877.93	21458
878.058	21313
878.185	21268
878.313	21393
878.441	21363
878.568	21287
878.696	21298
878.824	21382
878.951	21492
879.079	21679
879.206	21705
879.333	21538
879.461	21435
879.588	21530
879.715	21534
879.842	21633
879.97	21568
880.097	21283
880.224	21142
880.351	21272
880.478	21195
880.605	21108
880.732	21233
880.859	21454
880.986	21233
881.112	21241
881.239	21039
881.366	20796
881.493	20830
881.619	20880
881.746	20963
881.872	20872
881.999	20914
882.125	20705
882.252	20944
882.378	20842
882.505	20895
882.631	20697
882.757	20705
882.883	20575
883.01	20632
883.136	20533
883.262	20568
883.388	20317
883.514	20568
883.64	20674
883.766	20495
883.892	20408
884.018	20301
884.143	20583
884.269	20545
884.395	20221
884.52	20252
884.646	20176
884.772	20191
884.897	20149
885.023	20157
885.148	20301
885.274	20362
885.399	20305
885.524	20161
885.65	20206
885.775	20183
885.9	20088
886.025	20438
886.15	20282
886.275	20077
886.4	20081
886.525	20187
886.65	20134
886.775	20084
886.9	20301
887.025	20396
887.149	20111
887.274	19963
887.399	19890
887.523	19982
887.648	19791
887.773	19913
887.897	20096
888.021	19951
888.146	19868
888.27	20134
888.395	20054
888.519	19970
888.643	20024
888.767	19909
888.891	19807
889.015	19753
889.139	19887
889.263	19841
889.387	19887
889.511	19928
889.635	19776
889.759	19731
889.883	19753
890.006	19769
890.13	19860
890.254	19571
890.377	19639
890.501	19514
890.624	19506
890.748	19533
890.871	19419
890.995	19377
891.118	19308
891.241	19278
891.364	19373
891.488	19521
891.611	19251
891.734	19362
891.857	19464
891.98	19312
892.103	19415
892.226	19369
892.349	19346
892.471	19152
892.594	19335
892.717	19289
892.839	19301
892.962	19247
893.085	19259
893.207	19263
893.33	19107
893.452	19293
893.575	19293
893.697	19247
893.819	19392
893.941	19476
894.064	19449
894.186	19209
894.308	19187
894.43	19263
894.552	19468
894.674	19324
894.796	19304
894.918	19213
895.04	19331
895.161	19228
895.283	19373
895.405	19225
895.526	19244
895.648	19282
895.769	19327
895.891	19293
896.012	19430
896.134	19350
896.255	19308
896.376	19228
896.498	19236
896.619	19293
896.74	19251
896.861	19358
896.982	19578
897.103	19738
897.224	19613
897.345	19525
897.466	19472
897.587	19521
897.708	19727
897.828	19620
897.949	19563
898.07	19388
898.19	19365
898.311	19499
898.431	19426
898.552	19422
898.672	19514
898.792	19510
898.913	19529
899.033	19396
899.153	19343
899.273	19225
899.393	19183
899.513	19285
899.633	19209
899.753	19285
899.873	19274
899.993	19263
900.113	19217
900.232	19301
900.352	19244
900.472	19019
900.591	19080
900.711	19088
900.83	19015
900.95	19171
901.069	19095
901.189	18909
901.308	18810
901.427	18635
901.546	18741
901.665	18665
901.784	18620
901.904	18490
902.023	18357
902.141	18270
902.26	18216
902.379	18304
902.498	18159
902.617	18057
902.735	18136
902.854	18083
902.973	18117
903.091	17783
903.21	17783
903.328	17863
903.446	17764
903.565	17600
903.683	17627
903.801	17471
903.919	17627
904.038	17554
904.156	17436
904.274	17524
904.392	17505
904.51	17425
904.627	17387
904.745	17463
904.863	17452
904.981	17181
905.098	17014
905.216	16927
905.334	17140
905.451	17086
905.569	17018
905.686	17220
905.803	17162
905.921	16908
906.038	16961
906.155	16831
906.272	16759
906.389	16854
906.506	16554
906.623	16637
906.74	16679
906.857	16535
906.974	16565
907.091	16733
907.208	16691
907.324	16596
907.441	16443
907.557	16402
907.674	16436
907.79	16253
907.907	16268
908.023	16337
908.139	16329
908.256	16299
908.372	16192
908.488	16249
908.604	16128
908.72	15953
908.836	15930
908.952	16002
909.068	16010
909.184	16181
909.3	16029
909.415	15960
909.531	16002
909.647	15781
909.762	15747
909.878	15675
909.993	15766
910.108	15759
910.224	15644
910.339	15679
910.454	15561
910.57	15557
910.685	15523
910.8	15770
910.915	15618
911.03	15542
911.145	15428
911.259	15192
911.374	15173
911.489	15389
911.604	15211
911.718	15013
911.833	15051
911.947	14895
912.062	14921
912.176	15013
912.291	14998
912.405	14952
912.519	15112
912.633	15188
912.748	15070
912.862	14963
912.976	14906
913.09	14762
913.204	14971
913.318	14979
913.431	14998
913.545	14899
913.659	15039
913.772	14861
913.886	14659
914	14655
914.113	14769
914.226	14800
914.34	14769
914.453	14632
914.566	14716
914.68	14621
914.793	14480
914.906	14393
915.019	14332
915.132	14294
915.245	14366
915.358	14374
915.47	14332
915.583	14484
915.696	14446
915.809	14404
915.921	14473
916.034	14218
916.146	14336
916.259	14259
916.371	14305
916.483	14298
916.595	14142
916.708	14164
916.82	14237
916.932	14195
917.044	14058
917.156	14084
917.268	13982
917.38	14054
917.491	13997
917.603	13974
917.715	14111
917.826	14107
917.938	13925
918.049	13822
918.161	13932
918.272	14107
918.384	14043
918.495	13940
918.606	13795
918.717	13757
918.828	13818
918.939	13883
919.05	13670
919.161	13746
919.272	13609
919.383	13685
919.494	13765
919.604	14008
919.715	13761
919.826	13696
919.936	13693
920.047	13788
920.157	13750
920.267	13887
920.378	13864
920.488	13696
920.598	13932
920.708	14054
920.818	13913
920.928	13955
921.038	14020
921.148	13951
921.258	13712
921.368	13700
921.477	13571
921.587	13468
921.697	13335
921.806	13460
921.916	13316
922.025	13156
922.134	13107
922.244	13118
922.353	13069
922.462	13000
922.571	12951
922.68	12920
922.789	12840
922.898	12677
923.007	12703
923.116	12749
923.224	12844
923.333	12684
923.442	12551
923.55	12604
923.659	12681
923.767	12658
923.876	12547
923.984	12627
924.092	12502
924.201	12513
924.309	12574
924.417	12566
924.525	12506
924.633	12407
924.741	13225
924.849	12228
924.956	12506
925.064	12300
925.172	12186
925.279	12178
925.387	12209
925.494	12247
925.602	12342
925.709	12319
925.816	12159
925.924	12167
926.031	12334
926.138	12209
926.245	12273
926.352	12038
926.459	12330
926.566	12308
926.673	12095
926.779	12049
926.886	12026
926.993	11870
927.099	11836
927.206	11885
927.312	11767
927.419	11847
927.525	11779
927.631	11840
927.737	11707
927.843	11691
927.95	11493
928.056	11684
928.162	11630
928.267	11642
928.373	12235
928.479	11767
928.585	11554
928.69	11638
928.796	11710
928.901	11512
929.007	11387
929.112	11627
929.218	11581
929.323	11459
929.428	11395
929.533	11493
929.638	11330
929.743	11376
929.848	11463
929.953	11379
930.058	11288
930.163	11090
930.267	11121
930.372	11204
930.477	11037
930.581	11246
930.685	11117
930.79	10930
930.894	11090
930.998	10987
931.103	11109
931.207	10736
931.311	10664
931.415	10569
931.519	10390
931.623	10432
