Data from test_V78500241_318.txt Node
Date: Fri Mar 25 15:12:04 CST 2022
User: usil
Spectrometer: V785-0024
Trigger mode: 0
Integration Time (sec): 4.000000E-1
Scans to average: 1
Nonlinearity correction enabled: false
Boxcar width: 0
Storing dark spectrum: false
XAxis mode: Wavelengths
Number of Pixels in Spectrum: 1024
>>>>>Begin Spectral Data<<<<<
801.071	27694
801.214	27603
801.356	27321
801.499	27355
801.641	27173
801.783	27233
801.926	27279
802.068	27211
802.211	27207
802.353	27146
802.496	26967
802.638	27058
802.78	26849
802.923	26788
803.065	26765
803.208	26838
803.35	26872
803.492	27001
803.635	26914
803.777	26887
803.919	26948
804.061	27355
804.204	26963
804.346	26880
804.488	26895
804.63	27093
804.773	26876
804.915	27039
805.057	27211
805.199	27036
805.341	27039
805.483	27146
805.626	27104
805.768	27009
805.91	27108
806.052	27184
806.194	27017
806.336	27310
806.478	27077
806.62	27051
806.762	27241
806.904	27420
807.046	27610
807.188	27408
807.33	27340
807.472	27507
807.614	27427
807.756	27397
807.898	27272
808.04	27146
808.182	27260
808.324	27283
808.465	27268
808.607	27340
808.749	27519
808.891	27762
809.033	27865
809.174	27675
809.316	27583
809.458	27808
809.6	27717
809.741	27755
809.883	27713
810.025	27979
810.166	27907
810.308	27892
810.45	27880
810.591	27800
810.733	27804
810.875	27679
811.016	27443
811.158	27485
811.299	27481
811.441	27778
811.582	27564
811.724	27633
811.865	27443
812.007	27606
812.148	27595
812.29	27675
812.431	27835
812.573	27808
812.714	27975
812.855	28090
812.997	28291
813.138	28401
813.279	28348
813.421	28284
813.562	27956
813.703	27937
813.845	27918
813.986	27545
814.127	27336
814.268	27325
814.41	27275
814.551	27310
814.692	27317
814.833	27226
814.974	27199
815.115	27306
815.256	27165
815.397	27093
815.539	27146
815.68	27142
815.821	26952
815.962	27116
816.103	26937
816.244	26834
816.385	26750
816.526	26716
816.666	26568
816.807	26431
816.948	26735
817.089	26629
817.23	26689
817.371	26495
817.512	26488
817.653	26453
817.793	26590
817.934	26419
818.075	26499
818.216	26606
818.356	26434
818.497	26271
818.638	26202
818.778	26164
818.919	26252
819.06	26259
819.2	26374
819.341	26514
819.481	26522
819.622	26697
819.762	26842
819.903	26769
820.043	26594
820.184	26587
820.324	26613
820.465	26571
820.605	26606
820.746	26560
820.886	26453
821.026	26552
821.167	26453
821.307	26590
821.447	26457
821.588	26237
821.728	26412
821.868	26149
822.008	25974
822.149	25906
822.289	25913
822.429	25647
822.569	25666
822.709	25487
822.849	25499
822.99	25521
823.13	25426
823.27	25343
823.41	25179
823.55	25164
823.69	25050
823.83	25221
823.97	25152
824.11	25080
824.25	24989
824.389	24848
824.529	25061
824.669	25084
824.809	25225
824.949	25141
825.089	25187
825.228	25069
825.368	24977
825.508	24886
825.648	24939
825.787	24798
825.927	24875
826.067	24810
826.206	24882
826.346	24837
826.485	24947
826.625	25046
826.765	24935
826.904	24973
827.044	24715
827.183	24654
827.323	24475
827.462	24658
827.601	24483
827.741	24471
827.88	24616
828.02	24460
828.159	24551
828.298	24639
828.437	24604
828.577	24555
828.716	24582
828.855	24502
828.994	24228
829.134	24190
829.273	24304
829.412	24399
829.551	24224
829.69	24376
829.829	24224
829.968	24300
830.107	24315
830.246	24330
830.385	24258
830.524	24098
830.663	24232
830.802	23908
830.941	23779
831.08	23866
831.219	23870
831.357	23916
831.496	24049
831.635	23859
831.774	23741
831.913	23790
832.051	23817
832.19	23668
832.329	23661
832.467	23539
832.606	23577
832.744	23554
832.883	23608
833.022	23627
833.16	23581
833.299	23737
833.437	23596
833.576	23608
833.714	23646
833.852	23630
833.991	23649
834.129	23783
834.267	23710
834.406	23703
834.544	23623
834.682	23676
834.821	23615
834.959	23668
835.097	23512
835.235	23680
835.373	23691
835.511	23547
835.65	23311
835.788	23353
835.926	23280
836.064	23246
836.202	23296
836.34	23455
836.478	23482
836.615	23440
836.753	23440
836.891	23512
837.029	23440
837.167	23356
837.305	23406
837.443	23387
837.58	23322
837.718	23334
837.856	23250
837.993	23189
838.131	23235
838.269	23121
838.406	23239
838.544	23113
838.681	22915
838.819	22927
838.956	22748
839.094	22713
839.231	22866
839.369	22927
839.506	23170
839.643	22972
839.781	22752
839.918	22641
840.055	22752
840.193	22626
840.33	22645
840.467	22843
840.604	22702
840.742	22881
840.879	22546
841.016	22580
841.153	22493
841.29	22759
841.427	22554
841.564	22618
841.701	22451
841.838	22664
841.975	22516
842.112	22596
842.249	22394
842.385	22390
842.522	22668
842.659	22329
842.796	22360
842.933	22428
843.069	22371
843.206	22367
843.343	22356
843.479	22402
843.616	22398
843.752	22242
843.889	22337
844.025	22188
844.162	22116
844.298	22337
844.435	22162
844.571	22006
844.708	22207
844.844	22246
844.98	22322
845.117	22166
845.253	22078
845.389	22051
845.525	22021
845.661	22032
845.798	21846
845.934	21953
846.07	21873
846.206	21892
846.342	21998
846.478	21861
846.614	21576
846.75	21595
846.886	21739
847.022	21789
847.158	21553
847.294	21682
847.429	21595
847.565	21568
847.701	21774
847.837	21485
847.972	21412
848.108	21401
848.244	21450
848.379	21249
848.515	21310
848.65	21051
848.786	21123
848.921	21218
849.057	21321
849.192	21260
849.328	21325
849.463	21252
849.598	21127
849.734	21089
849.869	21055
850.004	20952
850.14	20994
850.275	21032
850.41	20929
850.545	20963
850.68	20986
850.815	20994
850.95	20880
851.085	21055
851.22	21017
851.355	21077
851.49	20952
851.625	20880
851.76	20925
851.895	20769
852.03	20872
852.165	20963
852.299	21001
852.434	21100
852.569	20941
852.703	21032
852.838	21123
852.973	21062
853.107	21062
853.242	20842
853.376	20792
853.511	20636
853.645	20712
853.78	20796
853.914	20708
854.048	20739
854.183	20758
854.317	20845
854.451	20902
854.585	20697
854.72	20716
854.854	20845
854.988	20682
855.122	20811
855.256	20571
855.39	20762
855.524	20899
855.658	20739
855.792	20693
855.926	20834
856.06	20872
856.194	20697
856.327	20792
856.461	20712
856.595	20674
856.729	20750
856.862	20853
856.996	20807
857.13	20823
857.263	20918
857.397	20781
857.53	20838
857.664	20948
857.797	20792
857.931	20933
858.064	20819
858.197	20933
858.331	20724
858.464	20720
858.597	20689
858.731	20750
858.864	20674
858.997	20705
859.13	20823
859.263	20754
859.396	20804
859.529	20659
859.662	20735
859.795	20625
859.928	20762
860.061	20933
860.194	20979
860.327	20781
860.46	20625
860.592	20712
860.725	20906
860.858	20895
860.99	20773
861.123	20613
861.256	20720
861.388	20754
861.521	21249
861.653	20678
861.786	20594
861.918	20537
862.05	20648
862.183	20648
862.315	20777
862.447	20838
862.58	20644
862.712	20347
862.844	20389
862.976	20499
863.108	20579
863.24	20883
863.372	20419
863.504	20457
863.636	20408
863.768	20598
863.9	20412
864.032	20423
864.164	20396
864.296	20514
864.428	20469
864.559	20492
864.691	20537
864.823	20427
864.954	20602
865.086	20533
865.217	20400
865.349	20347
865.48	20385
865.612	20423
865.743	20488
865.875	20309
866.006	20351
866.137	20313
866.269	20290
866.4	20366
866.531	20370
866.662	20301
866.793	20298
866.924	20263
867.055	20229
867.186	20332
867.317	20187
867.448	20119
867.579	20362
867.71	20218
867.841	20244
867.972	20328
868.103	20328
868.233	20278
868.364	20267
868.495	20396
868.625	20522
868.756	20606
868.886	20583
869.017	20461
869.147	20640
869.278	20640
869.408	20564
869.539	20564
869.669	20549
869.799	20640
869.929	20590
870.06	20708
870.19	20891
870.32	20773
870.45	20804
870.58	20914
870.71	21028
870.84	21039
870.97	20876
871.1	20998
871.23	21032
871.36	21169
871.489	20986
871.619	20986
871.749	21013
871.879	21161
872.008	21157
872.138	21100
872.267	21100
872.397	21085
872.526	20727
872.656	20868
872.785	20906
872.915	21260
873.044	21138
873.173	21104
873.303	21211
873.432	21203
873.561	21176
873.69	21260
873.819	21176
873.948	21169
874.077	21230
874.206	21039
874.335	21157
874.464	21287
874.593	21420
874.722	21313
874.851	21363
874.979	21443
875.108	21515
875.237	21332
875.365	21332
875.494	21306
875.623	21488
875.751	21313
875.88	21382
876.008	21496
876.136	21686
876.265	21625
876.393	21937
876.521	21899
876.65	21850
876.778	21793
876.906	21816
877.034	21660
877.162	21709
877.29	21759
877.418	21831
877.546	21701
877.674	21686
877.802	21766
877.93	21785
878.058	21816
878.185	21679
878.313	21652
878.441	21793
878.568	21625
878.696	21694
878.824	21603
878.951	21705
879.079	21884
879.206	21991
879.333	21884
879.461	21766
879.588	21785
879.715	21873
879.842	21941
879.97	21781
880.097	21618
880.224	21519
880.351	21644
880.478	21629
880.605	21393
880.732	21564
880.859	21797
880.986	21511
881.112	21644
881.239	21473
881.366	21325
881.493	21222
881.619	21222
881.746	21207
881.872	21131
881.999	21058
882.125	21100
882.252	21203
882.378	21127
882.505	21241
882.631	21154
882.757	20929
882.883	20918
883.01	20823
883.136	20921
883.262	20826
883.388	20735
883.514	20830
883.64	20906
883.766	20765
883.892	20663
884.018	20587
884.143	20701
884.269	21066
884.395	20670
884.52	20495
884.646	20552
884.772	20385
884.897	20358
885.023	20556
885.148	20568
885.274	20598
885.399	20670
885.524	20545
885.65	20427
885.775	20499
885.9	20484
886.025	20644
886.15	20602
886.275	20355
886.4	20377
886.525	20419
886.65	20393
886.775	20339
886.9	20488
887.025	20785
887.149	20476
887.274	20225
887.399	20415
887.523	20275
887.648	20115
887.773	20130
887.897	20381
888.021	20271
888.146	20301
888.27	20385
888.395	20332
888.519	20218
888.643	20431
888.767	20240
888.891	20202
889.015	20050
889.139	20142
889.263	20062
889.387	20187
889.511	20244
889.635	20172
889.759	20027
889.883	20050
890.006	20027
890.13	20020
890.254	19951
890.377	19989
890.501	19772
890.624	19814
890.748	19852
890.871	19742
890.995	19700
891.118	19609
891.241	19548
891.364	19681
891.488	19799
891.611	19685
891.734	19685
891.857	19765
891.98	19609
892.103	19681
892.226	19666
892.349	19677
892.471	19377
892.594	19567
892.717	19529
892.839	19400
892.962	19643
893.085	19601
893.207	19666
893.33	19362
893.452	19419
893.575	19499
893.697	19476
893.819	19655
893.941	19803
894.064	19715
894.186	19525
894.308	19434
894.43	19731
894.552	19734
894.674	19582
894.796	19457
894.918	19639
895.04	19544
895.161	19616
895.283	19616
895.405	19449
895.526	19582
895.648	19548
895.769	19476
895.891	19605
896.012	19689
896.134	19563
896.255	19689
896.376	19441
896.498	19632
896.619	19635
896.74	19556
896.861	19620
896.982	19989
897.103	20191
897.224	19791
897.345	19830
897.466	19788
897.587	19731
897.708	19818
897.828	19818
897.949	19685
898.07	19525
898.19	19639
898.311	19890
898.431	19693
898.552	19776
898.672	19913
898.792	19772
898.913	19887
899.033	19635
899.153	19563
899.273	19419
899.393	19499
899.513	19575
899.633	19605
899.753	19662
899.873	19460
899.993	19567
900.113	19426
900.232	19506
900.352	19438
900.472	19362
900.591	19263
900.711	19350
900.83	19308
900.95	19396
901.069	19358
901.189	19225
901.308	19019
901.427	18973
901.546	18886
901.665	18932
901.784	18932
901.904	18749
902.023	18627
902.141	18517
902.26	18521
902.379	18369
902.498	18441
902.617	18346
902.735	18506
902.854	18384
902.973	18266
903.091	18049
903.21	18121
903.328	17984
903.446	18003
903.565	17901
903.683	17977
903.801	17828
903.919	17878
904.038	17912
904.156	17756
904.274	17764
904.392	17680
904.51	17733
904.627	17642
904.745	17668
904.863	17783
904.981	17493
905.098	17398
905.216	17334
905.334	17341
905.451	17417
905.569	17379
905.686	17421
905.803	17303
905.921	17124
906.038	17269
906.155	17246
906.272	17041
906.389	17052
906.506	16995
906.623	16972
906.74	16976
906.857	16797
906.974	16790
907.091	16911
907.208	17079
907.324	16866
907.441	16763
907.557	16664
907.674	16622
907.79	16504
907.907	16645
908.023	16634
908.139	16645
908.256	16512
908.372	16474
908.488	16523
908.604	16409
908.72	16375
908.836	16310
908.952	16371
909.068	16318
909.184	16497
909.3	16303
909.415	16306
909.531	16295
909.647	16032
909.762	16044
909.878	15926
909.993	16051
910.108	16040
910.224	15979
910.339	16040
910.454	15934
910.57	15842
910.685	15762
910.8	16090
910.915	15987
911.03	15800
911.145	15717
911.259	15637
911.374	15641
911.489	15523
911.604	15549
911.718	15416
911.833	15310
911.947	15256
912.062	15226
912.176	15382
912.291	15313
912.405	15310
912.519	15511
912.633	15580
912.748	15420
912.862	15317
912.976	15291
913.09	15024
913.204	15127
913.318	15169
913.431	15283
913.545	15298
913.659	15245
913.772	15165
913.886	15017
914	15020
914.113	15081
914.226	15077
914.34	15165
914.453	14861
914.566	15039
914.68	14933
914.793	14845
914.906	14743
915.019	14629
915.132	14549
915.245	14636
915.358	14727
915.47	14625
915.583	14644
915.696	14625
915.809	14788
915.921	14807
916.034	14492
916.146	14518
916.259	14423
916.371	14568
916.483	14575
916.595	14434
916.708	14484
916.82	14415
916.932	14457
917.044	14377
917.156	14385
917.268	14305
917.38	14282
917.491	14237
917.603	14237
917.715	14377
917.826	14442
917.938	14202
918.049	14111
918.161	14271
918.272	14358
918.384	14431
918.495	14161
918.606	14092
918.717	14054
918.828	14088
918.939	14043
919.05	13989
919.161	14073
919.272	13841
919.383	13970
919.494	14008
919.604	14259
919.715	14008
919.826	13921
919.936	13940
920.047	14012
920.157	13970
920.267	14100
920.378	14096
920.488	13997
920.598	14123
920.708	14336
920.818	14168
920.928	14176
921.038	14362
921.148	14214
921.258	13909
921.368	13826
921.477	13784
921.587	13704
921.697	13632
921.806	13715
921.916	13586
922.025	13354
922.134	13434
922.244	13354
922.353	13430
922.462	13217
922.571	13308
922.68	13050
922.789	13053
922.898	13023
923.007	13038
923.116	13076
923.224	13065
923.333	13027
923.442	12947
923.55	12897
923.659	13015
923.767	12947
923.876	12825
923.984	12970
924.092	12859
924.201	12787
924.309	12810
924.417	12703
924.525	12703
924.633	12787
924.741	13514
924.849	12509
924.956	12681
925.064	12483
925.172	12410
925.279	12479
925.387	12540
925.494	12437
925.602	12601
925.709	12566
925.816	12372
925.924	12418
926.031	12536
926.138	12479
926.245	12483
926.352	12304
926.459	12517
926.566	12578
926.673	12357
926.779	12262
926.886	12281
926.993	12083
927.099	12079
927.206	12038
927.312	11977
927.419	12057
927.525	12098
927.631	11984
927.737	11999
927.843	11935
927.95	11817
928.056	11885
928.162	12022
928.267	11901
928.373	12601
928.479	11996
928.585	11676
928.69	11897
928.796	11828
928.901	11764
929.007	11608
929.112	11904
929.218	11726
929.323	11630
929.428	11688
929.533	11794
929.638	11516
929.743	11680
929.848	11726
929.953	11581
930.058	11535
930.163	11341
930.267	11376
930.372	11452
930.477	11280
930.581	11535
930.685	11345
930.79	11170
930.894	11235
930.998	11231
931.103	11227
931.207	11014
931.311	10915
931.415	10824
931.519	10584
931.623	10599
