Data from test_V78500241_3611.txt Node
Date: Fri Mar 25 15:35:00 CST 2022
User: usil
Spectrometer: V785-0024
Trigger mode: 0
Integration Time (sec): 4.000000E-1
Scans to average: 1
Nonlinearity correction enabled: false
Boxcar width: 0
Storing dark spectrum: false
XAxis mode: Wavelengths
Number of Pixels in Spectrum: 1024
>>>>>Begin Spectral Data<<<<<
801.071	27458
801.214	27294
801.356	27135
801.499	27218
801.641	26944
801.783	26876
801.926	26914
802.068	26902
802.211	26895
802.353	26830
802.496	26651
802.638	26507
802.78	26594
802.923	26560
803.065	26366
803.208	26461
803.35	26511
803.492	26670
803.635	26499
803.777	26571
803.919	26735
804.061	27017
804.204	26849
804.346	26689
804.488	26636
804.63	26617
804.773	26693
804.915	26716
805.057	26849
805.199	26693
805.341	26640
805.483	26815
805.626	26800
805.768	26689
805.91	26906
806.052	26940
806.194	26655
806.336	26948
806.478	26781
806.62	26754
806.762	26967
806.904	27093
807.046	27287
807.188	27230
807.33	27138
807.472	27226
807.614	27100
807.756	27173
807.898	26994
808.04	27089
808.182	26975
808.324	27089
808.465	27157
808.607	27146
808.749	27466
808.891	27481
809.033	27534
809.174	27507
809.316	27416
809.458	27302
809.6	27485
809.741	27473
809.883	27458
810.025	27743
810.166	27713
810.308	27679
810.45	27606
810.591	27519
810.733	27431
810.875	27408
811.016	27283
811.158	27416
811.299	27447
811.441	27488
811.582	27580
811.724	27389
811.865	27473
812.007	27401
812.148	27386
812.29	27363
812.431	27580
812.573	27793
812.714	27945
812.855	27888
812.997	27876
813.138	28147
813.279	28109
813.421	28048
813.562	27873
813.703	27663
813.845	27648
813.986	27424
814.127	27157
814.268	27112
814.41	27047
814.551	27211
814.692	27138
814.833	26975
814.974	27135
815.115	27009
815.256	26963
815.397	26990
815.539	27062
815.68	26906
815.821	26636
815.962	26921
816.103	26880
816.244	26708
816.385	26602
816.526	26762
816.666	26564
816.807	26286
816.948	26480
817.089	26446
817.23	26415
817.371	26358
817.512	26396
817.653	26278
817.793	26130
817.934	26324
818.075	26492
818.216	26336
818.356	26301
818.497	26233
818.638	26103
818.778	25894
818.919	26050
819.06	26183
819.2	26290
819.341	26301
819.481	26271
819.622	26568
819.762	26838
819.903	26632
820.043	26625
820.184	26575
820.324	26480
820.465	26374
820.605	26393
820.746	26453
820.886	26233
821.026	26328
821.167	26385
821.307	26377
821.447	26275
821.588	26225
821.728	26168
821.868	26001
822.008	25875
822.149	25811
822.289	25830
822.429	25628
822.569	25510
822.709	25578
822.849	25449
822.99	25289
823.13	25304
823.27	25335
823.41	25156
823.55	25065
823.69	25187
823.83	25190
823.97	25118
824.11	24966
824.25	24913
824.389	24920
824.529	25069
824.669	25015
824.809	25061
824.949	25061
825.089	24947
825.228	25164
825.368	24817
825.508	24970
825.648	24787
825.787	24954
825.927	24848
826.067	24768
826.206	24722
826.346	24795
826.485	24981
826.625	24787
826.765	24973
826.904	24859
827.044	24612
827.183	24601
827.323	24399
827.462	24692
827.601	24646
827.741	24471
827.88	24407
828.02	24551
828.159	24559
828.298	24597
828.437	24578
828.577	24414
828.716	24456
828.855	24505
828.994	24273
829.134	24262
829.273	24334
829.412	24342
829.551	24224
829.69	24235
829.829	24369
829.968	24285
830.107	24414
830.246	24209
830.385	24209
830.524	24254
830.663	24171
830.802	23973
830.941	23836
831.08	24003
831.219	24091
831.357	23882
831.496	24083
831.635	23859
831.774	23676
831.913	23824
832.051	23710
832.19	23630
832.329	23695
832.467	23589
832.606	23501
832.744	23600
832.883	23528
833.022	23570
833.16	23589
833.299	23512
833.437	23539
833.576	23703
833.714	23642
833.852	23638
833.991	23661
834.129	23657
834.267	23668
834.406	23570
834.544	23676
834.682	23589
834.821	23695
834.959	23866
835.097	23638
835.235	23646
835.373	23680
835.511	23627
835.65	23493
835.788	23402
835.926	23414
836.064	23360
836.202	23345
836.34	23490
836.478	23543
836.615	23402
836.753	23417
836.891	23627
837.029	23516
837.167	23356
837.305	23406
837.443	23383
837.58	23261
837.718	23250
837.856	23448
837.993	23265
838.131	23341
838.269	23166
838.406	23311
838.544	23162
838.681	23113
838.819	22957
838.956	22698
839.094	22805
839.231	22824
839.369	23010
839.506	23155
839.643	23037
839.781	22679
839.918	22679
840.055	22816
840.193	22793
840.33	22790
840.467	22691
840.604	22767
840.742	22972
840.879	22694
841.016	22672
841.153	22691
841.29	22748
841.427	22626
841.564	22740
841.701	22630
841.838	22706
841.975	22797
842.112	22717
842.249	22725
842.385	22500
842.522	22702
842.659	22588
842.796	22466
842.933	22497
843.069	22561
843.206	22478
843.343	22596
843.479	22447
843.616	22493
843.752	22303
843.889	22375
844.025	22405
844.162	22131
844.298	22436
844.435	22230
844.571	22185
844.708	22325
844.844	22440
844.98	22447
845.117	22329
845.253	22204
845.389	22105
845.525	22169
845.661	22150
845.798	21983
845.934	22010
846.07	21972
846.206	21979
846.342	22124
846.478	21987
846.614	21732
846.75	21732
846.886	21690
847.022	21880
847.158	21717
847.294	21671
847.429	21766
847.565	21663
847.701	21975
847.837	21504
847.972	21405
848.108	21599
848.244	21473
848.379	21393
848.515	21340
848.65	21363
848.786	21313
848.921	21348
849.057	21447
849.192	21424
849.328	21329
849.463	21146
849.598	21321
849.734	21264
849.869	21104
850.004	21024
850.14	21024
850.275	21169
850.41	21001
850.545	21024
850.68	21009
850.815	21233
850.95	21142
851.085	21298
851.22	21089
851.355	21066
851.49	21184
851.625	21047
851.76	21119
851.895	21005
852.03	21047
852.165	21123
852.299	21051
852.434	21211
852.569	21146
852.703	20929
852.838	21230
852.973	21237
853.107	21203
853.242	21001
853.376	20944
853.511	20887
853.645	20883
853.78	21047
853.914	20880
854.048	20895
854.183	20921
854.317	20902
854.451	21157
854.585	21013
854.72	20902
854.854	20906
854.988	20891
855.122	20963
855.256	20754
855.39	20990
855.524	21100
855.658	20952
855.792	21024
855.926	20902
856.06	20910
856.194	20956
856.327	21024
856.461	20849
856.595	20792
856.729	20899
856.862	20933
856.996	20925
857.13	20948
857.263	20952
857.397	20975
857.53	20872
857.664	20956
857.797	21009
857.931	21108
858.064	20952
858.197	20899
858.331	20929
858.464	20883
858.597	20845
858.731	20960
858.864	20963
858.997	20800
859.13	20842
859.263	20868
859.396	20933
859.529	20925
859.662	20872
859.795	20861
859.928	20960
860.061	21112
860.194	21074
860.327	20960
860.46	20986
860.592	21013
860.725	21032
860.858	21028
860.99	20906
861.123	20906
861.256	20914
861.388	20921
861.521	21739
861.653	20864
861.786	20746
861.918	20613
862.05	20777
862.183	20826
862.315	20914
862.447	21074
862.58	20914
862.712	20674
862.844	20754
862.976	20773
863.108	20667
863.24	20998
863.372	20533
863.504	20686
863.636	20579
863.768	20686
863.9	20663
864.032	20606
864.164	20617
864.296	20606
864.428	20735
864.559	20705
864.691	20724
864.823	20613
864.954	20602
865.086	20606
865.217	20655
865.349	20473
865.48	20522
865.612	20469
865.743	20674
865.875	20541
866.006	20434
866.137	20507
866.269	20473
866.4	20488
866.531	20514
866.662	20438
866.793	20476
866.924	20476
867.055	20396
867.186	20434
867.317	20415
867.448	20370
867.579	20415
867.71	20366
867.841	20492
867.972	20560
868.103	20549
868.233	20499
868.364	20461
868.495	20594
868.625	20697
868.756	20773
868.886	20640
869.017	20724
869.147	20746
869.278	20720
869.408	20716
869.539	20693
869.669	20788
869.799	20838
869.929	20781
870.06	20864
870.19	21066
870.32	21055
870.45	21089
870.58	21089
870.71	21260
870.84	21169
870.97	21093
871.1	21188
871.23	21382
871.36	21211
871.489	21199
871.619	21348
871.749	21302
871.879	21279
872.008	21473
872.138	21435
872.267	21466
872.397	21195
872.526	21112
872.656	21195
872.785	21165
872.915	21321
873.044	21458
873.173	21355
873.303	21348
873.432	21431
873.561	21462
873.69	21329
873.819	21268
873.948	21386
874.077	21382
874.206	21245
874.335	21408
874.464	21458
874.593	21530
874.722	21610
874.851	21557
874.979	21606
875.108	21614
875.237	21564
875.365	21416
875.494	21523
875.623	21751
875.751	21648
875.88	21622
876.008	21660
876.136	21846
876.265	22131
876.393	22162
876.521	22086
876.65	22074
876.778	21922
876.906	21857
877.034	21857
877.162	21979
877.29	21785
877.418	22006
877.546	21987
877.674	21835
877.802	21918
877.93	21930
878.058	21835
878.185	21717
878.313	21899
878.441	21888
878.568	21682
878.696	21880
878.824	21930
878.951	22040
879.079	22105
879.206	22234
879.333	22200
879.461	22051
879.588	22150
879.715	22025
879.842	22219
879.97	22048
880.097	21797
880.224	21736
880.351	21884
880.478	21781
880.605	21808
880.732	21739
880.859	21956
880.986	21698
881.112	21838
881.239	21568
881.366	21405
881.493	21439
881.619	21260
881.746	21488
881.872	21359
881.999	21298
882.125	21233
882.252	21268
882.378	21279
882.505	21412
882.631	21241
882.757	21028
882.883	21252
883.01	21100
883.136	21020
883.262	20887
883.388	20918
883.514	21108
883.64	21020
883.766	21077
883.892	20781
884.018	20788
884.143	21039
884.269	21043
884.395	20777
884.52	20659
884.646	20769
884.772	20670
884.897	20518
885.023	20689
885.148	20819
885.274	20937
885.399	20769
885.524	20739
885.65	20830
885.775	20678
885.9	20473
886.025	20864
886.15	20830
886.275	20705
886.4	20682
886.525	20716
886.65	20575
886.775	20697
886.9	20849
887.025	20918
887.149	20640
887.274	20507
887.399	20434
887.523	20571
887.648	20404
887.773	20343
887.897	20454
888.021	20613
888.146	20377
888.27	20568
888.395	20537
888.519	20393
888.643	20438
888.767	20503
888.891	20278
889.015	20290
889.139	20286
889.263	20225
889.387	20473
889.511	20450
889.635	20400
889.759	20218
889.883	20290
890.006	20320
890.13	20446
890.254	20229
890.377	20240
890.501	19978
890.624	19989
890.748	20111
890.871	19940
890.995	19890
891.118	19807
891.241	19811
891.364	19925
891.488	19944
891.611	19860
891.734	19769
891.857	19932
891.98	19906
892.103	19807
892.226	19708
892.349	19753
892.471	19639
892.594	19685
892.717	19871
892.839	19780
892.962	19814
893.085	19742
893.207	19860
893.33	19666
893.452	19712
893.575	19734
893.697	19811
893.819	19902
893.941	19932
894.064	19811
894.186	19811
894.308	19696
894.43	19772
894.552	19932
894.674	19818
894.796	19677
894.918	19655
895.04	19715
895.161	19780
895.283	19780
895.405	19559
895.526	19708
895.648	19822
895.769	19761
895.891	19753
896.012	19791
896.134	19799
896.255	19712
896.376	19746
896.498	19696
896.619	19845
896.74	19738
896.861	19856
896.982	20084
897.103	20267
897.224	20092
897.345	20008
897.466	20039
897.587	19989
897.708	20107
897.828	20001
897.949	19883
898.07	19776
898.19	20043
898.311	20084
898.431	19868
898.552	19974
898.672	20081
898.792	20050
898.913	19921
899.033	19822
899.153	19761
899.273	19632
899.393	19731
899.513	19902
899.633	19852
899.753	19708
899.873	19635
899.993	19708
900.113	19696
900.232	19757
900.352	19761
900.472	19460
900.591	19597
900.711	19468
900.83	19422
900.95	19609
901.069	19563
901.189	19464
901.308	19069
901.427	19050
901.546	19080
901.665	19088
901.784	19091
901.904	19012
902.023	18764
902.141	18753
902.26	18563
902.379	18593
902.498	18578
902.617	18658
902.735	18639
902.854	18540
902.973	18612
903.091	18277
903.21	18209
903.328	18380
903.446	18152
903.565	18152
903.683	18136
903.801	17999
903.919	18022
904.038	18136
904.156	17927
904.274	17870
904.392	17783
904.51	17802
904.627	17965
904.745	17935
904.863	17916
904.981	17668
905.098	17642
905.216	17528
905.334	17497
905.451	17528
905.569	17421
905.686	17573
905.803	17554
905.921	17364
906.038	17440
906.155	17258
906.272	17090
906.389	17147
906.506	17121
906.623	17071
906.74	17121
906.857	16938
906.974	16949
907.091	17098
907.208	17155
907.324	17067
907.441	17022
907.557	16831
907.674	16782
907.79	16679
907.907	16767
908.023	16797
908.139	16786
908.256	16755
908.372	16736
908.488	16653
908.604	16588
908.72	16447
908.836	16550
908.952	16485
909.068	16535
909.184	16649
909.3	16504
909.415	16527
909.531	16527
909.647	16348
909.762	16223
909.878	16188
909.993	16322
910.108	16303
910.224	16188
910.339	16215
910.454	16109
910.57	15987
910.685	16051
910.8	16314
910.915	16112
911.03	16002
911.145	15895
911.259	15850
911.374	15915
911.489	15812
911.604	15701
911.718	15580
911.833	15576
911.947	15553
912.062	15469
912.176	15572
912.291	15671
912.405	15717
912.519	15755
912.633	15846
912.748	15648
912.862	15549
912.976	15435
913.09	15245
913.204	15332
913.318	15420
913.431	15515
913.545	15435
913.659	15481
913.772	15424
913.886	15252
914	15119
914.113	15268
914.226	15355
914.34	15355
914.453	15138
914.566	15241
914.68	14971
914.793	15176
914.906	14849
915.019	14933
915.132	14739
915.245	14914
915.358	14853
915.47	14853
915.583	14861
915.696	14743
915.809	14887
915.921	14952
916.034	14762
916.146	14686
916.259	14678
916.371	14731
916.483	14735
916.595	14697
916.708	14659
916.82	14640
916.932	14629
917.044	14640
917.156	14590
917.268	14514
917.38	14503
917.491	14461
917.603	14549
917.715	14530
917.826	14530
917.938	14393
918.049	14404
918.161	14404
918.272	14583
918.384	14636
918.495	14431
918.606	14225
918.717	14305
918.828	14229
918.939	14286
919.05	14149
919.161	14324
919.272	14027
919.383	14107
919.494	14309
919.604	14419
919.715	14229
919.826	14092
919.936	14263
920.047	14313
920.157	14248
920.267	14343
920.378	14252
920.488	14199
920.598	14339
920.708	14568
920.818	14362
920.928	14385
921.038	14423
921.148	14366
921.258	14130
921.368	13974
921.477	14012
921.587	13978
921.697	13925
921.806	13909
921.916	13776
922.025	13712
922.134	13575
922.244	13559
922.353	13647
922.462	13483
922.571	13510
922.68	13285
922.789	13259
922.898	13293
923.007	13164
923.116	13270
923.224	13228
923.333	13171
923.442	13114
923.55	13050
923.659	13217
923.767	13152
923.876	13023
923.984	13050
924.092	12985
924.201	13046
924.309	13012
924.417	13019
924.525	12947
924.633	13023
924.741	13830
924.849	12722
924.956	12852
925.064	12787
925.172	12669
925.279	12688
925.387	12700
925.494	12654
925.602	12787
925.709	12604
925.816	12681
925.924	12620
926.031	12726
926.138	12582
926.245	12673
926.352	12544
926.459	12757
926.566	12692
926.673	12566
926.779	12574
926.886	12448
926.993	12311
927.099	12327
927.206	12239
927.312	12209
927.419	12232
927.525	12262
927.631	12323
927.737	12232
927.843	12121
927.95	12106
928.056	12205
928.162	12152
928.267	12148
928.373	12578
928.479	12125
928.585	11961
928.69	11973
928.796	12098
928.901	11961
929.007	11832
929.112	11908
929.218	11908
929.323	11840
929.428	11843
929.533	12011
929.638	11718
929.743	11760
929.848	11828
929.953	11726
930.058	11638
930.163	11532
930.267	11509
930.372	11699
930.477	11493
930.581	11699
930.685	11665
930.79	11398
930.894	11391
930.998	11303
931.103	11417
931.207	11178
931.311	11090
931.415	10984
931.519	10767
931.623	10809
