Data from test_V78500241_1073.txt Node
Date: Fri Mar 25 15:17:19 CST 2022
User: usil
Spectrometer: V785-0024
Trigger mode: 0
Integration Time (sec): 4.000000E-1
Scans to average: 1
Nonlinearity correction enabled: false
Boxcar width: 0
Storing dark spectrum: false
XAxis mode: Wavelengths
Number of Pixels in Spectrum: 1024
>>>>>Begin Spectral Data<<<<<
801.071	27972
801.214	28078
801.356	27808
801.499	27804
801.641	27610
801.783	27545
801.926	27682
802.068	27644
802.211	27637
802.353	27473
802.496	27424
802.638	27279
802.78	27226
802.923	27203
803.065	27237
803.208	27135
803.35	27264
803.492	27599
803.635	27408
803.777	27393
803.919	27386
804.061	27781
804.204	27561
804.346	27416
804.488	27165
804.63	27511
804.773	27469
804.915	27462
805.057	27732
805.199	27450
805.341	27637
805.483	27633
805.626	27675
805.768	27618
805.91	27466
806.052	27633
806.194	27469
806.336	27743
806.478	27667
806.62	27603
806.762	27656
806.904	27835
807.046	28109
807.188	28048
807.33	28021
807.472	28086
807.614	27964
807.756	27994
807.898	27953
808.04	27880
808.182	28040
808.324	27835
808.465	27899
808.607	28139
808.749	28169
808.891	28512
809.033	28348
809.174	28314
809.316	28249
809.458	28246
809.6	28211
809.741	28318
809.883	28485
810.025	28375
810.166	28550
810.308	28569
810.45	28577
810.591	28398
810.733	28382
810.875	28268
811.016	28223
811.158	28234
811.299	28394
811.441	28421
811.582	28394
811.724	28299
811.865	28421
812.007	28284
812.148	28310
812.29	28261
812.431	28481
812.573	28523
812.714	28725
812.855	28972
812.997	28786
813.138	29041
813.279	28767
813.421	29014
813.562	28816
813.703	28683
813.845	28523
813.986	28401
814.127	28192
814.268	28093
814.41	27953
814.551	27945
814.692	28185
814.833	27861
814.974	28101
815.115	28025
815.256	27907
815.397	27983
815.539	28048
815.68	27842
815.821	27755
815.962	27797
816.103	27816
816.244	27762
816.385	27747
816.526	27473
816.666	27378
816.807	27344
816.948	27306
817.089	27302
817.23	27435
817.371	27336
817.512	27306
817.653	27245
817.793	27275
817.934	27367
818.075	27313
818.216	27439
818.356	27344
818.497	27161
818.638	27150
818.778	27009
818.919	26994
819.06	27173
819.2	27256
819.341	27291
819.481	27218
819.622	27435
819.762	27705
819.903	27713
820.043	27561
820.184	27382
820.324	27378
820.465	27507
820.605	27450
820.746	27481
820.886	27416
821.026	27363
821.167	27469
821.307	27431
821.447	27469
821.588	27302
821.728	27298
821.868	26967
822.008	26804
822.149	27009
822.289	26750
822.429	26735
822.569	26522
822.709	26545
822.849	26275
822.99	26313
823.13	26267
823.27	26244
823.41	26248
823.55	26043
823.69	26077
823.83	25951
823.97	26119
824.11	25951
824.25	25898
824.389	25986
824.529	26157
824.669	26024
824.809	26058
824.949	26020
825.089	25963
825.228	26065
825.368	25913
825.508	25765
825.648	25761
825.787	25875
825.927	25921
826.067	25925
826.206	25887
826.346	25940
826.485	25936
826.625	25887
826.765	26024
826.904	25803
827.044	25601
827.183	25635
827.323	25677
827.462	25761
827.601	25556
827.741	25563
827.88	25552
828.02	25407
828.159	25594
828.298	25578
828.437	25658
828.577	25472
828.716	25605
828.855	25502
828.994	25244
829.134	25392
829.273	25320
829.412	25198
829.551	25190
829.69	25251
829.829	25301
829.968	25240
830.107	25392
830.246	25107
830.385	25202
830.524	25107
830.663	25114
830.802	24992
830.941	24825
831.08	24817
831.219	24935
831.357	25076
831.496	25255
831.635	25015
831.774	24791
831.913	24749
832.051	24776
832.19	24745
832.329	24817
832.467	24574
832.606	24486
832.744	24627
832.883	24719
833.022	24498
833.16	24604
833.299	24707
833.437	24623
833.576	24589
833.714	24661
833.852	24661
833.991	24734
834.129	24707
834.267	24696
834.406	24642
834.544	24760
834.682	24658
834.821	24692
834.959	24787
835.097	24566
835.235	24692
835.373	24612
835.511	24589
835.65	24582
835.788	24391
835.926	24395
836.064	24251
836.202	24254
836.34	24437
836.478	24574
836.615	24292
836.753	24528
836.891	24467
837.029	24540
837.167	24418
837.305	24384
837.443	24456
837.58	24376
837.718	24361
837.856	24372
837.993	24376
838.131	24292
838.269	24174
838.406	24197
838.544	24121
838.681	24121
838.819	24007
838.956	23863
839.094	23802
839.231	23927
839.369	23920
839.506	24194
839.643	23954
839.781	23821
839.918	23843
840.055	23767
840.193	23748
840.33	23832
840.467	23581
840.604	23828
840.742	24003
840.879	23661
841.016	23687
841.153	23482
841.29	23912
841.427	23809
841.564	23703
841.701	23661
841.838	23619
841.975	23611
842.112	23657
842.249	23356
842.385	23459
842.522	23551
842.659	23539
842.796	23516
842.933	23452
843.069	23387
843.206	23417
843.343	23486
843.479	23448
843.616	23421
843.752	23239
843.889	23330
844.025	23520
844.162	23220
844.298	23463
844.435	23216
844.571	23121
844.708	23178
844.844	23429
844.98	23402
845.117	23341
845.253	23292
845.389	23200
845.525	23086
845.661	22968
845.798	22961
845.934	23090
846.07	22923
846.206	23052
846.342	23006
846.478	23003
846.614	22771
846.75	22729
846.886	22687
847.022	22736
847.158	22812
847.294	22717
847.429	22752
847.565	22744
847.701	22911
847.837	22535
847.972	22394
848.108	22512
848.244	22561
848.379	22367
848.515	22314
848.65	22291
848.786	22230
848.921	22322
849.057	22287
849.192	22424
849.328	22356
849.463	22226
849.598	22158
849.734	22249
849.869	22143
850.004	21991
850.14	22196
850.275	22128
850.41	21911
850.545	21934
850.68	22086
850.815	22025
850.95	22040
851.085	22196
851.22	22059
851.355	22166
851.49	22051
851.625	22185
851.76	22029
851.895	21941
852.03	21987
852.165	22124
852.299	21994
852.434	22074
852.569	22158
852.703	21991
852.838	22249
852.973	22185
853.107	22090
853.242	22025
853.376	21884
853.511	21705
853.645	21789
853.78	22082
853.914	21899
854.048	21854
854.183	21903
854.317	22040
854.451	22032
854.585	21903
854.72	21956
854.854	21911
854.988	21869
855.122	21964
855.256	21778
855.39	21873
855.524	22029
855.658	22059
855.792	21873
855.926	21911
856.06	21857
856.194	21956
856.327	21865
856.461	21717
856.595	21759
856.729	21835
856.862	22074
856.996	21892
857.13	21968
857.263	22021
857.397	21972
857.53	21778
857.664	21937
857.797	21979
857.931	21953
858.064	21888
858.197	21934
858.331	21857
858.464	21808
858.597	21755
858.731	21762
858.864	21819
858.997	21751
859.13	21823
859.263	21770
859.396	21937
859.529	21804
859.662	21789
859.795	21759
859.928	21831
860.061	22040
860.194	22029
860.327	21838
860.46	21778
860.592	21797
860.725	21991
860.858	21987
860.99	21808
861.123	21857
861.256	21774
861.388	21987
861.521	22592
861.653	21713
861.786	21755
861.918	21698
862.05	21785
862.183	21770
862.315	21785
862.447	21823
862.58	21838
862.712	21644
862.844	21515
862.976	21660
863.108	21724
863.24	22090
863.372	21690
863.504	21576
863.636	21587
863.768	21591
863.9	21564
864.032	21488
864.164	21496
864.296	21671
864.428	21679
864.559	21599
864.691	21622
864.823	21682
864.954	21576
865.086	21603
865.217	21401
865.349	21454
865.48	21378
865.612	21511
865.743	21568
865.875	21393
866.006	21500
866.137	21576
866.269	21492
866.4	21477
866.531	21469
866.662	21237
866.793	21374
866.924	21439
867.055	21370
867.186	21393
867.317	21348
867.448	21351
867.579	21370
867.71	21393
867.841	21245
867.972	21367
868.103	21416
868.233	21424
868.364	21252
868.495	21450
868.625	21622
868.756	21778
868.886	21603
869.017	21671
869.147	21701
869.278	21789
869.408	21698
869.539	21698
869.669	21622
869.799	21618
869.929	21766
870.06	21686
870.19	22036
870.32	21922
870.45	21880
870.58	22063
870.71	22101
870.84	22070
870.97	22074
871.1	22021
871.23	22265
871.36	22188
871.489	22086
871.619	22021
871.749	22131
871.879	22276
872.008	22272
872.138	22299
872.267	22200
872.397	22147
872.526	22131
872.656	22078
872.785	21998
872.915	22295
873.044	22295
873.173	22272
873.303	22223
873.432	22291
873.561	22409
873.69	22173
873.819	22173
873.948	22348
874.077	22386
874.206	22207
874.335	22249
874.464	22386
874.593	22421
874.722	22303
874.851	22462
874.979	22512
875.108	22519
875.237	22398
875.365	22432
875.494	22497
875.623	22421
875.751	22394
875.88	22462
876.008	22626
876.136	22634
876.265	22839
876.393	22881
876.521	22904
876.65	22934
876.778	22748
876.906	22721
877.034	22839
877.162	22869
877.29	22911
877.418	22843
877.546	22694
877.674	22713
877.802	22706
877.93	22763
878.058	22729
878.185	22622
878.313	22748
878.441	22820
878.568	22656
878.696	22809
878.824	22854
878.951	22824
879.079	22908
879.206	23041
879.333	22953
879.461	22835
879.588	22946
879.715	22885
879.842	23044
879.97	22869
880.097	22592
880.224	22645
880.351	22588
880.478	22763
880.605	22733
880.732	22649
880.859	22866
880.986	22542
881.112	22725
881.239	22485
881.366	22413
881.493	22367
881.619	22265
881.746	22219
881.872	22143
881.999	22150
882.125	22154
882.252	22265
882.378	22223
882.505	22310
882.631	22002
882.757	21816
882.883	21964
883.01	21903
883.136	21838
883.262	21747
883.388	21785
883.514	21884
883.64	21876
883.766	21926
883.892	21736
884.018	21610
884.143	21835
884.269	21800
884.395	21542
884.52	21500
884.646	21538
884.772	21496
884.897	21511
885.023	21557
885.148	21671
885.274	21587
885.399	21660
885.524	21504
885.65	21641
885.775	21424
885.9	21500
886.025	21641
886.15	21568
886.275	21542
886.4	21348
886.525	21435
886.65	21526
886.775	21504
886.9	21637
887.025	21682
887.149	21511
887.274	21363
887.399	21351
887.523	21336
887.648	21370
887.773	21287
887.897	21302
888.021	21321
888.146	21291
888.27	21370
888.395	21321
888.519	21321
888.643	21226
888.767	21443
888.891	21275
889.015	21127
889.139	21260
889.263	21032
889.387	21272
889.511	21283
889.635	21138
889.759	20994
889.883	21119
890.006	21024
890.13	21096
890.254	20876
890.377	20910
890.501	20754
890.624	20868
890.748	20925
890.871	20815
890.995	20625
891.118	20549
891.241	20613
891.364	20640
891.488	20693
891.611	20621
891.734	20587
891.857	20758
891.98	20663
892.103	20708
892.226	20659
892.349	20598
892.471	20530
892.594	20533
892.717	20594
892.839	20454
892.962	20492
893.085	20598
893.207	20492
893.33	20408
893.452	20499
893.575	20492
893.697	20606
893.819	20750
893.941	20724
894.064	20678
894.186	20480
894.308	20339
894.43	20617
894.552	20701
894.674	20484
894.796	20343
894.918	20438
895.04	20469
895.161	20609
895.283	20556
895.405	20389
895.526	20568
895.648	20480
895.769	20469
895.891	20549
896.012	20621
896.134	20602
896.255	20564
896.376	20507
896.498	20488
896.619	20583
896.74	20476
896.861	20545
896.982	20765
897.103	21005
897.224	20754
897.345	20788
897.466	20579
897.587	20750
897.708	20899
897.828	20811
897.949	20693
898.07	20674
898.19	20602
898.311	20712
898.431	20720
898.552	20724
898.672	20815
898.792	20792
898.913	20670
899.033	20518
899.153	20476
899.273	20404
899.393	20473
899.513	20438
899.633	20358
899.753	20526
899.873	20381
899.993	20503
900.113	20324
900.232	20347
900.352	20377
900.472	20237
900.591	20103
900.711	20278
900.83	20180
900.95	20263
901.069	20374
901.189	20043
901.308	19890
901.427	19811
901.546	19822
901.665	19845
901.784	19788
901.904	19559
902.023	19499
902.141	19392
902.26	19381
902.379	19457
902.498	19289
902.617	19251
902.735	19441
902.854	19282
902.973	19346
903.091	19164
903.21	18966
903.328	18966
903.446	18894
903.565	18791
903.683	18837
903.801	18654
903.919	18783
904.038	18757
904.156	18589
904.274	18593
904.392	18486
904.51	18490
904.627	18452
904.745	18547
904.863	18589
904.981	18304
905.098	18224
905.216	18178
905.334	18254
905.451	18330
905.569	18152
905.686	18251
905.803	18171
905.921	18079
906.038	18148
906.155	18049
906.272	17859
906.389	17942
906.506	17779
906.623	17775
906.74	17699
906.857	17710
906.974	17733
907.091	17805
907.208	17923
907.324	17760
907.441	17585
907.557	17482
907.674	17395
907.79	17398
907.907	17414
908.023	17448
908.139	17474
908.256	17448
908.372	17421
908.488	17387
908.604	17223
908.72	17208
908.836	17208
908.952	17170
909.068	17170
909.184	17265
909.3	17113
909.415	17220
909.531	17220
909.647	16892
909.762	16942
909.878	16869
909.993	16892
910.108	16892
910.224	16831
910.339	16919
910.454	16683
910.57	16668
910.685	16706
910.8	16934
910.915	16793
911.03	16660
911.145	16440
911.259	16603
911.374	16497
911.489	16291
911.604	16382
911.718	16253
911.833	16333
911.947	16196
912.062	16044
912.176	16185
912.291	16223
912.405	16143
912.519	16402
912.633	16398
912.748	16265
912.862	16185
912.976	16112
913.09	15945
913.204	15994
913.318	16139
913.431	16185
913.545	16105
913.659	16112
913.772	16051
913.886	15964
914	15759
914.113	15884
914.226	15964
914.34	15880
914.453	15743
914.566	15797
914.68	15682
914.793	15644
914.906	15500
915.019	15397
915.132	15412
915.245	15405
915.358	15538
915.47	15420
915.583	15367
915.696	15454
915.809	15534
915.921	15473
916.034	15397
916.146	15370
916.259	15302
916.371	15420
916.483	15264
916.595	15252
916.708	15180
916.82	15386
916.932	15180
917.044	15184
917.156	15138
917.268	15062
917.38	15104
917.491	14998
917.603	15097
917.715	15074
917.826	15180
917.938	14982
918.049	14853
918.161	14921
918.272	15077
918.384	15135
918.495	14990
918.606	14788
918.717	14670
918.828	14781
918.939	14823
919.05	14708
919.161	14777
919.272	14533
919.383	14674
919.494	14830
919.604	14933
919.715	14697
919.826	14629
919.936	14754
920.047	14910
920.157	14861
920.267	14994
920.378	14701
920.488	14785
920.598	14967
920.708	15085
920.818	14811
920.928	14963
921.038	14990
921.148	15093
921.258	14769
921.368	14594
921.477	14606
921.587	14434
921.697	14317
921.806	14579
921.916	14324
922.025	14195
922.134	14153
922.244	14077
922.353	14138
922.462	14027
922.571	13947
922.68	13864
922.789	13727
922.898	13780
923.007	13700
923.116	13746
923.224	13742
923.333	13761
923.442	13681
923.55	13624
923.659	13681
923.767	13643
923.876	13632
923.984	13575
924.092	13441
924.201	13590
924.309	13487
924.417	13381
924.525	13411
924.633	13335
924.741	14343
924.849	13278
924.956	13320
925.064	13266
925.172	13160
925.279	13107
925.387	13232
925.494	13179
925.602	13209
925.709	13289
925.816	13046
925.924	13129
926.031	13183
926.138	13065
926.245	13149
926.352	13065
926.459	13114
926.566	13175
926.673	12951
926.779	12882
926.886	12932
926.993	12848
927.099	12703
927.206	12631
927.312	12726
927.419	12696
927.525	12677
927.631	12814
927.737	12662
927.843	12642
927.95	12441
928.056	12513
928.162	12513
928.267	12578
928.373	13270
928.479	12650
928.585	12376
928.69	12479
928.796	12509
928.901	12452
929.007	12224
929.112	12490
929.218	12410
929.323	12323
929.428	12228
929.533	12509
929.638	12144
929.743	12213
929.848	12296
929.953	12251
930.058	12091
930.163	12003
930.267	11950
930.372	12091
930.477	11901
930.581	12140
930.685	12072
930.79	11786
930.894	11950
930.998	11863
931.103	11939
931.207	11573
931.311	11455
931.415	11414
931.519	11277
931.623	11185
