Data from test_V78500241_1390.txt Node
Date: Fri Mar 25 15:19:32 CST 2022
User: usil
Spectrometer: V785-0024
Trigger mode: 0
Integration Time (sec): 4.000000E-1
Scans to average: 1
Nonlinearity correction enabled: false
Boxcar width: 0
Storing dark spectrum: false
XAxis mode: Wavelengths
Number of Pixels in Spectrum: 1024
>>>>>Begin Spectral Data<<<<<
801.071	28139
801.214	28200
801.356	27911
801.499	27823
801.641	27644
801.783	27736
801.926	27671
802.068	27785
802.211	27663
802.353	27686
802.496	27606
802.638	27359
802.78	27401
802.923	27310
803.065	27203
803.208	27348
803.35	27393
803.492	27713
803.635	27545
803.777	27355
803.919	27572
804.061	27846
804.204	27663
804.346	27526
804.488	27595
804.63	27614
804.773	27576
804.915	27583
805.057	27709
805.199	27576
805.341	27675
805.483	27861
805.626	27739
805.768	27614
805.91	27686
806.052	27686
806.194	27827
806.336	27903
806.478	27854
806.62	27812
806.762	27869
806.904	28090
807.046	28082
807.188	28166
807.33	28219
807.472	28097
807.614	28131
807.756	28169
807.898	28097
808.04	27937
808.182	27949
808.324	28116
808.465	28207
808.607	28226
808.749	28474
808.891	28535
809.033	28603
809.174	28306
809.316	28318
809.458	28394
809.6	28360
809.741	28538
809.883	28493
810.025	28698
810.166	28740
810.308	28729
810.45	28588
810.591	28546
810.733	28360
810.875	28436
811.016	28204
811.158	28455
811.299	28478
811.441	28615
811.582	28763
811.724	28428
811.865	28329
812.007	28382
812.148	28401
812.29	28295
812.431	28752
812.573	28694
812.714	28866
812.855	28949
812.997	29006
813.138	29189
813.279	29064
813.421	29067
813.562	28869
813.703	28691
813.845	28599
813.986	28497
814.127	28226
814.268	28196
814.41	27983
814.551	28090
814.692	28162
814.833	28017
814.974	28067
815.115	28147
815.256	27941
815.397	28048
815.539	27880
815.68	27911
815.821	27922
815.962	28055
816.103	27960
816.244	27766
816.385	27701
816.526	27690
816.666	27637
816.807	27644
816.948	27564
817.089	27583
817.23	27481
817.371	27431
817.512	27283
817.653	27458
817.793	27496
817.934	27386
818.075	27374
818.216	27447
818.356	27378
818.497	27294
818.638	27279
818.778	27222
818.919	27188
819.06	27218
819.2	27321
819.341	27412
819.481	27462
819.622	27523
819.762	27751
819.903	27686
820.043	27568
820.184	27652
820.324	27477
820.465	27583
820.605	27511
820.746	27496
820.886	27397
821.026	27408
821.167	27519
821.307	27641
821.447	27534
821.588	27382
821.728	27230
821.868	27142
822.008	26830
822.149	26731
822.289	26804
822.429	26590
822.569	26427
822.709	26404
822.849	26374
822.99	26446
823.13	26305
823.27	26294
823.41	26282
823.55	26142
823.69	26084
823.83	26145
823.97	26218
824.11	26016
824.25	25978
824.389	26073
824.529	26149
824.669	25997
824.809	26164
824.949	26103
825.089	26168
825.228	26111
825.368	25909
825.508	25936
825.648	25986
825.787	25978
825.927	25970
826.067	25868
826.206	25833
826.346	25951
826.485	25909
826.625	25860
826.765	26043
826.904	25860
827.044	25655
827.183	25677
827.323	25571
827.462	25677
827.601	25556
827.741	25693
827.88	25674
828.02	25567
828.159	25567
828.298	25658
828.437	25685
828.577	25502
828.716	25700
828.855	25590
828.994	25438
829.134	25266
829.273	25388
829.412	25350
829.551	25320
829.69	25343
829.829	25426
829.968	25426
830.107	25487
830.246	25377
830.385	25247
830.524	25236
830.663	25160
830.802	25168
830.941	24951
831.08	24977
831.219	25023
831.357	25034
831.496	25190
831.635	24905
831.774	24935
831.913	24757
832.051	24677
832.19	24711
832.329	24798
832.467	24642
832.606	24582
832.744	24574
832.883	24616
833.022	24673
833.16	24494
833.299	24654
833.437	24555
833.576	24871
833.714	24471
833.852	24681
833.991	24802
834.129	24741
834.267	24688
834.406	24578
834.544	24574
834.682	24681
834.821	24772
834.959	24840
835.097	24585
835.235	24764
835.373	24578
835.511	24623
835.65	24388
835.788	24570
835.926	24380
836.064	24296
836.202	24350
836.34	24410
836.478	24627
836.615	24563
836.753	24365
836.891	24589
837.029	24582
837.167	24525
837.305	24391
837.443	24395
837.58	24258
837.718	24407
837.856	24338
837.993	24475
838.131	24342
838.269	24190
838.406	24296
838.544	24163
838.681	23954
838.819	23965
838.956	23874
839.094	23798
839.231	23707
839.369	23847
839.506	24144
839.643	24015
839.781	23821
839.918	23798
840.055	23802
840.193	23790
840.33	23733
840.467	23832
840.604	23775
840.742	24068
840.879	23596
841.016	23581
841.153	23535
841.29	23847
841.427	23680
841.564	23729
841.701	23646
841.838	23722
841.975	23539
842.112	23657
842.249	23501
842.385	23478
842.522	23722
842.659	23539
842.796	23547
842.933	23539
843.069	23512
843.206	23326
843.343	23516
843.479	23493
843.616	23406
843.752	23277
843.889	23227
844.025	23417
844.162	23212
844.298	23284
844.435	23162
844.571	23132
844.708	23330
844.844	23379
844.98	23322
845.117	23341
845.253	23246
845.389	23086
845.525	23174
845.661	23022
845.798	22946
845.934	22923
846.07	23075
846.206	22999
846.342	23086
846.478	22820
846.614	22736
846.75	22641
846.886	22733
847.022	22725
847.158	22691
847.294	22691
847.429	22675
847.565	22717
847.701	22934
847.837	22405
847.972	22443
848.108	22527
848.244	22577
848.379	22352
848.515	22249
848.65	22337
848.786	22299
848.921	22265
849.057	22360
849.192	22428
849.328	22360
849.463	22265
849.598	22295
849.734	22124
849.869	22185
850.004	22048
850.14	22078
850.275	22150
850.41	22044
850.545	22017
850.68	22124
850.815	22128
850.95	21956
851.085	22139
851.22	22048
851.355	22131
851.49	22006
851.625	22002
851.76	22010
851.895	21888
852.03	21972
852.165	22017
852.299	22048
852.434	22177
852.569	22074
852.703	22017
852.838	22025
852.973	22360
853.107	22200
853.242	22017
853.376	21819
853.511	21667
853.645	21751
853.78	21945
853.914	21892
854.048	21751
854.183	21808
854.317	21838
854.451	22093
854.585	21873
854.72	21926
854.854	21915
854.988	21789
855.122	21884
855.256	21732
855.39	21930
855.524	21922
855.658	21918
855.792	21861
855.926	21964
856.06	21892
856.194	21918
856.327	21766
856.461	21949
856.595	21884
856.729	21884
856.862	22013
856.996	21808
857.13	21880
857.263	21964
857.397	21827
857.53	21930
857.664	21911
857.797	21941
857.931	21994
858.064	21922
858.197	21956
858.331	21876
858.464	21797
858.597	21686
858.731	21846
858.864	21743
858.997	21827
859.13	22013
859.263	21899
859.396	21895
859.529	21766
859.662	21876
859.795	21793
859.928	21861
860.061	21972
860.194	21953
860.327	21743
860.46	21930
860.592	22002
860.725	21975
860.858	22040
860.99	21994
861.123	21888
861.256	21778
861.388	21770
861.521	22314
861.653	21846
861.786	21629
861.918	21663
862.05	21816
862.183	21736
862.315	21724
862.447	21747
862.58	21736
862.712	21515
862.844	21500
862.976	21633
863.108	21633
863.24	21861
863.372	21447
863.504	21599
863.636	21553
863.768	21542
863.9	21610
864.032	21504
864.164	21435
864.296	21618
864.428	21610
864.559	21557
864.691	21591
864.823	21610
864.954	21435
865.086	21587
865.217	21424
865.349	21397
865.48	21428
865.612	21431
865.743	21606
865.875	21431
866.006	21378
866.137	21542
866.269	21329
866.4	21435
866.531	21435
866.662	21447
866.793	21416
866.924	21351
867.055	21454
867.186	21359
867.317	21294
867.448	21161
867.579	21298
867.71	21294
867.841	21294
867.972	21408
868.103	21306
868.233	21481
868.364	21462
868.495	21424
868.625	21583
868.756	21675
868.886	21698
869.017	21580
869.147	21759
869.278	21743
869.408	21622
869.539	21599
869.669	21652
869.799	21747
869.929	21724
870.06	21629
870.19	21918
870.32	21907
870.45	22006
870.58	21930
870.71	22055
870.84	21956
870.97	22032
871.1	22017
871.23	22135
871.36	22169
871.489	22116
871.619	22253
871.749	22181
871.879	22238
872.008	22139
872.138	22158
872.267	22105
872.397	22032
872.526	22051
872.656	22051
872.785	22093
872.915	22265
873.044	22253
873.173	22337
873.303	22295
873.432	22318
873.561	22402
873.69	22329
873.819	22291
873.948	22242
874.077	22162
874.206	22131
874.335	22090
874.464	22314
874.593	22455
874.722	22367
874.851	22394
874.979	22409
875.108	22512
875.237	22447
875.365	22280
875.494	22417
875.623	22489
875.751	22405
875.88	22409
876.008	22710
876.136	22603
876.265	22828
876.393	22885
876.521	22930
876.65	22896
876.778	22641
876.906	22740
877.034	22664
877.162	22847
877.29	22630
877.418	22740
877.546	22710
877.674	22824
877.802	22748
877.93	22637
878.058	22664
878.185	22618
878.313	22797
878.441	22713
878.568	22500
878.696	22668
878.824	22797
878.951	22892
879.079	22991
879.206	22995
879.333	22885
879.461	22797
879.588	22847
879.715	22843
879.842	22972
879.97	22755
880.097	22653
880.224	22550
880.351	22596
880.478	22607
880.605	22641
880.732	22603
880.859	22858
880.986	22622
881.112	22626
881.239	22405
881.366	22284
881.493	22207
881.619	22272
881.746	22196
881.872	22211
881.999	22093
882.125	22120
882.252	22215
882.378	22226
882.505	22276
882.631	22032
882.757	21838
882.883	21903
883.01	21991
883.136	21915
883.262	21797
883.388	21713
883.514	21934
883.64	21895
883.766	21755
883.892	21660
884.018	21625
884.143	21770
884.269	21865
884.395	21667
884.52	21431
884.646	21523
884.772	21572
884.897	21355
885.023	21389
885.148	21545
885.274	21557
885.399	21564
885.524	21526
885.65	21492
885.775	21477
885.9	21351
886.025	21690
886.15	21557
886.275	21443
886.4	21222
886.525	21492
886.65	21378
886.775	21389
886.9	21530
887.025	21667
887.149	21374
887.274	21431
887.399	21447
887.523	21287
887.648	21340
887.773	21070
887.897	21279
888.021	21211
888.146	21302
888.27	21344
888.395	21500
888.519	21272
888.643	21272
888.767	21279
888.891	21165
889.015	21081
889.139	20963
889.263	21077
889.387	21104
889.511	21325
889.635	21138
889.759	21108
889.883	21062
890.006	21043
890.13	21142
890.254	20994
890.377	20937
890.501	20864
890.624	20739
890.748	20864
890.871	20625
890.995	20632
891.118	20575
891.241	20670
891.364	20549
891.488	20682
891.611	20564
891.734	20663
891.857	20625
891.98	20621
892.103	20686
892.226	20568
892.349	20549
892.471	20374
892.594	20533
892.717	20533
892.839	20454
892.962	20522
893.085	20598
893.207	20484
893.33	20301
893.452	20469
893.575	20590
893.697	20473
893.819	20667
893.941	20644
894.064	20552
894.186	20473
894.308	20355
894.43	20686
894.552	20537
894.674	20651
894.796	20412
894.918	20541
895.04	20374
895.161	20530
895.283	20636
895.405	20469
895.526	20408
895.648	20583
895.769	20522
895.891	20473
896.012	20625
896.134	20541
896.255	20442
896.376	20457
896.498	20431
896.619	20526
896.74	20454
896.861	20587
896.982	20804
897.103	21005
897.224	20697
897.345	20640
897.466	20735
897.587	20625
897.708	20864
897.828	20781
897.949	20655
898.07	20625
898.19	20579
898.311	20769
898.431	20686
898.552	20636
898.672	20804
898.792	20731
898.913	20682
899.033	20511
899.153	20545
899.273	20336
899.393	20355
899.513	20400
899.633	20454
899.753	20396
899.873	20442
899.993	20560
900.113	20294
900.232	20396
900.352	20438
900.472	20336
900.591	20138
900.711	20237
900.83	20138
900.95	20385
901.069	20320
901.189	20115
901.308	19913
901.427	19849
901.546	19852
901.665	19795
901.784	19731
901.904	19685
902.023	19628
902.141	19460
902.26	19464
902.379	19403
902.498	19308
902.617	19244
902.735	19320
902.854	19247
902.973	19244
903.091	19042
903.21	18852
903.328	19019
903.446	18939
903.565	18825
903.683	18916
903.801	18608
903.919	18646
904.038	18681
904.156	18582
904.274	18608
904.392	18502
904.51	18601
904.627	18608
904.745	18570
904.863	18494
904.981	18483
905.098	18228
905.216	18232
905.334	18194
905.451	18342
905.569	18057
905.686	18167
905.803	18209
905.921	18079
906.038	18068
906.155	18019
906.272	17840
906.389	18007
906.506	17710
906.623	17821
906.74	17771
906.857	17554
906.974	17672
907.091	17813
907.208	17741
907.324	17745
907.441	17592
907.557	17463
907.674	17467
907.79	17433
907.907	17368
908.023	17490
908.139	17528
908.256	17433
908.372	17349
908.488	17200
908.604	17227
908.72	17193
908.836	17208
908.952	17140
909.068	17178
909.184	17204
909.3	17212
909.415	17162
909.531	17109
909.647	16866
909.762	16968
909.878	16892
909.993	16908
910.108	16835
910.224	16793
910.339	16835
910.454	16866
910.57	16710
910.685	16580
910.8	16915
910.915	16873
911.03	16740
911.145	16455
911.259	16424
911.374	16417
911.489	16413
911.604	16390
911.718	16139
911.833	16169
911.947	16143
912.062	15960
912.176	16207
912.291	16226
912.405	16272
912.519	16310
912.633	16402
912.748	16219
912.862	16128
912.976	15994
913.09	15857
913.204	16055
913.318	16025
913.431	16074
913.545	16112
913.659	16109
913.772	15991
913.886	15812
914	15884
914.113	15941
914.226	15956
914.34	15975
914.453	15747
914.566	15827
914.68	15629
914.793	15682
914.906	15435
915.019	15378
915.132	15428
915.245	15431
915.358	15500
915.47	15469
915.583	15370
915.696	15466
915.809	15511
915.921	15507
916.034	15336
916.146	15237
916.259	15199
916.371	15264
916.483	15332
916.595	15180
916.708	15211
916.82	15283
916.932	15203
917.044	15214
917.156	15222
917.268	15066
917.38	15001
917.491	15055
917.603	15093
917.715	15154
917.826	15157
917.938	14979
918.049	14982
918.161	14982
918.272	15142
918.384	15154
918.495	15009
918.606	14861
918.717	14697
918.828	14830
918.939	14830
919.05	14769
919.161	14796
919.272	14575
919.383	14670
919.494	14735
919.604	14910
919.715	14739
919.826	14746
919.936	14689
920.047	14758
920.157	14777
920.267	15009
920.378	14800
920.488	14804
920.598	14948
920.708	15066
920.818	14864
920.928	15024
921.038	15024
921.148	15055
921.258	14705
921.368	14617
921.477	14552
921.587	14484
921.697	14438
921.806	14518
921.916	14347
922.025	14206
922.134	14107
922.244	14081
922.353	14119
922.462	13860
922.571	13917
922.68	13776
922.789	13769
922.898	13761
923.007	13704
923.116	13780
923.224	13761
923.333	13723
923.442	13575
923.55	13571
923.659	13594
923.767	13662
923.876	13578
923.984	13658
924.092	13388
924.201	13563
924.309	13518
924.417	13365
924.525	13422
924.633	13464
924.741	14164
924.849	13247
924.956	13304
925.064	13206
925.172	13118
925.279	13152
925.387	13217
925.494	13149
925.602	13343
925.709	13209
925.816	13095
925.924	13038
926.031	13255
926.138	13076
926.245	13221
926.352	13004
926.459	13179
926.566	13168
926.673	12993
926.779	12924
926.886	12863
926.993	12817
927.099	12646
927.206	12688
927.312	12658
927.419	12825
927.525	12703
927.631	12779
927.737	12589
927.843	12608
927.95	12456
928.056	12551
928.162	12616
928.267	12525
928.373	13168
928.479	12719
928.585	12376
928.69	12490
928.796	12467
928.901	12426
929.007	12365
929.112	12395
929.218	12403
929.323	12273
929.428	12300
929.533	12330
929.638	12292
929.743	12167
929.848	12285
929.953	12133
930.058	12129
930.163	11984
930.267	11874
930.372	12064
930.477	11927
930.581	12136
930.685	11977
930.79	11870
930.894	11878
930.998	11798
931.103	11954
931.207	11699
931.311	11486
931.415	11429
931.519	11166
931.623	11227
