Data from test_V78500241_2348.txt Node
Date: Fri Mar 25 15:26:12 CST 2022
User: usil
Spectrometer: V785-0024
Trigger mode: 0
Integration Time (sec): 4.000000E-1
Scans to average: 1
Nonlinearity correction enabled: false
Boxcar width: 0
Storing dark spectrum: false
XAxis mode: Wavelengths
Number of Pixels in Spectrum: 1024
>>>>>Begin Spectral Data<<<<<
801.071	27355
801.214	27256
801.356	27043
801.499	27058
801.641	26918
801.783	26902
801.926	26956
802.068	27017
802.211	26815
802.353	26705
802.496	26522
802.638	26579
802.78	26564
802.923	26450
803.065	26336
803.208	26415
803.35	26590
803.492	26598
803.635	26701
803.777	26598
803.919	26720
804.061	27108
804.204	26739
804.346	26689
804.488	26606
804.63	26587
804.773	26556
804.915	26670
805.057	26842
805.199	26712
805.341	26773
805.483	26834
805.626	26876
805.768	26708
805.91	26819
806.052	26826
806.194	26830
806.336	26826
806.478	26800
806.62	26754
806.762	26986
806.904	27036
807.046	27374
807.188	27245
807.33	27184
807.472	27272
807.614	27268
807.756	27298
807.898	27245
808.04	26960
808.182	27017
808.324	27123
808.465	27093
808.607	27249
808.749	27420
808.891	27530
809.033	27473
809.174	27454
809.316	27336
809.458	27439
809.6	27405
809.741	27496
809.883	27488
810.025	27656
810.166	27496
810.308	27614
810.45	27629
810.591	27534
810.733	27386
810.875	27435
811.016	27401
811.158	27096
811.299	27492
811.441	27427
811.582	27485
811.724	27252
811.865	27348
812.007	27275
812.148	27348
812.29	27523
812.431	27500
812.573	27717
812.714	27831
812.855	28025
812.997	28040
813.138	28230
813.279	28013
813.421	27979
813.562	27888
813.703	27591
813.845	27599
813.986	27332
814.127	27180
814.268	27161
814.41	27081
814.551	27039
814.692	27142
814.833	27123
814.974	26982
815.115	27096
815.256	27005
815.397	26956
815.539	27009
815.68	26754
815.821	26902
815.962	26857
816.103	26868
816.244	26830
816.385	26674
816.526	26758
816.666	26423
816.807	26320
816.948	26381
817.089	26476
817.23	26514
817.371	26427
817.512	26415
817.653	26362
817.793	26187
817.934	26343
818.075	26324
818.216	26362
818.356	26370
818.497	26233
818.638	26153
818.778	26126
818.919	26084
819.06	26062
819.2	26115
819.341	26313
819.481	26453
819.622	26583
819.762	26705
819.903	26602
820.043	26545
820.184	26275
820.324	26358
820.465	26549
820.605	26343
820.746	26389
820.886	26275
821.026	26343
821.167	26419
821.307	26530
821.447	26294
821.588	26358
821.728	26069
821.868	25940
822.008	25753
822.149	25841
822.289	25750
822.429	25613
822.569	25472
822.709	25540
822.849	25324
822.99	25430
823.13	25304
823.27	25202
823.41	25069
823.55	25133
823.69	25042
823.83	25282
823.97	25004
824.11	24905
824.25	24852
824.389	24859
824.529	24992
824.669	24913
824.809	24962
824.949	24943
825.089	25129
825.228	24962
825.368	24684
825.508	24734
825.648	24970
825.787	24897
825.927	24795
826.067	24901
826.206	24764
826.346	24806
826.485	24791
826.625	24894
826.765	24875
826.904	24848
827.044	24620
827.183	24521
827.323	24418
827.462	24563
827.601	24608
827.741	24505
827.88	24574
828.02	24441
828.159	24460
828.298	24433
828.437	24604
828.577	24601
828.716	24509
828.855	24376
828.994	24262
829.134	24281
829.273	24251
829.412	24140
829.551	24205
829.69	24186
829.829	24182
829.968	24235
830.107	24254
830.246	24228
830.385	24178
830.524	24224
830.663	24011
830.802	23950
830.941	23828
831.08	23961
831.219	23878
831.357	23916
831.496	24083
831.635	23805
831.774	23737
831.913	23680
832.051	23642
832.19	23589
832.329	23722
832.467	23436
832.606	23535
832.744	23562
832.883	23497
833.022	23646
833.16	23421
833.299	23551
833.437	23497
833.576	23611
833.714	23520
833.852	23509
833.991	23642
834.129	23539
834.267	23668
834.406	23497
834.544	23596
834.682	23524
834.821	23585
834.959	23634
835.097	23524
835.235	23649
835.373	23414
835.511	23573
835.65	23368
835.788	23379
835.926	23277
836.064	23105
836.202	23216
836.34	23486
836.478	23387
836.615	23299
836.753	23379
836.891	23516
837.029	23425
837.167	23414
837.305	23349
837.443	23292
837.58	23299
837.718	23326
837.856	23349
837.993	23258
838.131	23277
838.269	23071
838.406	23140
838.544	23124
838.681	22946
838.819	22850
838.956	22679
839.094	22599
839.231	22771
839.369	22915
839.506	23208
839.643	22915
839.781	22740
839.918	22679
840.055	22748
840.193	22733
840.33	22656
840.467	22596
840.604	22710
840.742	22987
840.879	22672
841.016	22565
841.153	22531
841.29	22809
841.427	22641
841.564	22607
841.701	22580
841.838	22668
841.975	22504
842.112	22561
842.249	22417
842.385	22303
842.522	22603
842.659	22333
842.796	22443
842.933	22443
843.069	22356
843.206	22485
843.343	22390
843.479	22481
843.616	22432
843.752	22185
843.889	22154
844.025	22276
844.162	22150
844.298	22177
844.435	22173
844.571	22204
844.708	22295
844.844	22352
844.98	22234
845.117	22234
845.253	22158
845.389	22112
845.525	22097
845.661	22093
845.798	21975
845.934	22002
846.07	21918
846.206	21975
846.342	22063
846.478	21884
846.614	21816
846.75	21629
846.886	21724
847.022	21835
847.158	21747
847.294	21644
847.429	21675
847.565	21660
847.701	21819
847.837	21348
847.972	21428
848.108	21504
848.244	21561
848.379	21249
848.515	21252
848.65	21241
848.786	21260
848.921	21195
849.057	21367
849.192	21374
849.328	21291
849.463	21287
849.598	21142
849.734	21070
849.869	21058
850.004	20990
850.14	20998
850.275	21020
850.41	20963
850.545	21020
850.68	20925
850.815	21036
850.95	20914
851.085	21062
851.22	21146
851.355	21066
851.49	21047
851.625	20910
851.76	21013
851.895	20868
852.03	20979
852.165	21013
852.299	21005
852.434	21150
852.569	21081
852.703	21043
852.838	21051
852.973	21230
853.107	21081
853.242	21017
853.376	20746
853.511	20663
853.645	20769
853.78	20998
853.914	20853
854.048	20864
854.183	20682
854.317	20933
854.451	21066
854.585	20678
854.72	20826
854.854	20918
854.988	20746
855.122	20845
855.256	20682
855.39	20785
855.524	20826
855.658	20800
855.792	20868
855.926	20921
856.06	20933
856.194	20887
856.327	20777
856.461	20716
856.595	20804
856.729	20872
856.862	20857
856.996	20941
857.13	20914
857.263	21070
857.397	20857
857.53	20815
857.664	20815
857.797	20887
857.931	20998
858.064	20788
858.197	20975
858.331	20788
858.464	20895
858.597	20792
858.731	20823
858.864	20762
858.997	20762
859.13	20906
859.263	20883
859.396	20906
859.529	20887
859.662	20689
859.795	20815
859.928	20758
860.061	20963
860.194	21051
860.327	20998
860.46	20838
860.592	20979
860.725	21013
860.858	20857
860.99	20823
861.123	20754
861.256	20746
861.388	20872
861.521	21363
861.653	20621
861.786	20613
861.918	20541
862.05	20815
862.183	20754
862.315	20845
862.447	20788
862.58	20750
862.712	20640
862.844	20598
862.976	20606
863.108	20674
863.24	21058
863.372	20450
863.504	20552
863.636	20511
863.768	20575
863.9	20530
864.032	20495
864.164	20480
864.296	20629
864.428	20598
864.559	20556
864.691	20682
864.823	20545
864.954	20507
865.086	20636
865.217	20431
865.349	20381
865.48	20400
865.612	20476
865.743	20541
865.875	20480
866.006	20476
866.137	20381
866.269	20503
866.4	20396
866.531	20556
866.662	20301
866.793	20343
866.924	20332
867.055	20484
867.186	20484
867.317	20305
867.448	20286
867.579	20370
867.71	20336
867.841	20259
867.972	20317
868.103	20355
868.233	20446
868.364	20408
868.495	20434
868.625	20613
868.756	20720
868.886	20393
869.017	20674
869.147	20765
869.278	20777
869.408	20678
869.539	20693
869.669	20796
869.799	20689
869.929	20785
870.06	20765
870.19	20960
870.32	20994
870.45	21058
870.58	21062
870.71	21142
870.84	21074
870.97	21001
871.1	21074
871.23	21214
871.36	21214
871.489	21096
871.619	21313
871.749	21207
871.879	21287
872.008	21237
872.138	21291
872.267	21237
872.397	21135
872.526	21062
872.656	20998
872.785	20975
872.915	21268
873.044	21393
873.173	21233
873.303	21370
873.432	21260
873.561	21355
873.69	21245
873.819	21272
873.948	21329
874.077	21222
874.206	21146
874.335	21218
874.464	21207
874.593	21481
874.722	21447
874.851	21561
874.979	21443
875.108	21538
875.237	21367
875.365	21351
875.494	21332
875.623	21492
875.751	21466
875.88	21507
876.008	21614
876.136	21736
876.265	21739
876.393	22082
876.521	21892
876.65	21865
876.778	21888
876.906	21736
877.034	21770
877.162	21781
877.29	21808
877.418	21842
877.546	21831
877.674	21930
877.802	21926
877.93	21861
878.058	21804
878.185	21751
878.313	21781
878.441	21842
878.568	21797
878.696	21663
878.824	21975
878.951	21926
879.079	21953
879.206	22200
879.333	22010
879.461	21831
879.588	21941
879.715	21975
879.842	21983
879.97	21953
880.097	21698
880.224	21564
880.351	21652
880.478	21633
880.605	21637
880.732	21701
880.859	21819
880.986	21652
881.112	21675
881.239	21641
881.366	21367
881.493	21412
881.619	21275
881.746	21351
881.872	21332
881.999	21230
882.125	21302
882.252	21397
882.378	21249
882.505	21294
882.631	21009
882.757	20941
882.883	21043
883.01	20952
883.136	20960
883.262	20921
883.388	20861
883.514	20944
883.64	21146
883.766	20960
883.892	20743
884.018	20720
884.143	20880
884.269	21001
884.395	20708
884.52	20617
884.646	20621
884.772	20454
884.897	20457
885.023	20644
885.148	20811
885.274	20686
885.399	20758
885.524	20632
885.65	20537
885.775	20556
885.9	20442
886.025	20754
886.15	20720
886.275	20640
886.4	20461
886.525	20571
886.65	20541
886.775	20549
886.9	20739
887.025	20853
887.149	20613
887.274	20412
887.399	20419
887.523	20571
887.648	20343
887.773	20256
887.897	20484
888.021	20450
888.146	20347
888.27	20473
888.395	20476
888.519	20427
888.643	20431
888.767	20518
888.891	20214
889.015	20122
889.139	20122
889.263	20161
889.387	20366
889.511	20450
889.635	20286
889.759	20100
889.883	20081
890.006	20275
890.13	20229
890.254	20024
890.377	20180
890.501	19909
890.624	19967
890.748	20084
890.871	19913
890.995	19704
891.118	19715
891.241	19757
891.364	19734
891.488	19921
891.611	19791
891.734	19814
891.857	19898
891.98	19708
892.103	19868
892.226	19826
892.349	19643
892.471	19582
892.594	19715
892.717	19818
892.839	19738
892.962	19738
893.085	19795
893.207	19635
893.33	19567
893.452	19620
893.575	19635
893.697	19769
893.819	19898
893.941	19963
894.064	19826
894.186	19624
894.308	19575
894.43	19727
894.552	19799
894.674	19765
894.796	19590
894.918	19677
895.04	19708
895.161	19799
895.283	19765
895.405	19556
895.526	19696
895.648	19662
895.769	19685
895.891	19757
896.012	19860
896.134	19689
896.255	19757
896.376	19620
896.498	19628
896.619	19620
896.74	19765
896.861	19757
896.982	20005
897.103	20096
897.224	20031
897.345	19963
897.466	19928
897.587	19921
897.708	20058
897.828	19906
897.949	19997
898.07	19746
898.19	19788
898.311	20027
898.431	19830
898.552	19799
898.672	19989
898.792	19921
898.913	20058
899.033	19864
899.153	19757
899.273	19719
899.393	19643
899.513	19605
899.633	19613
899.753	19693
899.873	19689
899.993	19742
900.113	19677
900.232	19616
900.352	19704
900.472	19499
900.591	19396
900.711	19445
900.83	19426
900.95	19628
901.069	19483
901.189	19422
901.308	19065
901.427	19137
901.546	19061
901.665	19091
901.784	19232
901.904	18909
902.023	18829
902.141	18707
902.26	18612
902.379	18810
902.498	18540
902.617	18494
902.735	18593
902.854	18525
902.973	18418
903.091	18178
903.21	18182
903.328	18334
903.446	18262
903.565	17988
903.683	18148
903.801	18045
903.919	18003
904.038	17977
904.156	17790
904.274	17920
904.392	17779
904.51	17790
904.627	17703
904.745	17878
904.863	17916
904.981	17600
905.098	17490
905.216	17490
905.334	17615
905.451	17433
905.569	17505
905.686	17509
905.803	17448
905.921	17296
906.038	17360
906.155	17410
906.272	17189
906.389	17246
906.506	17075
906.623	16934
906.74	17041
906.857	16946
906.974	16908
907.091	17029
907.208	17178
907.324	17083
907.441	16904
907.557	16923
907.674	16786
907.79	16691
907.907	16748
908.023	16843
908.139	16694
908.256	16774
908.372	16672
908.488	16630
908.604	16481
908.72	16558
908.836	16462
908.952	16405
909.068	16478
909.184	16558
909.3	16402
909.415	16455
909.531	16516
909.647	16257
909.762	16219
909.878	16097
909.993	16200
910.108	16154
910.224	16048
910.339	16162
910.454	16048
910.57	15972
910.685	15949
910.8	16120
910.915	16147
911.03	15892
911.145	15819
911.259	15766
911.374	15793
911.489	15755
911.604	15599
911.718	15526
911.833	15549
911.947	15382
912.062	15298
912.176	15492
912.291	15584
912.405	15553
912.519	15698
912.633	15690
912.748	15625
912.862	15523
912.976	15386
913.09	15367
913.204	15336
913.318	15325
913.431	15416
913.545	15420
913.659	15382
913.772	15294
913.886	15165
914	15218
914.113	15283
914.226	15283
914.34	15264
914.453	15146
914.566	15268
914.68	15077
914.793	14979
914.906	14967
915.019	14765
915.132	14640
915.245	14838
915.358	14845
915.47	14762
915.583	14849
915.696	14716
915.809	14887
915.921	14902
916.034	14697
916.146	14735
916.259	14727
916.371	14804
916.483	14720
916.595	14598
916.708	14625
916.82	14629
916.932	14568
917.044	14667
917.156	14537
917.268	14461
917.38	14476
917.491	14358
917.603	14476
917.715	14480
917.826	14560
917.938	14374
918.049	14294
918.161	14412
918.272	14537
918.384	14480
918.495	14324
918.606	14320
918.717	14206
918.828	14221
918.939	14157
919.05	14115
919.161	14237
919.272	14020
919.383	14016
919.494	14259
919.604	14332
919.715	14248
919.826	14096
919.936	14153
920.047	14298
920.157	14168
920.267	14271
920.378	14191
920.488	14119
920.598	14328
920.708	14480
920.818	14176
920.928	14244
921.038	14480
921.148	14412
921.258	14161
921.368	14027
921.477	13986
921.587	13906
921.697	13845
921.806	13955
921.916	13788
922.025	13658
922.134	13563
922.244	13499
922.353	13578
922.462	13472
922.571	13373
922.68	13255
922.789	13236
922.898	13187
923.007	13190
923.116	13236
923.224	13141
923.333	13168
923.442	13061
923.55	13034
923.659	13091
923.767	13160
923.876	12985
923.984	13050
924.092	12947
924.201	12958
924.309	12905
924.417	13012
924.525	12909
924.633	12920
924.741	13788
924.849	12707
924.956	12848
925.064	12631
925.172	12608
925.279	12570
925.387	12722
925.494	12589
925.602	12848
925.709	12779
925.816	12585
925.924	12555
926.031	12783
926.138	12639
926.245	12631
926.352	12597
926.459	12684
926.566	12604
926.673	12479
926.779	12513
926.886	12391
926.993	12270
927.099	12171
927.206	12216
927.312	12232
927.419	12239
927.525	12216
927.631	12357
927.737	12163
927.843	12106
927.95	11954
928.056	12079
928.162	12053
928.267	12133
928.373	12627
928.479	12155
928.585	11908
928.69	12053
928.796	11961
928.901	11935
929.007	11885
929.112	11961
929.218	11851
929.323	11779
929.428	11802
929.533	11889
929.638	11748
929.743	11729
929.848	11752
929.953	11741
930.058	11634
930.163	11493
930.267	11452
930.372	11653
930.477	11444
930.581	11688
930.685	11547
930.79	11322
930.894	11376
930.998	11353
931.103	11532
931.207	11124
931.311	11060
931.415	11083
931.519	10736
931.623	10778
