Data from test_V78500241_525.txt Node
Date: Fri Mar 25 15:13:30 CST 2022
User: usil
Spectrometer: V785-0024
Trigger mode: 0
Integration Time (sec): 4.000000E-1
Scans to average: 1
Nonlinearity correction enabled: false
Boxcar width: 0
Storing dark spectrum: false
XAxis mode: Wavelengths
Number of Pixels in Spectrum: 1024
>>>>>Begin Spectral Data<<<<<
801.071	27291
801.214	27393
801.356	27184
801.499	27096
801.641	27043
801.783	26940
801.926	27005
802.068	26902
802.211	26735
802.353	26872
802.496	26556
802.638	26667
802.78	26594
802.923	26571
803.065	26408
803.208	26613
803.35	26533
803.492	26659
803.635	26712
803.777	26655
803.919	26811
804.061	26944
804.204	26769
804.346	26686
804.488	26636
804.63	26568
804.773	26590
804.915	26712
805.057	26842
805.199	26769
805.341	26682
805.483	26823
805.626	26857
805.768	26735
805.91	26629
806.052	26800
806.194	26826
806.336	27001
806.478	26872
806.62	26777
806.762	26948
806.904	26952
807.046	27359
807.188	27287
807.33	27245
807.472	27321
807.614	27161
807.756	27176
807.898	27104
808.04	26940
808.182	26906
808.324	27032
808.465	27070
808.607	27169
808.749	27283
808.891	27462
809.033	27515
809.174	27530
809.316	27374
809.458	27496
809.6	27397
809.741	27629
809.883	27492
810.025	27599
810.166	27854
810.308	27736
810.45	27759
810.591	27800
810.733	27561
810.875	27416
811.016	27298
811.158	27367
811.299	27595
811.441	27576
811.582	27545
811.724	27408
811.865	27302
812.007	27325
812.148	27336
812.29	27466
812.431	27389
812.573	27591
812.714	27797
812.855	27880
812.997	28040
813.138	28185
813.279	28097
813.421	27960
813.562	27941
813.703	27854
813.845	27739
813.986	27439
814.127	27150
814.268	27214
814.41	27119
814.551	26982
814.692	27230
814.833	27074
814.974	27024
815.115	26967
815.256	26807
815.397	26914
815.539	26925
815.68	26910
815.821	26792
815.962	26944
816.103	26845
816.244	26678
816.385	26648
816.526	26617
816.666	26503
816.807	26423
816.948	26518
817.089	26495
817.23	26507
817.371	26503
817.512	26301
817.653	26442
817.793	26377
817.934	26317
818.075	26324
818.216	26408
818.356	26339
818.497	26134
818.638	26115
818.778	26142
818.919	26252
819.06	26263
819.2	26282
819.341	26473
819.481	26259
819.622	26511
819.762	26727
819.903	26750
820.043	26537
820.184	26484
820.324	26393
820.465	26469
820.605	26518
820.746	26602
820.886	26362
821.026	26442
821.167	26488
821.307	26556
821.447	26408
821.588	26271
821.728	26244
821.868	25925
822.008	25879
822.149	25814
822.289	25887
822.429	25704
822.569	25499
822.709	25620
822.849	25324
822.99	25377
823.13	25251
823.27	25187
823.41	25187
823.55	25122
823.69	25190
823.83	25209
823.97	25099
824.11	25000
824.25	24932
824.389	24932
824.529	25076
824.669	25023
824.809	24981
824.949	25053
825.089	25061
825.228	25084
825.368	24760
825.508	24783
825.648	24943
825.787	24886
825.927	24897
826.067	24711
826.206	24886
826.346	24909
826.485	24913
826.625	24817
826.765	24924
826.904	24935
827.044	24616
827.183	24677
827.323	24597
827.462	24555
827.601	24460
827.741	24483
827.88	24578
828.02	24422
828.159	24570
828.298	24673
828.437	24688
828.577	24342
828.716	24654
828.855	24357
828.994	24213
829.134	24239
829.273	24266
829.412	24289
829.551	24114
829.69	24270
829.829	24369
829.968	24319
830.107	24403
830.246	24384
830.385	24277
830.524	24079
830.663	24060
830.802	24003
830.941	23916
831.08	23882
831.219	23912
831.357	23939
831.496	24159
831.635	23882
831.774	23733
831.913	23802
832.051	23760
832.19	23623
832.329	23649
832.467	23627
832.606	23589
832.744	23490
832.883	23543
833.022	23543
833.16	23452
833.299	23589
833.437	23710
833.576	23748
833.714	23783
833.852	23707
833.991	23657
834.129	23687
834.267	23722
834.406	23566
834.544	23726
834.682	23699
834.821	23699
834.959	23760
835.097	23630
835.235	23661
835.373	23604
835.511	23570
835.65	23322
835.788	23440
835.926	23379
836.064	23155
836.202	23299
836.34	23433
836.478	23589
836.615	23337
836.753	23417
836.891	23535
837.029	23471
837.167	23463
837.305	23360
837.443	23455
837.58	23425
837.718	23482
837.856	23512
837.993	23223
838.131	23372
838.269	23162
838.406	23288
838.544	23109
838.681	22957
838.819	22980
838.956	22793
839.094	22717
839.231	22927
839.369	22908
839.506	23284
839.643	23117
839.781	22831
839.918	22771
840.055	22778
840.193	22729
840.33	22698
840.467	22691
840.604	22656
840.742	23022
840.879	22626
841.016	22691
841.153	22626
841.29	22771
841.427	22622
841.564	22710
841.701	22721
841.838	22653
841.975	22577
842.112	22615
842.249	22554
842.385	22508
842.522	22637
842.659	22653
842.796	22462
842.933	22588
843.069	22424
843.206	22462
843.343	22550
843.479	22466
843.616	22367
843.752	22341
843.889	22284
844.025	22382
844.162	22147
844.298	22325
844.435	22314
844.571	22230
844.708	22295
844.844	22367
844.98	22398
845.117	22356
845.253	22196
845.389	22139
845.525	22207
845.661	22097
845.798	21979
845.934	22074
846.07	21941
846.206	22074
846.342	22021
846.478	21873
846.614	21899
846.75	21682
846.886	21667
847.022	21766
847.158	21652
847.294	21637
847.429	21641
847.565	21663
847.701	21895
847.837	21507
847.972	21496
848.108	21595
848.244	21530
848.379	21450
848.515	21275
848.65	21378
848.786	21363
848.921	21260
849.057	21393
849.192	21298
849.328	21302
849.463	21302
849.598	21211
849.734	21199
849.869	21180
850.004	21077
850.14	21138
850.275	21077
850.41	21047
850.545	20956
850.68	21100
850.815	21169
850.95	21192
851.085	21230
851.22	21260
851.355	21127
851.49	21074
851.625	21028
851.76	21081
851.895	20956
852.03	21032
852.165	21039
852.299	21074
852.434	21222
852.569	21180
852.703	21055
852.838	21051
852.973	21176
853.107	21108
853.242	21093
853.376	20921
853.511	20804
853.645	20823
853.78	21009
853.914	20929
854.048	20853
854.183	20918
854.317	20880
854.451	21093
854.585	20906
854.72	20975
854.854	20929
854.988	20842
855.122	20960
855.256	20705
855.39	20887
855.524	20998
855.658	20872
855.792	20857
855.926	20876
856.06	20899
856.194	20864
856.327	20830
856.461	20845
856.595	20754
856.729	20918
856.862	21001
856.996	20933
857.13	21036
857.263	20899
857.397	21070
857.53	20902
857.664	20868
857.797	21051
857.931	20914
858.064	20971
858.197	21017
858.331	20845
858.464	20788
858.597	20830
858.731	20842
858.864	20880
858.997	20861
859.13	20929
859.263	20857
859.396	20967
859.529	20811
859.662	20811
859.795	20819
859.928	20781
860.061	21066
860.194	21055
860.327	21032
860.46	21020
860.592	20906
860.725	20933
860.858	20944
860.99	20811
861.123	20800
861.256	20804
861.388	20845
861.521	21599
861.653	20777
861.786	20682
861.918	20712
862.05	20826
862.183	20724
862.315	20864
862.447	20914
862.58	20762
862.712	20708
862.844	20549
862.976	20678
863.108	20663
863.24	20925
863.372	20636
863.504	20689
863.636	20526
863.768	20674
863.9	20651
864.032	20537
864.164	20678
864.296	20663
864.428	20705
864.559	20682
864.691	20678
864.823	20629
864.954	20434
865.086	20636
865.217	20575
865.349	20408
865.48	20507
865.612	20473
865.743	20651
865.875	20552
866.006	20530
866.137	20670
866.269	20556
866.4	20522
866.531	20427
866.662	20492
866.793	20423
866.924	20385
867.055	20438
867.186	20533
867.317	20423
867.448	20499
867.579	20492
867.71	20374
867.841	20377
867.972	20461
868.103	20396
868.233	20446
868.364	20488
868.495	20511
868.625	20655
868.756	20773
868.886	20636
869.017	20663
869.147	20781
869.278	20857
869.408	20716
869.539	20720
869.669	20663
869.799	20823
869.929	20857
870.06	20758
870.19	21009
870.32	21032
870.45	21077
870.58	21127
870.71	21112
870.84	21142
870.97	21096
871.1	21024
871.23	21233
871.36	21252
871.489	21192
871.619	21321
871.749	21233
871.879	21264
872.008	21454
872.138	21203
872.267	21119
872.397	21157
872.526	21233
872.656	21093
872.785	21032
872.915	21332
873.044	21344
873.173	21348
873.303	21329
873.432	21329
873.561	21386
873.69	21272
873.819	21450
873.948	21542
874.077	21485
874.206	21226
874.335	21420
874.464	21397
874.593	21511
874.722	21507
874.851	21519
874.979	21614
875.108	21545
875.237	21603
875.365	21500
875.494	21587
875.623	21610
875.751	21561
875.88	21713
876.008	21644
876.136	21656
876.265	21934
876.393	22040
876.521	21987
876.65	21937
876.778	21964
876.906	21873
877.034	21926
877.162	21873
877.29	21679
877.418	21949
877.546	21869
877.674	21816
877.802	21960
877.93	21865
878.058	21972
878.185	21789
878.313	21926
878.441	21907
878.568	21819
878.696	21823
878.824	21964
878.951	21956
879.079	22097
879.206	22215
879.333	22021
879.461	22063
879.588	22002
879.715	21892
879.842	22192
879.97	22070
880.097	21819
880.224	21694
880.351	21838
880.478	21743
880.605	21633
880.732	21732
880.859	21892
880.986	21751
881.112	21698
881.239	21485
881.366	21481
881.493	21424
881.619	21256
881.746	21351
881.872	21408
881.999	21275
882.125	21176
882.252	21222
882.378	21329
882.505	21538
882.631	21275
882.757	21058
882.883	21138
883.01	21001
883.136	20933
883.262	20944
883.388	20906
883.514	21146
883.64	20982
883.766	20971
883.892	20781
884.018	20811
884.143	20986
884.269	21028
884.395	20697
884.52	20701
884.646	20640
884.772	20648
884.897	20552
885.023	20708
885.148	20674
885.274	20819
885.399	20754
885.524	20708
885.65	20727
885.775	20609
885.9	20579
886.025	20792
886.15	20743
886.275	20469
886.4	20621
886.525	20598
886.65	20682
886.775	20549
886.9	20712
887.025	20758
887.149	20560
887.274	20419
887.399	20396
887.523	20377
887.648	20374
887.773	20290
887.897	20522
888.021	20446
888.146	20389
888.27	20526
888.395	20545
888.519	20495
888.643	20492
888.767	20488
888.891	20389
889.015	20290
889.139	20214
889.263	20286
889.387	20358
889.511	20461
889.635	20290
889.759	20176
889.883	20206
890.006	20275
890.13	20218
890.254	20206
890.377	20153
890.501	19944
890.624	19902
890.748	20157
890.871	20027
890.995	19776
891.118	19826
891.241	19818
891.364	19845
891.488	19871
891.611	19734
891.734	19830
891.857	19799
891.98	19868
892.103	19871
892.226	19803
892.349	19738
892.471	19544
892.594	19769
892.717	19845
892.839	19742
892.962	19765
893.085	19818
893.207	19784
893.33	19563
893.452	19693
893.575	19734
893.697	19647
893.819	19765
893.941	19902
894.064	19879
894.186	19635
894.308	19662
894.43	19803
894.552	19982
894.674	19769
894.796	19708
894.918	19693
895.04	19647
895.161	19693
895.283	19624
895.405	19647
895.526	19715
895.648	19632
895.769	19700
895.891	19742
896.012	19814
896.134	19856
896.255	19723
896.376	19632
896.498	19742
896.619	19757
896.74	19799
896.861	19769
896.982	20100
897.103	20100
897.224	19986
897.345	19978
897.466	19837
897.587	19925
897.708	20008
897.828	20096
897.949	19833
898.07	19830
898.19	19841
898.311	19989
898.431	19879
898.552	19928
898.672	20142
898.792	19921
898.913	19959
899.033	19818
899.153	19632
899.273	19704
899.393	19643
899.513	19639
899.633	19712
899.753	19757
899.873	19616
899.993	19852
900.113	19586
900.232	19620
900.352	19609
900.472	19464
900.591	19422
900.711	19533
900.83	19422
900.95	19533
901.069	19529
901.189	19388
901.308	19187
901.427	19027
901.546	19084
901.665	19209
901.784	19046
901.904	18894
902.023	18973
902.141	18623
902.26	18681
902.379	18661
902.498	18479
902.617	18551
902.735	18650
902.854	18490
902.973	18471
903.091	18281
903.21	18361
903.328	18277
903.446	18235
903.565	18003
903.683	18117
903.801	17931
903.919	17973
904.038	17992
904.156	17908
904.274	17885
904.392	17893
904.51	17828
904.627	17851
904.745	17859
904.863	17908
904.981	17646
905.098	17505
905.216	17474
905.334	17611
905.451	17653
905.569	17516
905.686	17581
905.803	17471
905.921	17337
906.038	17478
906.155	17296
906.272	17170
906.389	17239
906.506	17166
906.623	17128
906.74	16980
906.857	17003
906.974	17045
907.091	17121
907.208	17143
907.324	17067
907.441	17022
907.557	16858
907.674	16858
907.79	16797
907.907	16725
908.023	16824
908.139	16858
908.256	16801
908.372	16660
908.488	16656
908.604	16573
908.72	16493
908.836	16516
908.952	16493
909.068	16493
909.184	16645
909.3	16546
909.415	16474
909.531	16409
909.647	16204
909.762	16181
909.878	16101
909.993	16265
910.108	16226
910.224	16147
910.339	16128
910.454	16093
910.57	16051
910.685	15956
910.8	16200
910.915	16223
911.03	16150
911.145	15907
911.259	15861
911.374	15736
911.489	15766
911.604	15766
911.718	15507
911.833	15603
911.947	15458
912.062	15431
912.176	15416
912.291	15534
912.405	15481
912.519	15652
912.633	15663
912.748	15610
912.862	15466
912.976	15382
913.09	15268
913.204	15264
913.318	15447
913.431	15599
913.545	15294
913.659	15439
913.772	15287
913.886	15173
914	15211
914.113	15230
914.226	15268
914.34	15298
914.453	15116
914.566	15260
914.68	15100
914.793	15005
914.906	14891
915.019	14811
915.132	14731
915.245	14746
915.358	14906
915.47	14891
915.583	14765
915.696	14807
915.809	14937
915.921	14975
916.034	14796
916.146	14621
916.259	14655
916.371	14823
916.483	14758
916.595	14663
916.708	14678
916.82	14670
916.932	14640
917.044	14617
917.156	14457
917.268	14381
917.38	14476
917.491	14427
917.603	14564
917.715	14587
917.826	14461
917.938	14339
918.049	14221
918.161	14393
918.272	14495
918.384	14537
918.495	14423
918.606	14324
918.717	14145
918.828	14282
918.939	14336
919.05	14187
919.161	14237
919.272	14031
919.383	14024
919.494	14301
919.604	14423
919.715	14187
919.826	14107
919.936	14149
920.047	14210
920.157	14225
920.267	14347
920.378	14267
920.488	14172
920.598	14446
920.708	14514
920.818	14343
920.928	14347
921.038	14446
921.148	14457
921.258	14233
921.368	14111
921.477	13978
921.587	13860
921.697	13814
921.806	13955
921.916	13868
922.025	13681
922.134	13624
922.244	13480
922.353	13674
922.462	13449
922.571	13369
922.68	13236
922.789	13190
922.898	13259
923.007	13244
923.116	13297
923.224	13282
923.333	13225
923.442	13050
923.55	13095
923.659	13031
923.767	13171
923.876	12970
923.984	13145
924.092	12962
924.201	13061
924.309	12935
924.417	12989
924.525	12837
924.633	12935
924.741	13658
924.849	12719
924.956	12905
925.064	12616
925.172	12665
925.279	12688
925.387	12650
925.494	12650
925.602	12768
925.709	12711
925.816	12471
925.924	12608
926.031	12658
926.138	12627
926.245	12642
926.352	12559
926.459	12662
926.566	12665
926.673	12559
926.779	12399
926.886	12350
926.993	12289
927.099	12163
927.206	12216
927.312	12235
927.419	12292
927.525	12213
927.631	12197
927.737	12197
927.843	12117
927.95	11961
928.056	12064
928.162	12068
928.267	12140
928.373	12601
928.479	12045
928.585	11950
928.69	12034
928.796	12030
928.901	11980
929.007	11874
929.112	12022
929.218	11904
929.323	11908
929.428	11798
929.533	11878
929.638	11699
929.743	11726
929.848	11832
929.953	11767
930.058	11600
930.163	11467
930.267	11600
930.372	11630
930.477	11459
930.581	11794
930.685	11490
930.79	11356
930.894	11376
930.998	11311
931.103	11425
931.207	11155
931.311	11094
931.415	10980
931.519	10809
931.623	10805
