Data from test_V78500241_300.txt Node
Date: Fri Mar 25 15:11:56 CST 2022
User: usil
Spectrometer: V785-0024
Trigger mode: 0
Integration Time (sec): 4.000000E-1
Scans to average: 1
Nonlinearity correction enabled: false
Boxcar width: 0
Storing dark spectrum: false
XAxis mode: Wavelengths
Number of Pixels in Spectrum: 1024
>>>>>Begin Spectral Data<<<<<
801.071	27987
801.214	27854
801.356	27625
801.499	27564
801.641	27450
801.783	27370
801.926	27389
802.068	27496
802.211	27416
802.353	27298
802.496	27142
802.638	27264
802.78	27013
802.923	26963
803.065	26925
803.208	27043
803.35	27051
803.492	27055
803.635	27173
803.777	27203
803.919	27184
804.061	27553
804.204	27363
804.346	27116
804.488	26975
804.63	27096
804.773	26895
804.915	27005
805.057	27378
805.199	27009
805.341	27218
805.483	27249
805.626	27306
805.768	27138
805.91	27226
806.052	27222
806.194	27131
806.336	27511
806.478	27317
806.62	27363
806.762	27435
806.904	27511
807.046	27797
807.188	27515
807.33	27652
807.472	27682
807.614	27515
807.756	27572
807.898	27568
808.04	27507
808.182	27351
808.324	27526
808.465	27534
808.607	27667
808.749	27911
808.891	28143
809.033	27972
809.174	27998
809.316	27778
809.458	27991
809.6	27850
809.741	27922
809.883	28013
810.025	28097
810.166	28029
810.308	28147
810.45	27964
810.591	28032
810.733	27964
810.875	27842
811.016	27690
811.158	27644
811.299	27827
811.441	27930
811.582	27914
811.724	27709
811.865	27736
812.007	27903
812.148	27812
812.29	27922
812.431	27899
812.573	28093
812.714	28131
812.855	28295
812.997	28398
813.138	28413
813.279	28314
813.421	28310
813.562	28325
813.703	28120
813.845	27983
813.986	27679
814.127	27587
814.268	27374
814.41	27496
814.551	27386
814.692	27538
814.833	27272
814.974	27340
815.115	27492
815.256	27275
815.397	27252
815.539	27279
815.68	27256
815.821	27062
815.962	27264
816.103	27161
816.244	27104
816.385	26998
816.526	26933
816.666	26731
816.807	26644
816.948	26670
817.089	26823
817.23	26743
817.371	26556
817.512	26686
817.653	26533
817.793	26613
817.934	26594
818.075	26735
818.216	26640
818.356	26640
818.497	26583
818.638	26343
818.778	26362
818.919	26298
819.06	26537
819.2	26518
819.341	26594
819.481	26484
819.622	26834
819.762	26944
819.903	26902
820.043	26720
820.184	26743
820.324	26716
820.465	26880
820.605	26811
820.746	26743
820.886	26648
821.026	26575
821.167	26705
821.307	26682
821.447	26590
821.588	26450
821.728	26324
821.868	26229
822.008	26134
822.149	26001
822.289	26073
822.429	25932
822.569	25875
822.709	25772
822.849	25578
822.99	25765
823.13	25460
823.27	25506
823.41	25350
823.55	25175
823.69	25468
823.83	25441
823.97	25377
824.11	24985
824.25	25202
824.389	25247
824.529	25331
824.669	25240
824.809	25240
824.949	25221
825.089	25198
825.228	25259
825.368	25076
825.508	25042
825.648	24890
825.787	25099
825.927	25141
826.067	25027
826.206	24943
826.346	25015
826.485	25053
826.625	24992
826.765	25050
826.904	25004
827.044	24951
827.183	24810
827.323	24719
827.462	24795
827.601	24696
827.741	24692
827.88	24817
828.02	24673
828.159	24711
828.298	24806
828.437	24711
828.577	24612
828.716	24871
828.855	24593
828.994	24426
829.134	24521
829.273	24448
829.412	24323
829.551	24273
829.69	24361
829.829	24479
829.968	24563
830.107	24532
830.246	24479
830.385	24311
830.524	24380
830.663	24281
830.802	24220
830.941	23965
831.08	24068
831.219	23958
831.357	23992
831.496	24216
831.635	23889
831.774	23958
831.913	23901
832.051	23756
832.19	23908
832.329	23771
832.467	23649
832.606	23684
832.744	23608
832.883	23589
833.022	23608
833.16	23668
833.299	23748
833.437	23665
833.576	23813
833.714	23802
833.852	23813
833.991	23946
834.129	23790
834.267	23767
834.406	23855
834.544	23779
834.682	23824
834.821	23817
834.959	23859
835.097	23558
835.235	23790
835.373	23737
835.511	23558
835.65	23710
835.788	23608
835.926	23543
836.064	23376
836.202	23341
836.34	23570
836.478	23619
836.615	23554
836.753	23745
836.891	23516
837.029	23668
837.167	23509
837.305	23376
837.443	23467
837.58	23512
837.718	23558
837.856	23459
837.993	23349
838.131	23402
838.269	23174
838.406	23372
838.544	23269
838.681	23136
838.819	22915
838.956	22869
839.094	22767
839.231	22915
839.369	23025
839.506	23322
839.643	23067
839.781	22820
839.918	22850
840.055	22831
840.193	22812
840.33	22828
840.467	22820
840.604	22824
840.742	23052
840.879	22622
841.016	22710
841.153	22862
841.29	22877
841.427	22721
841.564	22797
841.701	22816
841.838	22713
841.975	22611
842.112	22653
842.249	22664
842.385	22550
842.522	22710
842.659	22451
842.796	22462
842.933	22413
843.069	22478
843.206	22527
843.343	22588
843.479	22466
843.616	22565
843.752	22356
843.889	22215
844.025	22474
844.162	22257
844.298	22318
844.435	22367
844.571	22265
844.708	22303
844.844	22402
844.98	22432
845.117	22470
845.253	22268
845.389	22200
845.525	22211
845.661	22067
845.798	21964
845.934	21960
846.07	22025
846.206	22010
846.342	22124
846.478	21953
846.614	21759
846.75	21701
846.886	21671
847.022	21880
847.158	21854
847.294	21865
847.429	21709
847.565	21667
847.701	21911
847.837	21496
847.972	21454
848.108	21523
848.244	21469
848.379	21553
848.515	21313
848.65	21249
848.786	21249
848.921	21310
849.057	21599
849.192	21412
849.328	21378
849.463	21321
849.598	21283
849.734	21154
849.869	21203
850.004	21051
850.14	21024
850.275	21013
850.41	20937
850.545	20975
850.68	21024
850.815	21032
850.95	21096
851.085	21161
851.22	21203
851.355	21104
851.49	20982
851.625	21020
851.76	20979
851.895	20891
852.03	20868
852.165	20975
852.299	21116
852.434	21108
852.569	21142
852.703	20998
852.838	21180
852.973	21146
853.107	21169
853.242	21074
853.376	20834
853.511	20697
853.645	20792
853.78	21055
853.914	20883
854.048	20914
854.183	20857
854.317	20895
854.451	21089
854.585	20872
854.72	20804
854.854	20887
854.988	20845
855.122	20857
855.256	20705
855.39	20910
855.524	20883
855.658	20975
855.792	20868
855.926	20834
856.06	20883
856.194	20960
856.327	20944
856.461	20876
856.595	20781
856.729	20906
856.862	21020
856.996	20872
857.13	20952
857.263	21028
857.397	20910
857.53	20880
857.664	20895
857.797	20906
857.931	20948
858.064	20925
858.197	21051
858.331	20857
858.464	20773
858.597	20785
858.731	20880
858.864	20739
858.997	20765
859.13	20948
859.263	20739
859.396	21020
859.529	20830
859.662	20868
859.795	20731
859.928	20811
860.061	20982
860.194	20971
860.327	20834
860.46	20891
860.592	20937
860.725	21047
860.858	20963
860.99	20876
861.123	20800
861.256	20800
861.388	20842
861.521	21412
861.653	20739
861.786	20754
861.918	20743
862.05	20712
862.183	20727
862.315	20819
862.447	20899
862.58	20762
862.712	20549
862.844	20583
862.976	20598
863.108	20587
863.24	21024
863.372	20533
863.504	20571
863.636	20415
863.768	20670
863.9	20454
864.032	20503
864.164	20617
864.296	20613
864.428	20716
864.559	20629
864.691	20689
864.823	20575
864.954	20560
865.086	20549
865.217	20305
865.349	20370
865.48	20423
865.612	20412
865.743	20568
865.875	20476
866.006	20450
866.137	20484
866.269	20370
866.4	20442
866.531	20355
866.662	20305
866.793	20336
866.924	20408
867.055	20294
867.186	20400
867.317	20450
867.448	20320
867.579	20259
867.71	20404
867.841	20301
867.972	20423
868.103	20389
868.233	20495
868.364	20480
868.495	20484
868.625	20632
868.756	20758
868.886	20549
869.017	20590
869.147	20826
869.278	20644
869.408	20651
869.539	20632
869.669	20777
869.799	20773
869.929	20758
870.06	20792
870.19	20971
870.32	20899
870.45	20952
870.58	21028
870.71	21066
870.84	21093
870.97	21028
871.1	21017
871.23	21150
871.36	21142
871.489	21066
871.619	21173
871.749	21203
871.879	21302
872.008	21180
872.138	21306
872.267	21058
872.397	21081
872.526	21062
872.656	20960
872.785	21036
872.915	21294
873.044	21184
873.173	21279
873.303	21245
873.432	21260
873.561	21348
873.69	21287
873.819	21233
873.948	21249
874.077	21222
874.206	21233
874.335	21237
874.464	21428
874.593	21572
874.722	21408
874.851	21485
874.979	21591
875.108	21568
875.237	21389
875.365	21329
875.494	21424
875.623	21477
875.751	21447
875.88	21610
876.008	21583
876.136	21720
876.265	21812
876.393	21941
876.521	21983
876.65	21850
876.778	21766
876.906	21800
877.034	21857
877.162	21808
877.29	21690
877.418	21800
877.546	21960
877.674	21838
877.802	21903
877.93	21846
878.058	21823
878.185	21538
878.313	21945
878.441	21819
878.568	21530
878.696	21724
878.824	21960
878.951	21926
879.079	21949
879.206	22139
879.333	22017
879.461	21945
879.588	21991
879.715	22006
879.842	22143
879.97	21937
880.097	21679
880.224	21656
880.351	21690
880.478	21652
880.605	21587
880.732	21557
880.859	21968
880.986	21759
881.112	21656
881.239	21500
881.366	21363
881.493	21386
881.619	21268
881.746	21393
881.872	21264
881.999	21157
882.125	21165
882.252	21188
882.378	21192
882.505	21405
882.631	21108
882.757	20788
882.883	20986
883.01	20956
883.136	20857
883.262	20864
883.388	20823
883.514	20880
883.64	21104
883.766	20845
883.892	20651
884.018	20735
884.143	20982
884.269	20967
884.395	20545
884.52	20598
884.646	20625
884.772	20530
884.897	20522
885.023	20526
885.148	20743
885.274	20750
885.399	20758
885.524	20712
885.65	20621
885.775	20587
885.9	20514
886.025	20693
886.15	20560
886.275	20583
886.4	20518
886.525	20640
886.65	20511
886.775	20480
886.9	20621
887.025	20876
887.149	20621
887.274	20381
887.399	20221
887.523	20473
887.648	20301
887.773	20199
887.897	20492
888.021	20412
888.146	20415
888.27	20476
888.395	20381
888.519	20419
888.643	20305
888.767	20294
888.891	20290
889.015	20168
889.139	20237
889.263	20111
889.387	20339
889.511	20339
889.635	20339
889.759	20161
889.883	20073
890.006	20187
890.13	20259
890.254	20020
890.377	20084
890.501	19940
890.624	19906
890.748	20054
890.871	19795
890.995	19837
891.118	19651
891.241	19734
891.364	19898
891.488	19811
891.611	19845
891.734	19753
891.857	19811
891.98	19738
892.103	19814
892.226	19712
892.349	19696
892.471	19647
892.594	19662
892.717	19677
892.839	19677
892.962	19704
893.085	19761
893.207	19674
893.33	19525
893.452	19578
893.575	19674
893.697	19643
893.819	19799
893.941	19871
894.064	19830
894.186	19666
894.308	19594
894.43	19731
894.552	19712
894.674	19780
894.796	19575
894.918	19601
895.04	19632
895.161	19769
895.283	19712
895.405	19643
895.526	19635
895.648	19613
895.769	19696
895.891	19696
896.012	19708
896.134	19677
896.255	19704
896.376	19624
896.498	19776
896.619	19738
896.74	19662
896.861	19693
896.982	20031
897.103	20157
897.224	19955
897.345	19947
897.466	19868
897.587	20008
897.708	19970
897.828	19963
897.949	19814
898.07	19643
898.19	19814
898.311	19993
898.431	19849
898.552	19921
898.672	19860
898.792	19970
898.913	19769
899.033	19795
899.153	19635
899.273	19594
899.393	19582
899.513	19757
899.633	19670
899.753	19681
899.873	19571
899.993	19559
900.113	19597
900.232	19590
900.352	19643
900.472	19457
900.591	19441
900.711	19426
900.83	19438
900.95	19563
901.069	19384
901.189	19232
901.308	19076
901.427	18981
901.546	18985
901.665	19099
901.784	18966
901.904	18753
902.023	18719
902.141	18536
902.26	18608
902.379	18574
902.498	18532
902.617	18452
902.735	18536
902.854	18574
902.973	18475
903.091	18095
903.21	18163
903.328	18140
903.446	18167
903.565	18015
903.683	17950
903.801	17935
903.919	17939
904.038	17927
904.156	17737
904.274	17885
904.392	17649
904.51	17710
904.627	17764
904.745	17855
904.863	17760
904.981	17653
905.098	17436
905.216	17356
905.334	17421
905.451	17417
905.569	17368
905.686	17501
905.803	17391
905.921	17212
906.038	17341
906.155	17208
906.272	17117
906.389	17197
906.506	16953
906.623	16987
906.74	16942
906.857	16869
906.974	16885
907.091	16976
907.208	17121
907.324	16938
907.441	16828
907.557	16698
907.674	16706
907.79	16607
907.907	16630
908.023	16618
908.139	16645
908.256	16599
908.372	16588
908.488	16599
908.604	16405
908.72	16318
908.836	16417
908.952	16402
909.068	16314
909.184	16489
909.3	16398
909.415	16436
909.531	16333
909.647	16211
909.762	16044
909.878	16067
909.993	16055
910.108	16025
910.224	16006
910.339	16055
910.454	16017
910.57	15937
910.685	15804
910.8	16173
910.915	16082
911.03	15918
911.145	15774
911.259	15789
911.374	15675
911.489	15656
911.604	15564
911.718	15485
911.833	15462
911.947	15401
912.062	15222
912.176	15488
912.291	15454
912.405	15389
912.519	15622
912.633	15641
912.748	15428
912.862	15348
912.976	15188
913.09	15169
913.204	15279
913.318	15340
913.431	15287
913.545	15336
913.659	15310
913.772	15252
913.886	15093
914	15039
914.113	15081
914.226	15188
914.34	15089
914.453	15047
914.566	15005
914.68	14899
914.793	14918
914.906	14655
915.019	14727
915.132	14663
915.245	14735
915.358	14655
915.47	14807
915.583	14686
915.696	14678
915.809	14792
915.921	14796
916.034	14651
916.146	14598
916.259	14594
916.371	14629
916.483	14541
916.595	14431
916.708	14438
916.82	14617
916.932	14461
917.044	14533
917.156	14461
917.268	14339
917.38	14332
917.491	14309
917.603	14400
917.715	14415
917.826	14396
917.938	14244
918.049	14240
918.161	14423
918.272	14442
918.384	14442
918.495	14320
918.606	14157
918.717	14100
918.828	14126
918.939	14195
919.05	13993
919.161	14043
919.272	13913
919.383	14020
919.494	14157
919.604	14294
919.715	14145
919.826	13947
919.936	14103
920.047	14126
920.157	14092
920.267	14298
920.378	14149
920.488	14027
920.598	14244
920.708	14336
920.818	14237
920.928	14221
921.038	14377
921.148	14298
921.258	14111
921.368	13951
921.477	13906
921.587	13772
921.697	13700
921.806	13742
921.916	13666
922.025	13647
922.134	13392
922.244	13381
922.353	13411
922.462	13381
922.571	13289
922.68	13091
922.789	13057
922.898	13160
923.007	13164
923.116	13171
923.224	13118
923.333	13034
923.442	13027
923.55	12916
923.659	12985
923.767	13008
923.876	12909
923.984	12924
924.092	12840
924.201	12970
924.309	12924
924.417	12951
924.525	12760
924.633	12833
924.741	13495
924.849	12589
924.956	12703
925.064	12582
925.172	12437
925.279	12578
925.387	12593
925.494	12506
925.602	12642
925.709	12616
925.816	12471
925.924	12555
926.031	12604
926.138	12555
926.245	12521
926.352	12380
926.459	12662
926.566	12631
926.673	12448
926.779	12254
926.886	12194
926.993	12194
927.099	12209
927.206	12098
927.312	12167
927.419	12144
927.525	12148
927.631	12224
927.737	12015
927.843	12011
927.95	11893
928.056	11984
928.162	11939
928.267	12019
928.373	12601
928.479	12068
928.585	11748
928.69	11912
928.796	11893
928.901	11805
929.007	11722
929.112	11843
929.218	11718
929.323	11794
929.428	11668
929.533	11779
929.638	11691
929.743	11653
929.848	11718
929.953	11688
930.058	11577
930.163	11356
930.267	11436
930.372	11554
930.477	11360
930.581	11562
930.685	11410
930.79	11258
930.894	11337
930.998	11239
931.103	11414
931.207	10972
931.311	10946
931.415	10896
931.519	10698
931.623	10611
