Data from test_V78500241_2956.txt Node
Date: Fri Mar 25 15:30:26 CST 2022
User: usil
Spectrometer: V785-0024
Trigger mode: 0
Integration Time (sec): 4.000000E-1
Scans to average: 1
Nonlinearity correction enabled: false
Boxcar width: 0
Storing dark spectrum: false
XAxis mode: Wavelengths
Number of Pixels in Spectrum: 1024
>>>>>Begin Spectral Data<<<<<
801.071	27291
801.214	27161
801.356	26906
801.499	26952
801.641	26796
801.783	26781
801.926	26773
802.068	26571
802.211	26682
802.353	26632
802.496	26457
802.638	26336
802.78	26358
802.923	26313
803.065	26138
803.208	26320
803.35	26229
803.492	26438
803.635	26617
803.777	26404
803.919	26415
804.061	26777
804.204	26575
804.346	26514
804.488	26343
804.63	26400
804.773	26393
804.915	26469
805.057	26549
805.199	26507
805.341	26541
805.483	26655
805.626	26667
805.768	26530
805.91	26682
806.052	26632
806.194	26564
806.336	26849
806.478	26659
806.62	26636
806.762	26594
806.904	26925
807.046	27081
807.188	26990
807.33	27058
807.472	26982
807.614	26952
807.756	26883
807.898	26975
808.04	26773
808.182	26826
808.324	26823
808.465	26937
808.607	27077
808.749	27096
808.891	27291
809.033	27492
809.174	27195
809.316	27116
809.458	27310
809.6	27176
809.741	27321
809.883	27313
810.025	27496
810.166	27344
810.308	27466
810.45	27363
810.591	27427
810.733	27279
810.875	27275
811.016	27100
811.158	27043
811.299	27329
811.441	27321
811.582	27363
811.724	27211
811.865	27104
812.007	27093
812.148	27093
812.29	27112
812.431	27245
812.573	27412
812.714	27610
812.855	27686
812.997	27743
813.138	27918
813.279	27739
813.421	27667
813.562	27583
813.703	27515
813.845	27389
813.986	27077
814.127	26940
814.268	26746
814.41	26796
814.551	26746
814.692	26929
814.833	26792
814.974	26853
815.115	26937
815.256	26773
815.397	26754
815.539	26758
815.68	26530
815.821	26549
815.962	26648
816.103	26556
816.244	26488
816.385	26355
816.526	26393
816.666	26248
816.807	26024
816.948	26221
817.089	26164
817.23	26115
817.371	26142
817.512	26054
817.653	25906
817.793	26058
817.934	26130
818.075	26069
818.216	26115
818.356	26073
818.497	25921
818.638	25852
818.778	25780
818.919	25818
819.06	25879
819.2	25978
819.341	26073
819.481	26043
819.622	26168
819.762	26408
819.903	26313
820.043	26301
820.184	26233
820.324	26122
820.465	26244
820.605	26088
820.746	26157
820.886	26199
821.026	26218
821.167	26237
821.307	26126
821.447	26111
821.588	25959
821.728	25788
821.868	25807
822.008	25525
822.149	25658
822.289	25529
822.429	25228
822.569	25324
822.709	25266
822.849	25152
822.99	25004
823.13	25008
823.27	24875
823.41	24795
823.55	24700
823.69	24939
823.83	24802
823.97	24741
824.11	24650
824.25	24703
824.389	24665
824.529	24692
824.669	24776
824.809	24753
824.949	24722
825.089	24764
825.228	24608
825.368	24467
825.508	24635
825.648	24608
825.787	24616
825.927	24547
826.067	24604
826.206	24578
826.346	24612
826.485	24623
826.625	24604
826.765	24677
826.904	24661
827.044	24327
827.183	24311
827.323	24220
827.462	24201
827.601	24270
827.741	24209
827.88	24197
828.02	24076
828.159	24091
828.298	24311
828.437	24338
828.577	24289
828.716	24334
828.855	24152
828.994	23847
829.134	23927
829.273	23935
829.412	23870
829.551	23992
829.69	23920
829.829	24038
829.968	23954
830.107	24076
830.246	23988
830.385	23923
830.524	23783
830.663	23748
830.802	23733
830.941	23604
831.08	23478
831.219	23547
831.357	23592
831.496	23722
831.635	23596
831.774	23463
831.913	23379
832.051	23284
832.19	23376
832.329	23299
832.467	23330
832.606	23185
832.744	23174
832.883	23197
833.022	23140
833.16	23242
833.299	23307
833.437	23223
833.576	23296
833.714	23200
833.852	23307
833.991	23406
834.129	23440
834.267	23436
834.406	23269
834.544	23277
834.682	23273
834.821	23345
834.959	23345
835.097	23242
835.235	23376
835.373	23220
835.511	23216
835.65	23071
835.788	23067
835.926	23044
836.064	22946
836.202	22858
836.34	23056
836.478	23113
836.615	22999
836.753	23128
836.891	23086
837.029	23090
837.167	23143
837.305	23056
837.443	23006
837.58	22949
837.718	23010
837.856	23006
837.993	22930
838.131	22968
838.269	22725
838.406	23052
838.544	22850
838.681	22603
838.819	22672
838.956	22500
839.094	22268
839.231	22428
839.369	22611
839.506	22824
839.643	22729
839.781	22447
839.918	22295
840.055	22367
840.193	22405
840.33	22249
840.467	22489
840.604	22409
840.742	22729
840.879	22192
841.016	22329
841.153	22333
841.29	22413
841.427	22382
841.564	22447
841.701	22382
841.838	22360
841.975	22272
842.112	22325
842.249	22226
842.385	22093
842.522	22322
842.659	22280
842.796	22131
842.933	22013
843.069	22097
843.206	21998
843.343	22234
843.479	22268
843.616	22143
843.752	21766
843.889	21953
844.025	22139
844.162	21857
844.298	21903
844.435	21869
844.571	21823
844.708	22017
844.844	22036
844.98	21945
845.117	22017
845.253	21816
845.389	21686
845.525	21819
845.661	21808
845.798	21705
845.934	21800
846.07	21690
846.206	21591
846.342	21717
846.478	21622
846.614	21447
846.75	21310
846.886	21325
847.022	21530
847.158	21370
847.294	21378
847.429	21405
847.565	21439
847.701	21500
847.837	21062
847.972	21047
848.108	21214
848.244	21112
848.379	20944
848.515	20971
848.65	20880
848.786	20960
848.921	20956
849.057	20994
849.192	20918
849.328	21116
849.463	20918
849.598	20906
849.734	20963
849.869	20876
850.004	20796
850.14	20762
850.275	20712
850.41	20560
850.545	20526
850.68	20712
850.815	20754
850.95	20697
851.085	20902
851.22	20796
851.355	20716
851.49	20663
851.625	20640
851.76	20750
851.895	20651
852.03	20674
852.165	20686
852.299	20720
852.434	20708
852.569	20712
852.703	20769
852.838	20796
852.973	20883
853.107	20849
853.242	20667
853.376	20522
853.511	20408
853.645	20419
853.78	20617
853.914	20632
854.048	20484
854.183	20476
854.317	20495
854.451	20712
854.585	20541
854.72	20465
854.854	20670
854.988	20457
855.122	20579
855.256	20415
855.39	20594
855.524	20571
855.658	20526
855.792	20575
855.926	20556
856.06	20617
856.194	20511
856.327	20571
856.461	20476
856.595	20480
856.729	20503
856.862	20613
856.996	20613
857.13	20613
857.263	20682
857.397	20659
857.53	20609
857.664	20568
857.797	20648
857.931	20564
858.064	20423
858.197	20609
858.331	20629
858.464	20518
858.597	20511
858.731	20533
858.864	20644
858.997	20522
859.13	20575
859.263	20629
859.396	20533
859.529	20484
859.662	20507
859.795	20518
859.928	20518
860.061	20712
860.194	20682
860.327	20533
860.46	20549
860.592	20708
860.725	20746
860.858	20667
860.99	20488
861.123	20415
861.256	20434
861.388	20518
861.521	21256
861.653	20385
861.786	20339
861.918	20263
862.05	20438
862.183	20423
862.315	20476
862.447	20499
862.58	20427
862.712	20240
862.844	20221
862.976	20355
863.108	20362
863.24	20758
863.372	20183
863.504	20301
863.636	20259
863.768	20157
863.9	20180
864.032	20202
864.164	20229
864.296	20237
864.428	20332
864.559	20298
864.691	20256
864.823	20157
864.954	20271
865.086	20187
865.217	20100
865.349	20134
865.48	20153
865.612	20134
865.743	20317
865.875	20183
866.006	20126
866.137	20126
866.269	20202
866.4	20111
866.531	20077
866.662	20164
866.793	20138
866.924	20012
867.055	20164
867.186	19982
867.317	20092
867.448	20050
867.579	20084
867.71	20012
867.841	20024
867.972	20164
868.103	20103
868.233	20138
868.364	20119
868.495	20164
868.625	20396
868.756	20499
868.886	20355
869.017	20248
869.147	20305
869.278	20438
869.408	20317
869.539	20343
869.669	20324
869.799	20434
869.929	20446
870.06	20374
870.19	20644
870.32	20625
870.45	20670
870.58	20781
870.71	20876
870.84	20796
870.97	20762
871.1	20689
871.23	20933
871.36	20857
871.489	20853
871.619	20960
871.749	20944
871.879	20979
872.008	21089
872.138	20971
872.267	21051
872.397	20872
872.526	20826
872.656	20739
872.785	20735
872.915	20921
873.044	21055
873.173	20990
873.303	21024
873.432	21051
873.561	21047
873.69	20979
873.819	20979
873.948	21074
874.077	20971
874.206	20857
874.335	21005
874.464	21028
874.593	21157
874.722	21089
874.851	21302
874.979	21336
875.108	21173
875.237	21066
875.365	21081
875.494	21184
875.623	21355
875.751	21180
875.88	21214
876.008	21382
876.136	21336
876.265	21622
876.393	21709
876.521	21724
876.65	21644
876.778	21614
876.906	21454
877.034	21622
877.162	21599
877.29	21633
877.418	21644
877.546	21633
877.674	21500
877.802	21580
877.93	21515
878.058	21530
878.185	21397
878.313	21534
878.441	21389
878.568	21504
878.696	21485
878.824	21545
878.951	21595
879.079	21675
879.206	21880
879.333	21682
879.461	21610
879.588	21644
879.715	21656
879.842	21747
879.97	21663
880.097	21393
880.224	21344
880.351	21492
880.478	21405
880.605	21370
880.732	21500
880.859	21542
880.986	21526
881.112	21393
881.239	21222
881.366	21135
881.493	20982
881.619	21043
881.746	21020
881.872	20990
881.999	20929
882.125	20933
882.252	20998
882.378	20948
882.505	20967
882.631	20845
882.757	20609
882.883	20644
883.01	20575
883.136	20514
883.262	20545
883.388	20408
883.514	20720
883.64	20689
883.766	20575
883.892	20393
884.018	20484
884.143	20689
884.269	20705
884.395	20351
884.52	20362
884.646	20423
884.772	20282
884.897	20237
885.023	20427
885.148	20370
885.274	20396
885.399	20351
885.524	20320
885.65	20343
885.775	20389
885.9	20469
886.025	20442
886.15	20362
886.275	20362
886.4	20259
886.525	20366
886.65	20263
886.775	20183
886.9	20370
887.025	20511
887.149	20282
887.274	20225
887.399	20088
887.523	20138
887.648	19928
887.773	20001
887.897	20126
888.021	20043
888.146	20111
888.27	20122
888.395	20191
888.519	20111
888.643	20039
888.767	20107
888.891	20043
889.015	19947
889.139	20001
889.263	19970
889.387	19947
889.511	20073
889.635	20043
889.759	19947
889.883	19841
890.006	19906
890.13	19898
890.254	19757
890.377	19837
890.501	19651
890.624	19613
890.748	19715
890.871	19639
890.995	19578
891.118	19449
891.241	19476
891.364	19514
891.488	19540
891.611	19502
891.734	19392
891.857	19460
891.98	19651
892.103	19422
892.226	19430
892.349	19362
892.471	19259
892.594	19400
892.717	19476
892.839	19365
892.962	19468
893.085	19529
893.207	19335
893.33	19308
893.452	19301
893.575	19434
893.697	19282
893.819	19658
893.941	19480
894.064	19483
894.186	19335
894.308	19377
894.43	19499
894.552	19666
894.674	19499
894.796	19297
894.918	19400
895.04	19362
895.161	19556
895.283	19441
895.405	19525
895.526	19396
895.648	19400
895.769	19407
895.891	19521
896.012	19407
896.134	19472
896.255	19483
896.376	19373
896.498	19487
896.619	19362
896.74	19369
896.861	19392
896.982	19757
897.103	19830
897.224	19624
897.345	19624
897.466	19674
897.587	19647
897.708	19803
897.828	19616
897.949	19685
898.07	19480
898.19	19514
898.311	19693
898.431	19597
898.552	19685
898.672	19734
898.792	19811
898.913	19658
899.033	19620
899.153	19430
899.273	19308
899.393	19396
899.513	19487
899.633	19514
899.753	19381
899.873	19468
899.993	19445
900.113	19419
900.232	19350
900.352	19354
900.472	19194
900.591	19152
900.711	19228
900.83	19209
900.95	19152
901.069	19282
901.189	19145
901.308	18840
901.427	18776
901.546	18779
901.665	18844
901.784	18886
901.904	18738
902.023	18608
902.141	18346
902.26	18342
902.379	18456
902.498	18334
902.617	18254
902.735	18376
902.854	18308
902.973	18228
903.091	18011
903.21	17958
903.328	17965
903.446	17927
903.565	17863
903.683	17836
903.801	17638
903.919	17882
904.038	17794
904.156	17661
904.274	17680
904.392	17649
904.51	17452
904.627	17608
904.745	17608
904.863	17615
904.981	17311
905.098	17231
905.216	17258
905.334	17341
905.451	17292
905.569	17299
905.686	17292
905.803	17303
905.921	16976
906.038	17105
906.155	17109
906.272	16961
906.389	16984
906.506	16725
906.623	16858
906.74	16771
906.857	16615
906.974	16710
907.091	16771
907.208	16995
907.324	16782
907.441	16755
907.557	16554
907.674	16596
907.79	16424
907.907	16402
908.023	16451
908.139	16493
908.256	16440
908.372	16394
908.488	16409
908.604	16417
908.72	16249
908.836	16188
908.952	16192
909.068	16215
909.184	16287
909.3	16234
909.415	16280
909.531	16181
909.647	15991
909.762	16002
909.878	15941
909.993	15983
910.108	15953
910.224	16002
910.339	15922
910.454	15892
910.57	15766
910.685	15667
910.8	15953
910.915	15899
911.03	15743
911.145	15648
911.259	15545
911.374	15542
911.489	15435
911.604	15428
911.718	15237
911.833	15321
911.947	15279
912.062	15199
912.176	15492
912.291	15458
912.405	15241
912.519	15572
912.633	15542
912.748	15378
912.862	15332
912.976	15142
913.09	15001
913.204	15089
913.318	15176
913.431	15237
913.545	15218
913.659	15203
913.772	15123
913.886	14971
914	14883
914.113	15100
914.226	15119
914.34	15036
914.453	14807
914.566	14906
914.68	14792
914.793	14792
914.906	14514
915.019	14537
915.132	14530
915.245	14480
915.358	14484
915.47	14537
915.583	14533
915.696	14469
915.809	14667
915.921	14667
916.034	14568
916.146	14431
916.259	14469
916.371	14522
916.483	14473
916.595	14454
916.708	14450
916.82	14431
916.932	14415
917.044	14339
917.156	14347
917.268	14229
917.38	14210
917.491	14153
917.603	14172
917.715	14278
917.826	14225
917.938	14138
918.049	14043
918.161	14176
918.272	14286
918.384	14313
918.495	14176
918.606	14062
918.717	14092
918.828	14058
918.939	14062
919.05	14027
919.161	13932
919.272	13818
919.383	13845
919.494	14020
919.604	14271
919.715	13989
919.826	13978
919.936	13909
920.047	14081
920.157	13909
920.267	14161
920.378	14043
920.488	13875
920.598	14111
920.708	14301
920.818	14084
920.928	14092
921.038	14210
921.148	14309
921.258	13963
921.368	13818
921.477	13658
921.587	13750
921.697	13578
921.806	13795
921.916	13586
922.025	13426
922.134	13255
922.244	13327
922.353	13499
922.462	13308
922.571	13221
922.68	13061
922.789	12951
922.898	13000
923.007	12920
923.116	12951
923.224	13057
923.333	12901
923.442	12928
923.55	12837
923.659	12939
923.767	12920
923.876	12715
923.984	12932
924.092	12745
924.201	12924
924.309	12753
924.417	12821
924.525	12677
924.633	12753
924.741	13449
924.849	12570
924.956	12642
925.064	12467
925.172	12441
925.279	12479
925.387	12536
925.494	12467
925.602	12642
925.709	12506
925.816	12323
925.924	12498
926.031	12559
926.138	12441
926.245	12517
926.352	12357
926.459	12517
926.566	12479
926.673	12327
926.779	12197
926.886	12243
926.993	12129
927.099	12110
927.206	12034
927.312	12007
927.419	12110
927.525	12022
927.631	12114
927.737	11885
927.843	11996
927.95	11805
928.056	11958
928.162	11931
928.267	11950
928.373	12547
928.479	11954
928.585	11699
928.69	11901
928.796	11950
928.901	11798
929.007	11581
929.112	11748
929.218	11672
929.323	11615
929.428	11566
929.533	11745
929.638	11573
929.743	11570
929.848	11554
929.953	11554
930.058	11459
930.163	11239
930.267	11364
930.372	11459
930.477	11315
930.581	11501
930.685	11372
930.79	11140
930.894	11189
930.998	11261
931.103	11288
931.207	10968
931.311	10976
931.415	10809
931.519	10641
931.623	10527
