Data from test_V78500241_2408.txt Node
Date: Fri Mar 25 15:26:37 CST 2022
User: usil
Spectrometer: V785-0024
Trigger mode: 0
Integration Time (sec): 4.000000E-1
Scans to average: 1
Nonlinearity correction enabled: false
Boxcar width: 0
Storing dark spectrum: false
XAxis mode: Wavelengths
Number of Pixels in Spectrum: 1024
>>>>>Begin Spectral Data<<<<<
801.071	27329
801.214	27150
801.356	26891
801.499	26895
801.641	26788
801.783	26746
801.926	26724
802.068	26819
802.211	26655
802.353	26701
802.496	26465
802.638	26442
802.78	26431
802.923	26286
803.065	26313
803.208	26389
803.35	26263
803.492	26492
803.635	26564
803.777	26473
803.919	26579
804.061	26807
804.204	26674
804.346	26530
804.488	26431
804.63	26423
804.773	26453
804.915	26530
805.057	26590
805.199	26438
805.341	26598
805.483	26663
805.626	26674
805.768	26632
805.91	26689
806.052	26697
806.194	26655
806.336	26853
806.478	26663
806.62	26705
806.762	26868
806.904	26853
807.046	27268
807.188	27043
807.33	27195
807.472	27184
807.614	27070
807.756	26944
807.898	26929
808.04	26849
808.182	26811
808.324	27005
808.465	26975
808.607	27165
808.749	27226
808.891	27321
809.033	27458
809.174	27374
809.316	27249
809.458	27199
809.6	27214
809.741	27313
809.883	27313
810.025	27500
810.166	27515
810.308	27530
810.45	27485
810.591	27412
810.733	27176
810.875	27222
811.016	27116
811.158	27180
811.299	27454
811.441	27408
811.582	27336
811.724	27180
811.865	27310
812.007	27142
812.148	27188
812.29	27203
812.431	27363
812.573	27564
812.714	27686
812.855	27888
812.997	27831
813.138	27831
813.279	27869
813.421	27770
813.562	27660
813.703	27667
813.845	27412
813.986	27192
814.127	27036
814.268	26918
814.41	26944
814.551	26933
814.692	26986
814.833	26773
814.974	26826
815.115	26944
815.256	26777
815.397	26746
815.539	26845
815.68	26651
815.821	26617
815.962	26697
816.103	26697
816.244	26564
816.385	26613
816.526	26537
816.666	26164
816.807	26103
816.948	26199
817.089	26301
817.23	26343
817.371	26176
817.512	26153
817.653	26172
817.793	26134
817.934	26187
818.075	26199
818.216	26130
818.356	26092
818.497	26069
818.638	25909
818.778	26081
818.919	25868
819.06	25951
819.2	26100
819.341	26065
819.481	26069
819.622	26328
819.762	26469
819.903	26415
820.043	26278
820.184	26377
820.324	26286
820.465	26275
820.605	26309
820.746	26336
820.886	26024
821.026	26351
821.167	26183
821.307	26305
821.447	26168
821.588	26130
821.728	25947
821.868	25780
822.008	25658
822.149	25742
822.289	25620
822.429	25270
822.569	25274
822.709	25453
822.849	25190
822.99	25198
823.13	25194
823.27	25072
823.41	24958
823.55	24901
823.69	25057
823.83	24966
823.97	24977
824.11	24768
824.25	24753
824.389	24757
824.529	24867
824.669	24787
824.809	24856
824.949	24806
825.089	24954
825.228	24779
825.368	24741
825.508	24696
825.648	24764
825.787	24654
825.927	24681
826.067	24601
826.206	24627
826.346	24688
826.485	24700
826.625	24631
826.765	24882
826.904	24837
827.044	24418
827.183	24380
827.323	24266
827.462	24448
827.601	24319
827.741	24152
827.88	24296
828.02	24159
828.159	24327
828.298	24513
828.437	24391
828.577	24281
828.716	24452
828.855	24350
828.994	24045
829.134	24064
829.273	24098
829.412	24045
829.551	23999
829.69	24091
829.829	24057
829.968	24110
830.107	24129
830.246	24155
830.385	24049
830.524	23908
830.663	23794
830.802	23813
830.941	23699
831.08	23665
831.219	23687
831.357	23703
831.496	23923
831.635	23619
831.774	23653
831.913	23630
832.051	23471
832.19	23478
832.329	23444
832.467	23467
832.606	23292
832.744	23322
832.883	23436
833.022	23433
833.16	23372
833.299	23444
833.437	23414
833.576	23467
833.714	23433
833.852	23562
833.991	23421
834.129	23509
834.267	23509
834.406	23577
834.544	23501
834.682	23425
834.821	23459
834.959	23676
835.097	23482
835.235	23501
835.373	23543
835.511	23509
835.65	23322
835.788	23277
835.926	23151
836.064	23090
836.202	23170
836.34	23360
836.478	23463
836.615	23349
836.753	23353
836.891	23273
837.029	23372
837.167	23174
837.305	23159
837.443	23162
837.58	23181
837.718	23208
837.856	23200
837.993	23178
838.131	23151
838.269	23014
838.406	23094
838.544	22934
838.681	22885
838.819	22820
838.956	22603
839.094	22607
839.231	22611
839.369	22649
839.506	22987
839.643	22771
839.781	22599
839.918	22542
840.055	22664
840.193	22561
840.33	22626
840.467	22573
840.604	22645
840.742	22812
840.879	22428
841.016	22478
841.153	22379
841.29	22592
841.427	22599
841.564	22584
841.701	22557
841.838	22478
841.975	22531
842.112	22550
842.249	22341
842.385	22272
842.522	22527
842.659	22421
842.796	22242
842.933	22284
843.069	22306
843.206	22272
843.343	22375
843.479	22424
843.616	22344
843.752	22204
843.889	22166
844.025	22204
844.162	22162
844.298	22154
844.435	22074
844.571	21991
844.708	22051
844.844	22219
844.98	22337
845.117	22261
845.253	22048
845.389	22029
845.525	22013
845.661	21960
845.798	21724
845.934	21884
846.07	21663
846.206	21869
846.342	21854
846.478	21793
846.614	21648
846.75	21530
846.886	21511
847.022	21542
847.158	21515
847.294	21534
847.429	21610
847.565	21481
847.701	21812
847.837	21241
847.972	21180
848.108	21382
848.244	21382
848.379	21321
848.515	21237
848.65	21146
848.786	21214
848.921	21077
849.057	21287
849.192	21260
849.328	21260
849.463	21173
849.598	21146
849.734	21043
849.869	20948
850.004	20933
850.14	20948
850.275	20868
850.41	20842
850.545	20990
850.68	20857
850.815	20906
850.95	20845
851.085	21047
851.22	20960
851.355	20948
851.49	20975
851.625	20804
851.76	20845
851.895	20872
852.03	20838
852.165	20887
852.299	20876
852.434	21013
852.569	20929
852.703	20849
852.838	20921
852.973	21032
853.107	20982
853.242	20788
853.376	20773
853.511	20781
853.645	20602
853.78	20963
853.914	20746
854.048	20621
854.183	20739
854.317	20807
854.451	20921
854.585	20758
854.72	20682
854.854	20735
854.988	20697
855.122	20644
855.256	20659
855.39	20720
855.524	20834
855.658	20701
855.792	20659
855.926	20819
856.06	20830
856.194	20849
856.327	20731
856.461	20758
856.595	20606
856.729	20727
856.862	20868
856.996	20823
857.13	20773
857.263	20716
857.397	20762
857.53	20811
857.664	20693
857.797	20720
857.931	20750
858.064	20765
858.197	20861
858.331	20644
858.464	20724
858.597	20613
858.731	20568
858.864	20720
858.997	20750
859.13	20762
859.263	20857
859.396	20914
859.529	20659
859.662	20724
859.795	20712
859.928	20613
860.061	20883
860.194	20994
860.327	20872
860.46	20785
860.592	20830
860.725	20861
860.858	20891
860.99	20815
861.123	20659
861.256	20823
861.388	20670
861.521	21237
861.653	20617
861.786	20507
861.918	20564
862.05	20655
862.183	20708
862.315	20590
862.447	20743
862.58	20636
862.712	20518
862.844	20526
862.976	20644
863.108	20579
863.24	20796
863.372	20328
863.504	20370
863.636	20423
863.768	20533
863.9	20374
864.032	20347
864.164	20389
864.296	20415
864.428	20530
864.559	20549
864.691	20609
864.823	20434
864.954	20412
865.086	20488
865.217	20503
865.349	20328
865.48	20324
865.612	20309
865.743	20385
865.875	20351
866.006	20214
866.137	20484
866.269	20381
866.4	20328
866.531	20423
866.662	20313
866.793	20343
866.924	20119
867.055	20298
867.186	20210
867.317	20259
867.448	20103
867.579	20263
867.71	20385
867.841	20153
867.972	20221
868.103	20328
868.233	20366
868.364	20332
868.495	20438
868.625	20579
868.756	20598
868.886	20587
869.017	20549
869.147	20674
869.278	20522
869.408	20473
869.539	20640
869.669	20594
869.799	20476
869.929	20724
870.06	20625
870.19	20773
870.32	20792
870.45	20891
870.58	20864
870.71	21119
870.84	21089
870.97	20941
871.1	20906
871.23	20990
871.36	21142
871.489	21043
871.619	21108
871.749	21150
871.879	21150
872.008	21226
872.138	21043
872.267	21131
872.397	20925
872.526	21020
872.656	20967
872.785	21051
872.915	21127
873.044	21211
873.173	21154
873.303	21230
873.432	21195
873.561	21161
873.69	21245
873.819	21119
873.948	21184
874.077	21070
874.206	21195
874.335	21207
874.464	21233
874.593	21370
874.722	21355
874.851	21386
874.979	21492
875.108	21378
875.237	21302
875.365	21264
875.494	21428
875.623	21382
875.751	21298
875.88	21447
876.008	21545
876.136	21614
876.265	21892
876.393	21915
876.521	21907
876.65	21728
876.778	21846
876.906	21816
877.034	21816
877.162	21797
877.29	21591
877.418	21724
877.546	21728
877.674	21686
877.802	21751
877.93	21759
878.058	21713
878.185	21686
878.313	21717
878.441	21701
878.568	21542
878.696	21641
878.824	21717
878.951	21816
879.079	21926
879.206	22013
879.333	21915
879.461	21880
879.588	21831
879.715	21899
879.842	21972
879.97	21838
880.097	21652
880.224	21492
880.351	21485
880.478	21477
880.605	21549
880.732	21633
880.859	21854
880.986	21500
881.112	21606
881.239	21492
881.366	21310
881.493	21222
881.619	21192
881.746	21199
881.872	21199
881.999	21138
882.125	21142
882.252	21165
882.378	21108
882.505	21416
882.631	21070
882.757	20891
882.883	21028
883.01	20857
883.136	20819
883.262	20701
883.388	20693
883.514	20914
883.64	20853
883.766	20842
883.892	20579
884.018	20644
884.143	20910
884.269	20864
884.395	20575
884.52	20480
884.646	20587
884.772	20415
884.897	20408
885.023	20530
885.148	20560
885.274	20499
885.399	20629
885.524	20583
885.65	20454
885.775	20457
885.9	20454
886.025	20625
886.15	20560
886.275	20549
886.4	20332
886.525	20484
886.65	20480
886.775	20412
886.9	20514
887.025	20693
887.149	20469
887.274	20328
887.399	20355
887.523	20320
887.648	20225
887.773	20180
887.897	20278
888.021	20286
888.146	20229
888.27	20404
888.395	20328
888.519	20358
888.643	20278
888.767	20313
888.891	20115
889.015	20062
889.139	20092
889.263	20096
889.387	20134
889.511	20252
889.635	20164
889.759	20031
889.883	20084
890.006	20142
890.13	20195
890.254	20046
890.377	19944
890.501	19868
890.624	19791
890.748	19887
890.871	19826
890.995	19597
891.118	19651
891.241	19704
891.364	19738
891.488	19708
891.611	19712
891.734	19715
891.857	19746
891.98	19772
892.103	19655
892.226	19719
892.349	19605
892.471	19521
892.594	19601
892.717	19616
892.839	19540
892.962	19552
893.085	19632
893.207	19609
893.33	19483
893.452	19533
893.575	19651
893.697	19525
893.819	19750
893.941	19875
894.064	19769
894.186	19590
894.308	19491
894.43	19750
894.552	19746
894.674	19624
894.796	19480
894.918	19483
895.04	19616
895.161	19578
895.283	19632
895.405	19571
895.526	19571
895.648	19548
895.769	19578
895.891	19655
896.012	19700
896.134	19571
896.255	19460
896.376	19525
896.498	19582
896.619	19639
896.74	19605
896.861	19731
896.982	19970
897.103	20054
897.224	19879
897.345	19906
897.466	19704
897.587	19837
897.708	20005
897.828	19799
897.949	19582
898.07	19651
898.19	19715
898.311	19868
898.431	19689
898.552	19830
898.672	19875
898.792	19826
898.913	19841
899.033	19742
899.153	19620
899.273	19487
899.393	19559
899.513	19613
899.633	19700
899.753	19540
899.873	19491
899.993	19495
900.113	19350
900.232	19689
900.352	19365
900.472	19396
900.591	19278
900.711	19403
900.83	19316
900.95	19369
901.069	19548
901.189	19282
901.308	19015
901.427	18954
901.546	19034
901.665	18973
901.784	18939
901.904	18802
902.023	18696
902.141	18517
902.26	18563
902.379	18604
902.498	18384
902.617	18429
902.735	18475
902.854	18536
902.973	18388
903.091	18114
903.21	18239
903.328	18110
903.446	18049
903.565	18045
903.683	17897
903.801	17741
903.919	17901
904.038	17954
904.156	17684
904.274	17760
904.392	17718
904.51	17653
904.627	17760
904.745	17661
904.863	17653
904.981	17562
905.098	17455
905.216	17463
905.334	17433
905.451	17440
905.569	17383
905.686	17372
905.803	17307
905.921	17189
906.038	17299
906.155	17265
906.272	16999
906.389	17052
906.506	16927
906.623	17117
906.74	16778
906.857	16847
906.974	16793
907.091	17033
907.208	17045
907.324	16949
907.441	16744
907.557	16710
907.674	16679
907.79	16634
907.907	16584
908.023	16702
908.139	16755
908.256	16656
908.372	16516
908.488	16516
908.604	16382
908.72	16394
908.836	16504
908.952	16371
909.068	16432
909.184	16527
909.3	16348
909.415	16405
909.531	16516
909.647	16154
909.762	16131
909.878	16101
909.993	16048
910.108	16109
910.224	16032
910.339	15899
910.454	15968
910.57	15888
910.685	15857
910.8	16063
910.915	15975
911.03	15831
911.145	15785
911.259	15629
911.374	15633
911.489	15576
911.604	15568
911.718	15507
911.833	15507
911.947	15374
912.062	15192
912.176	15382
912.291	15420
912.405	15420
912.519	15614
912.633	15496
912.748	15466
912.862	15450
912.976	15291
913.09	15214
913.204	15214
913.318	15435
913.431	15344
913.545	15336
913.659	15378
913.772	15310
913.886	15131
914	15028
914.113	15195
914.226	15112
914.34	15127
914.453	15066
914.566	15150
914.68	14975
914.793	14944
914.906	14693
915.019	14701
915.132	14552
915.245	14701
915.358	14765
915.47	14746
915.583	14674
915.696	14720
915.809	14788
915.921	14792
916.034	14636
916.146	14579
916.259	14594
916.371	14640
916.483	14697
916.595	14590
916.708	14423
916.82	14503
916.932	14461
917.044	14469
917.156	14400
917.268	14377
917.38	14377
917.491	14412
917.603	14298
917.715	14530
917.826	14461
917.938	14343
918.049	14176
918.161	14343
918.272	14412
918.384	14492
918.495	14237
918.606	14328
918.717	14077
918.828	14107
918.939	14149
919.05	14065
919.161	14058
919.272	13909
919.383	13989
919.494	14138
919.604	14267
919.715	14088
919.826	14107
919.936	14073
920.047	14210
920.157	14149
920.267	14305
920.378	14123
920.488	14027
920.598	14320
920.708	14404
920.818	14183
920.928	14214
921.038	14362
921.148	14385
921.258	13982
921.368	13890
921.477	13887
921.587	13746
921.697	13696
921.806	13822
921.916	13632
922.025	13499
922.134	13476
922.244	13403
922.353	13514
922.462	13369
922.571	13240
922.68	13141
922.789	13206
922.898	13171
923.007	13091
923.116	13141
923.224	13164
923.333	13141
923.442	12989
923.55	12890
923.659	12954
923.767	13019
923.876	12913
923.984	12951
924.092	12875
924.201	12894
924.309	12863
924.417	12882
924.525	12810
924.633	12882
924.741	13746
924.849	12669
924.956	12749
925.064	12627
925.172	12528
925.279	12525
925.387	12635
925.494	12532
925.602	12669
925.709	12673
925.816	12456
925.924	12601
926.031	12601
926.138	12502
926.245	12582
926.352	12429
926.459	12585
926.566	12566
926.673	12365
926.779	12433
926.886	12334
926.993	12228
927.099	12136
927.206	12049
927.312	12106
927.419	12239
927.525	12133
927.631	12167
927.737	12049
927.843	12003
927.95	11904
928.056	12003
928.162	11920
928.267	12022
928.373	12677
928.479	12148
928.585	11882
928.69	11969
928.796	12068
928.901	11836
929.007	11665
929.112	11942
929.218	11824
929.323	11710
929.428	11688
929.533	11859
929.638	11581
929.743	11688
929.848	11653
929.953	11642
930.058	11543
930.163	11417
930.267	11429
930.372	11516
930.477	11353
930.581	11611
930.685	11433
930.79	11334
930.894	11372
930.998	11322
931.103	11463
931.207	11090
931.311	11014
931.415	10930
931.519	10736
931.623	10660
