Data from test_V78500241_590.txt Node
Date: Fri Mar 25 15:13:58 CST 2022
User: usil
Spectrometer: V785-0024
Trigger mode: 0
Integration Time (sec): 4.000000E-1
Scans to average: 1
Nonlinearity correction enabled: false
Boxcar width: 0
Storing dark spectrum: false
XAxis mode: Wavelengths
Number of Pixels in Spectrum: 1024
>>>>>Begin Spectral Data<<<<<
801.071	27450
801.214	27386
801.356	27279
801.499	27119
801.641	27096
801.783	27032
801.926	27116
802.068	26975
802.211	26864
802.353	26857
802.496	26617
802.638	26701
802.78	26583
802.923	26655
803.065	26511
803.208	26621
803.35	26750
803.492	26834
803.635	26891
803.777	26587
803.919	26697
804.061	27104
804.204	26651
804.346	26663
804.488	26655
804.63	26834
804.773	26735
804.915	26762
805.057	26864
805.199	26739
805.341	26902
805.483	27013
805.626	26933
805.768	26750
805.91	26838
806.052	26834
806.194	26830
806.336	27066
806.478	26937
806.62	26906
806.762	26979
806.904	27138
807.046	27511
807.188	27264
807.33	27389
807.472	27378
807.614	27344
807.756	27268
807.898	27043
808.04	27165
808.182	27169
808.324	27131
808.465	27165
808.607	27408
808.749	27389
808.891	27549
809.033	27690
809.174	27545
809.316	27511
809.458	27462
809.6	27515
809.741	27564
809.883	27500
810.025	27800
810.166	27819
810.308	27800
810.45	27781
810.591	27694
810.733	27603
810.875	27690
811.016	27443
811.158	27325
811.299	27580
811.441	27831
811.582	27770
811.724	27408
811.865	27488
812.007	27447
812.148	27504
812.29	27648
812.431	27656
812.573	27827
812.714	27812
812.855	27964
812.997	28147
813.138	28344
813.279	28181
813.421	28112
813.562	28150
813.703	27941
813.845	27842
813.986	27439
814.127	27275
814.268	27222
814.41	27211
814.551	27199
814.692	27222
814.833	27237
814.974	27161
815.115	27233
815.256	27138
815.397	26990
815.539	27157
815.68	27032
815.821	26971
815.962	26929
816.103	26796
816.244	26902
816.385	26796
816.526	26678
816.666	26590
816.807	26438
816.948	26450
817.089	26609
817.23	26663
817.371	26465
817.512	26480
817.653	26503
817.793	26461
817.934	26530
818.075	26427
818.216	26575
818.356	26503
818.497	26377
818.638	26358
818.778	26278
818.919	26176
819.06	26229
819.2	26457
819.341	26419
819.481	26514
819.622	26674
819.762	26967
819.903	26686
820.043	26689
820.184	26712
820.324	26598
820.465	26598
820.605	26579
820.746	26613
820.886	26526
821.026	26651
821.167	26549
821.307	26621
821.447	26404
821.588	26446
821.728	26336
821.868	26088
822.008	26100
822.149	25997
822.289	25989
822.429	25811
822.569	25556
822.709	25586
822.849	25601
822.99	25609
823.13	25407
823.27	25483
823.41	25274
823.55	25152
823.69	25335
823.83	25202
823.97	25217
824.11	25137
824.25	24977
824.389	25080
824.529	25221
824.669	25198
824.809	25247
824.949	25209
825.089	25240
825.228	25171
825.368	25095
825.508	25012
825.648	25118
825.787	25050
825.927	25152
826.067	24909
826.206	25004
826.346	25008
826.485	25057
826.625	25012
826.765	25160
826.904	25015
827.044	24631
827.183	24798
827.323	24700
827.462	24852
827.601	24700
827.741	24722
827.88	24681
828.02	24521
828.159	24646
828.298	24722
828.437	24711
828.577	24719
828.716	24623
828.855	24585
828.994	24475
829.134	24445
829.273	24384
829.412	24460
829.551	24247
829.69	24467
829.829	24460
829.968	24517
830.107	24391
830.246	24521
830.385	24308
830.524	24178
830.663	24178
830.802	24171
830.941	24030
831.08	24015
831.219	24133
831.357	24087
831.496	24220
831.635	23912
831.774	23984
831.913	23954
832.051	23977
832.19	23805
832.329	23882
832.467	23604
832.606	23676
832.744	23691
832.883	23817
833.022	23794
833.16	23798
833.299	23767
833.437	23668
833.576	23847
833.714	23752
833.852	23855
833.991	23786
834.129	23946
834.267	23687
834.406	23805
834.544	23870
834.682	23851
834.821	23722
834.959	23893
835.097	23741
835.235	23908
835.373	23737
835.511	23668
835.65	23630
835.788	23482
835.926	23539
836.064	23395
836.202	23493
836.34	23623
836.478	23714
836.615	23634
836.753	23570
836.891	23703
837.029	23608
837.167	23543
837.305	23570
837.443	23433
837.58	23292
837.718	23414
837.856	23535
837.993	23486
838.131	23402
838.269	23250
838.406	23250
838.544	23227
838.681	23124
838.819	23064
838.956	22873
839.094	22995
839.231	22942
839.369	23204
839.506	23315
839.643	23174
839.781	22938
839.918	22877
840.055	22934
840.193	22862
840.33	22797
840.467	22793
840.604	23018
840.742	23124
840.879	22812
841.016	22740
841.153	22877
841.29	22896
841.427	22900
841.564	22927
841.701	22812
841.838	22866
841.975	22691
842.112	22812
842.249	22675
842.385	22611
842.522	22660
842.659	22653
842.796	22588
842.933	22622
843.069	22679
843.206	22622
843.343	22565
843.479	22641
843.616	22641
843.752	22363
843.889	22459
844.025	22531
844.162	22455
844.298	22497
844.435	22421
844.571	22523
844.708	22367
844.844	22436
844.98	22531
845.117	22493
845.253	22363
845.389	22284
845.525	22348
845.661	22280
845.798	22055
845.934	22185
846.07	22048
846.206	22242
846.342	22192
846.478	22070
846.614	21888
846.75	21911
846.886	21945
847.022	21930
847.158	21797
847.294	21812
847.429	21838
847.565	21747
847.701	22109
847.837	21614
847.972	21618
848.108	21774
848.244	21694
848.379	21485
848.515	21488
848.65	21397
848.786	21557
848.921	21336
849.057	21526
849.192	21564
849.328	21515
849.463	21386
849.598	21511
849.734	21454
849.869	21192
850.004	21127
850.14	21245
850.275	21252
850.41	21188
850.545	21188
850.68	21226
850.815	21260
850.95	21199
851.085	21428
851.22	21298
851.355	21218
851.49	21218
851.625	21275
851.76	21226
851.895	21131
852.03	21184
852.165	21154
852.299	21135
852.434	21199
852.569	21378
852.703	21313
852.838	21348
852.973	21340
853.107	21310
853.242	21131
853.376	21032
853.511	20880
853.645	21142
853.78	21161
853.914	21085
854.048	20971
854.183	20960
854.317	21028
854.451	21237
854.585	21131
854.72	21047
854.854	21161
854.988	20921
855.122	21043
855.256	20994
855.39	21066
855.524	21066
855.658	21070
855.792	21157
855.926	21074
856.06	21032
856.194	21074
856.327	21005
856.461	20998
856.595	20975
856.729	21017
856.862	21161
856.996	21096
857.13	21116
857.263	21043
857.397	21032
857.53	21005
857.664	21100
857.797	21058
857.931	21165
858.064	21203
858.197	21161
858.331	20975
858.464	20967
858.597	20990
858.731	21096
858.864	20967
858.997	21055
859.13	21051
859.263	21032
859.396	21085
859.529	21089
859.662	21005
859.795	20971
859.928	21070
860.061	21222
860.194	21237
860.327	21062
860.46	21081
860.592	21176
860.725	21176
860.858	21192
860.99	21043
861.123	21013
861.256	20967
861.388	20986
861.521	21926
861.653	20982
861.786	20849
861.918	20914
862.05	21017
862.183	20925
862.315	20891
862.447	21093
862.58	20910
862.712	20804
862.844	20686
862.976	20815
863.108	20796
863.24	21142
863.372	20750
863.504	20781
863.636	20689
863.768	20762
863.9	20693
864.032	20659
864.164	20720
864.296	20785
864.428	20800
864.559	20834
864.691	20788
864.823	20781
864.954	20735
865.086	20796
865.217	20697
865.349	20461
865.48	20667
865.612	20644
865.743	20800
865.875	20632
866.006	20655
866.137	20617
866.269	20617
866.4	20579
866.531	20632
866.662	20579
866.793	20693
866.924	20606
867.055	20579
867.186	20644
867.317	20446
867.448	20556
867.579	20594
867.71	20446
867.841	20495
867.972	20606
868.103	20530
868.233	20549
868.364	20587
868.495	20571
868.625	20807
868.756	20960
868.886	20739
869.017	20724
869.147	20941
869.278	20887
869.408	20895
869.539	20823
869.669	20979
869.799	20929
869.929	20967
870.06	21013
870.19	21169
870.32	21051
870.45	21157
870.58	21154
870.71	21306
870.84	21287
870.97	21199
871.1	21157
871.23	21355
871.36	21473
871.489	21355
871.619	21310
871.749	21340
871.879	21355
872.008	21450
872.138	21443
872.267	21431
872.397	21249
872.526	21131
872.656	21237
872.785	21260
872.915	21435
873.044	21488
873.173	21386
873.303	21500
873.432	21496
873.561	21481
873.69	21526
873.819	21488
873.948	21568
874.077	21408
874.206	21439
874.335	21530
874.464	21542
874.593	21648
874.722	21507
874.851	21751
874.979	21671
875.108	21736
875.237	21557
875.365	21500
875.494	21656
875.623	21705
875.751	21568
875.88	21576
876.008	21781
876.136	21930
876.265	22006
876.393	22200
876.521	21994
876.65	22173
876.778	21953
876.906	21975
877.034	21983
877.162	22025
877.29	21930
877.418	22055
877.546	21994
877.674	22067
877.802	22051
877.93	22093
878.058	21869
878.185	21979
878.313	21998
878.441	22032
878.568	21766
878.696	21899
878.824	22021
878.951	22147
879.079	22128
879.206	22234
879.333	22128
879.461	22067
879.588	22261
879.715	22211
879.842	22310
879.97	22051
880.097	21934
880.224	21770
880.351	21812
880.478	21808
880.605	21865
880.732	21857
880.859	22040
880.986	21930
881.112	21846
881.239	21694
881.366	21568
881.493	21496
881.619	21405
881.746	21507
881.872	21488
881.999	21367
882.125	21462
882.252	21405
882.378	21397
882.505	21492
882.631	21393
882.757	21077
882.883	21298
883.01	21074
883.136	21085
883.262	21009
883.388	20986
883.514	21039
883.64	20921
883.766	21028
883.892	20948
884.018	20933
884.143	21036
884.269	21146
884.395	20872
884.52	20762
884.646	20792
884.772	20651
884.897	20598
885.023	20788
885.148	20861
885.274	20960
885.399	20724
885.524	20686
885.65	20773
885.775	20804
885.9	20739
886.025	20842
886.15	20815
886.275	20773
886.4	20651
886.525	20648
886.65	20678
886.775	20792
886.9	20777
887.025	20899
887.149	20811
887.274	20575
887.399	20488
887.523	20533
887.648	20564
887.773	20343
887.897	20701
888.021	20495
888.146	20617
888.27	20648
888.395	20686
888.519	20564
888.643	20587
888.767	20587
888.891	20488
889.015	20355
889.139	20442
889.263	20275
889.387	20404
889.511	20549
889.635	20457
889.759	20385
889.883	20317
890.006	20370
890.13	20271
890.254	20286
890.377	20332
890.501	20122
890.624	20069
890.748	20145
890.871	20027
890.995	19921
891.118	19811
891.241	19947
891.364	19940
891.488	20088
891.611	19913
891.734	19974
891.857	19974
891.98	19856
892.103	20122
892.226	19837
892.349	19822
892.471	19712
892.594	19849
892.717	19841
892.839	19883
892.962	19833
893.085	19841
893.207	19795
893.33	19742
893.452	19700
893.575	19803
893.697	19845
893.819	19963
893.941	20005
894.064	20065
894.186	19765
894.308	19826
894.43	19826
894.552	20005
894.674	19959
894.796	19719
894.918	19860
895.04	19765
895.161	19871
895.283	19921
895.405	19788
895.526	19909
895.648	19795
895.769	19951
895.891	19925
896.012	19856
896.134	19879
896.255	19814
896.376	19750
896.498	19822
896.619	19826
896.74	19849
896.861	19852
896.982	20145
897.103	20271
897.224	20088
897.345	19989
897.466	19963
897.587	20031
897.708	20225
897.828	20126
897.949	20130
898.07	19864
898.19	19978
898.311	20111
898.431	19932
898.552	19993
898.672	20115
898.792	20130
898.913	19982
899.033	19951
899.153	19947
899.273	19715
899.393	19826
899.513	19890
899.633	19791
899.753	19845
899.873	19704
899.993	19727
900.113	19776
900.232	19693
900.352	19750
900.472	19677
900.591	19628
900.711	19590
900.83	19438
900.95	19719
901.069	19635
901.189	19495
901.308	19190
901.427	19221
901.546	19145
901.665	19095
901.784	19164
901.904	19038
902.023	18913
902.141	18787
902.26	18627
902.379	18745
902.498	18692
902.617	18669
902.735	18635
902.854	18669
902.973	18658
903.091	18388
903.21	18334
903.328	18403
903.446	18285
903.565	18114
903.683	18254
903.801	18072
903.919	18060
904.038	18201
904.156	17988
904.274	18007
904.392	17923
904.51	17931
904.627	17916
904.745	17950
904.863	17908
904.981	17680
905.098	17566
905.216	17592
905.334	17665
905.451	17672
905.569	17570
905.686	17695
905.803	17604
905.921	17452
906.038	17478
906.155	17429
906.272	17379
906.389	17280
906.506	17212
906.623	17151
906.74	17121
906.857	16991
906.974	17003
907.091	17174
907.208	17296
907.324	17166
907.441	17079
907.557	16919
907.674	16850
907.79	16824
907.907	16782
908.023	16847
908.139	16885
908.256	16858
908.372	16691
908.488	16706
908.604	16599
908.72	16546
908.836	16615
908.952	16432
909.068	16626
909.184	16683
909.3	16577
909.415	16637
909.531	16607
909.647	16329
909.762	16341
909.878	16329
909.993	16310
910.108	16291
910.224	16234
910.339	16329
910.454	16204
910.57	16063
910.685	15964
910.8	16348
910.915	16261
911.03	16131
911.145	15846
911.259	15922
911.374	15934
911.489	15884
911.604	15759
911.718	15667
911.833	15625
911.947	15599
912.062	15473
912.176	15606
912.291	15614
912.405	15637
912.519	15827
912.633	15774
912.748	15728
912.862	15622
912.976	15481
913.09	15306
913.204	15397
913.318	15507
913.431	15557
913.545	15500
913.659	15599
913.772	15481
913.886	15325
914	15230
914.113	15374
914.226	15367
914.34	15340
914.453	15184
914.566	15351
914.68	15165
914.793	15104
914.906	14914
915.019	14895
915.132	14788
915.245	14792
915.358	14948
915.47	14880
915.583	14937
915.696	14914
915.809	15024
915.921	15036
916.034	14830
916.146	14811
916.259	14830
916.371	14845
916.483	14758
916.595	14754
916.708	14682
916.82	14689
916.932	14823
917.044	14720
917.156	14564
917.268	14522
917.38	14457
917.491	14476
917.603	14568
917.715	14590
917.826	14693
917.938	14606
918.049	14381
918.161	14511
918.272	14621
918.384	14689
918.495	14522
918.606	14415
918.717	14206
918.828	14305
918.939	14320
919.05	14282
919.161	14271
919.272	14111
919.383	14206
919.494	14309
919.604	14438
919.715	14313
919.826	14225
919.936	14298
920.047	14248
920.157	14317
920.267	14415
920.378	14278
920.488	14180
920.598	14419
920.708	14636
920.818	14396
920.928	14442
921.038	14461
921.148	14507
921.258	14214
921.368	14199
921.477	14016
921.587	13978
921.697	13921
921.806	14005
921.916	13799
922.025	13632
922.134	13670
922.244	13647
922.353	13757
922.462	13510
922.571	13521
922.68	13377
922.789	13255
922.898	13289
923.007	13350
923.116	13308
923.224	13331
923.333	13228
923.442	13103
923.55	13152
923.659	13129
923.767	13206
923.876	13187
923.984	13050
924.092	13019
924.201	13194
924.309	13084
924.417	12989
924.525	12973
924.633	12966
924.741	13723
924.849	12787
924.956	12947
925.064	12817
925.172	12707
925.279	12749
925.387	12741
925.494	12772
925.602	12886
925.709	12749
925.816	12544
925.924	12684
926.031	12745
926.138	12646
926.245	12745
926.352	12528
926.459	12635
926.566	12696
926.673	12604
926.779	12475
926.886	12433
926.993	12380
927.099	12323
927.206	12292
927.312	12258
927.419	12346
927.525	12270
927.631	12327
927.737	12273
927.843	12186
927.95	12015
928.056	12121
928.162	12144
928.267	12178
928.373	12810
928.479	12273
928.585	12030
928.69	12098
928.796	12072
928.901	12068
929.007	11836
929.112	11965
929.218	12007
929.323	11878
929.428	11863
929.533	12045
929.638	11893
929.743	11882
929.848	11920
929.953	11851
930.058	11764
930.163	11562
930.267	11619
930.372	11668
930.477	11493
930.581	11794
930.685	11581
930.79	11467
930.894	11490
930.998	11474
931.103	11509
931.207	11227
931.311	11174
931.415	10995
931.519	10847
931.623	10892
