Data from test_V78500241_2096.txt Node
Date: Fri Mar 25 15:24:27 CST 2022
User: usil
Spectrometer: V785-0024
Trigger mode: 0
Integration Time (sec): 4.000000E-1
Scans to average: 1
Nonlinearity correction enabled: false
Boxcar width: 0
Storing dark spectrum: false
XAxis mode: Wavelengths
Number of Pixels in Spectrum: 1024
>>>>>Begin Spectral Data<<<<<
801.071	27994
801.214	27857
801.356	27591
801.499	27549
801.641	27340
801.783	27511
801.926	27431
802.068	27393
802.211	27218
802.353	27329
802.496	27188
802.638	27131
802.78	27020
802.923	27062
803.065	26861
803.208	26933
803.35	27096
803.492	27188
803.635	27207
803.777	27112
803.919	27233
804.061	27466
804.204	27252
804.346	27230
804.488	27138
804.63	27291
804.773	27264
804.915	27260
805.057	27279
805.199	27279
805.341	27317
805.483	27435
805.626	27370
805.768	27348
805.91	27401
806.052	27291
806.194	27214
806.336	27534
806.478	27382
806.62	27393
806.762	27488
806.904	27667
807.046	27892
807.188	27835
807.33	27888
807.472	27934
807.614	27751
807.756	27812
807.898	27663
808.04	27644
808.182	27785
808.324	27667
808.465	27827
808.607	27895
808.749	27994
808.891	28128
809.033	28120
809.174	28124
809.316	27949
809.458	28025
809.6	27888
809.741	28093
809.883	28128
810.025	28261
810.166	28306
810.308	28322
810.45	28246
810.591	28124
810.733	27968
810.875	27956
811.016	28044
811.158	27770
811.299	28105
811.441	28067
811.582	28124
811.724	28147
811.865	27972
812.007	27911
812.148	28063
812.29	28051
812.431	28196
812.573	28287
812.714	28390
812.855	28485
812.997	28573
813.138	28831
813.279	28713
813.421	28523
813.562	28500
813.703	28253
813.845	28131
813.986	27937
814.127	27789
814.268	27751
814.41	27713
814.551	27694
814.692	27793
814.833	27679
814.974	27568
815.115	27755
815.256	27603
815.397	27603
815.539	27606
815.68	27500
815.821	27477
815.962	27420
816.103	27412
816.244	27218
816.385	27298
816.526	27321
816.666	27108
816.807	27039
816.948	26979
817.089	27043
817.23	26925
817.371	26918
817.512	27036
817.653	26990
817.793	26948
817.934	27112
818.075	26990
818.216	27047
818.356	27062
818.497	26762
818.638	26804
818.778	26636
818.919	26834
819.06	26758
819.2	26826
819.341	26910
819.481	26902
819.622	27287
819.762	27386
819.903	27226
820.043	27119
820.184	27192
820.324	27165
820.465	27188
820.605	27176
820.746	27173
820.886	27043
821.026	27241
821.167	27005
821.307	26998
821.447	26876
821.588	26899
821.728	26743
821.868	26686
822.008	26499
822.149	26533
822.289	26423
822.429	26218
822.569	26381
822.709	26237
822.849	26001
822.99	25982
823.13	25993
823.27	26050
823.41	25738
823.55	25776
823.69	25719
823.83	25814
823.97	25738
824.11	25556
824.25	25639
824.389	25529
824.529	25708
824.669	25590
824.809	25769
824.949	25571
825.089	25632
825.228	25674
825.368	25502
825.508	25476
825.648	25479
825.787	25457
825.927	25567
826.067	25430
826.206	25438
826.346	25445
826.485	25567
826.625	25468
826.765	25575
826.904	25647
827.044	25324
827.183	25228
827.323	25244
827.462	25259
827.601	25285
827.741	25095
827.88	25126
828.02	25126
828.159	25217
828.298	25179
828.437	25259
828.577	25179
828.716	25312
828.855	25171
828.994	24916
829.134	24909
829.273	25023
829.412	24837
829.551	24715
829.69	24913
829.829	24966
829.968	25103
830.107	25103
830.246	24935
830.385	24920
830.524	24829
830.663	24700
830.802	24601
830.941	24422
831.08	24719
831.219	24536
831.357	24631
831.496	24719
831.635	24517
831.774	24403
831.913	24414
832.051	24239
832.19	24197
832.329	24395
832.467	24190
832.606	24209
832.744	24106
832.883	24102
833.022	24114
833.16	24224
833.299	24289
833.437	24163
833.576	24270
833.714	24178
833.852	24334
833.991	24300
834.129	24410
834.267	24327
834.406	24262
834.544	24304
834.682	24197
834.821	24152
834.959	24311
835.097	24315
835.235	24323
835.373	24311
835.511	24136
835.65	24057
835.788	23950
835.926	23980
836.064	23866
836.202	23878
836.34	24011
836.478	24072
836.615	24133
836.753	24091
836.891	24117
837.029	24076
837.167	24003
837.305	23824
837.443	23847
837.58	23912
837.718	23882
837.856	23984
837.993	23809
838.131	23733
838.269	23733
838.406	23760
838.544	23680
838.681	23600
838.819	23528
838.956	23490
839.094	23440
839.231	23440
839.369	23558
839.506	23809
839.643	23623
839.781	23493
839.918	23360
840.055	23334
840.193	23322
840.33	23303
840.467	23311
840.604	23414
840.742	23562
840.879	23174
841.016	23223
841.153	23239
841.29	23448
841.427	23334
841.564	23315
841.701	23254
841.838	23212
841.975	23113
842.112	23098
842.249	23083
842.385	23086
842.522	23098
842.659	23265
842.796	23254
842.933	23041
843.069	22946
843.206	22984
843.343	23143
843.479	22927
843.616	23098
843.752	22816
843.889	22717
844.025	23022
844.162	22923
844.298	22877
844.435	22748
844.571	22873
844.708	22839
844.844	23014
844.98	22934
845.117	22858
845.253	22778
845.389	22767
845.525	22649
845.661	22694
845.798	22584
845.934	22630
846.07	22554
846.206	22618
846.342	22744
846.478	22535
846.614	22375
846.75	22291
846.886	22276
847.022	22310
847.158	22341
847.294	22497
847.429	22322
847.565	22246
847.701	22432
847.837	22051
847.972	22059
848.108	22097
848.244	22032
848.379	22021
848.515	21876
848.65	21911
848.786	21846
848.921	21892
849.057	22070
849.192	21994
849.328	21876
849.463	21850
849.598	21800
849.734	21774
849.869	21766
850.004	21633
850.14	21557
850.275	21637
850.41	21542
850.545	21610
850.68	21629
850.815	21808
850.95	21667
851.085	21739
851.22	21774
851.355	21770
851.49	21675
851.625	21717
851.76	21526
851.895	21481
852.03	21477
852.165	21595
852.299	21694
852.434	21644
852.569	21713
852.703	21587
852.838	21698
852.973	21774
853.107	21732
853.242	21488
853.376	21504
853.511	21348
853.645	21431
853.78	21603
853.914	21454
854.048	21443
854.183	21378
854.317	21545
854.451	21599
854.585	21504
854.72	21393
854.854	21405
854.988	21408
855.122	21454
855.256	21298
855.39	21367
855.524	21523
855.658	21374
855.792	21382
855.926	21500
856.06	21431
856.194	21519
856.327	21359
856.461	21313
856.595	21454
856.729	21428
856.862	21606
856.996	21492
857.13	21504
857.263	21561
857.397	21549
857.53	21507
857.664	21454
857.797	21538
857.931	21557
858.064	21572
858.197	21488
858.331	21245
858.464	21477
858.597	21310
858.731	21477
858.864	21492
858.997	21447
859.13	21447
859.263	21534
859.396	21580
859.529	21408
859.662	21462
859.795	21329
859.928	21374
860.061	21591
860.194	21549
860.327	21515
860.46	21466
860.592	21561
860.725	21618
860.858	21568
860.99	21397
861.123	21450
861.256	21386
861.388	21424
861.521	22204
861.653	21268
861.786	21199
861.918	21332
862.05	21370
862.183	21283
862.315	21431
862.447	21424
862.58	21310
862.712	21157
862.844	21161
862.976	21275
863.108	21112
863.24	21663
863.372	21199
863.504	21184
863.636	21089
863.768	21230
863.9	21237
864.032	21028
864.164	21264
864.296	21218
864.428	21245
864.559	21188
864.691	21199
864.823	21188
864.954	21142
865.086	21169
865.217	20975
865.349	20914
865.48	21062
865.612	21131
865.743	21283
865.875	21199
866.006	20982
866.137	20929
866.269	21100
866.4	20960
866.531	21043
866.662	20944
866.793	20933
866.924	20967
867.055	20994
867.186	21058
867.317	20963
867.448	20845
867.579	20975
867.71	20914
867.841	20941
867.972	21017
868.103	21009
868.233	21070
868.364	20952
868.495	21062
868.625	21272
868.756	21313
868.886	21032
869.017	21264
869.147	21272
869.278	21370
869.408	21214
869.539	21089
869.669	21348
869.799	21332
869.929	21310
870.06	21416
870.19	21428
870.32	21568
870.45	21553
870.58	21458
870.71	21694
870.84	21694
870.97	21663
871.1	21644
871.23	21736
871.36	21751
871.489	21918
871.619	21774
871.749	21808
871.879	21892
872.008	21926
872.138	21720
872.267	21892
872.397	21633
872.526	21564
872.656	21720
872.785	21641
872.915	21907
873.044	22010
873.173	21869
873.303	21903
873.432	21812
873.561	21865
873.69	21903
873.819	21793
873.948	21812
874.077	21823
874.206	21865
874.335	21861
874.464	21922
874.593	21926
874.722	22040
874.851	22105
874.979	22013
875.108	22055
875.237	21934
875.365	22021
875.494	22051
875.623	22120
875.751	21941
875.88	22109
876.008	22158
876.136	22299
876.265	22428
876.393	22542
876.521	22489
876.65	22474
876.778	22402
876.906	22382
877.034	22299
877.162	22417
877.29	22386
877.418	22390
877.546	22508
877.674	22409
877.802	22512
877.93	22344
878.058	22276
878.185	22306
878.313	22394
878.441	22386
878.568	22177
878.696	22523
878.824	22462
878.951	22409
879.079	22615
879.206	22691
879.333	22500
879.461	22352
879.588	22508
879.715	22421
879.842	22683
879.97	22436
880.097	22306
880.224	22341
880.351	22181
880.478	22181
880.605	22238
880.732	22223
880.859	22348
880.986	22238
881.112	22215
881.239	22162
881.366	21964
881.493	21880
881.619	21732
881.746	21918
881.872	21857
881.999	21720
882.125	21774
882.252	21816
882.378	21781
882.505	21861
882.631	21534
882.757	21302
882.883	21580
883.01	21568
883.136	21439
883.262	21382
883.388	21313
883.514	21412
883.64	21485
883.766	21428
883.892	21291
884.018	21363
884.143	21447
884.269	21583
884.395	21066
884.52	21131
884.646	21119
884.772	21184
884.897	21036
885.023	21108
885.148	21226
885.274	21313
885.399	21188
885.524	20998
885.65	21214
885.775	21119
885.9	21047
886.025	21180
886.15	21249
886.275	21062
886.4	21051
886.525	20982
886.65	20990
886.775	20994
886.9	21245
887.025	21351
887.149	21058
887.274	20887
887.399	20910
887.523	20891
887.648	20845
887.773	20785
887.897	20937
888.021	20941
888.146	20777
888.27	20918
888.395	21013
888.519	20941
888.643	20781
888.767	20876
888.891	20777
889.015	20811
889.139	20758
889.263	20670
889.387	20804
889.511	20883
889.635	20804
889.759	20731
889.883	20682
890.006	20781
890.13	20701
890.254	20617
890.377	20648
890.501	20370
890.624	20457
890.748	20484
890.871	20370
890.995	20282
891.118	20210
891.241	20199
891.364	20370
891.488	20343
891.611	20358
891.734	20122
891.857	20377
891.98	20256
892.103	20157
892.226	20176
892.349	20096
892.471	20088
892.594	20240
892.717	20176
892.839	20225
892.962	20115
893.085	20221
893.207	20183
893.33	20111
893.452	19951
893.575	20221
893.697	20206
893.819	20191
893.941	20389
894.064	20313
894.186	20103
894.308	20092
894.43	20142
894.552	20301
894.674	20301
894.796	20142
894.918	20084
895.04	20122
895.161	20142
895.283	20233
895.405	20081
895.526	20084
895.648	20172
895.769	20252
895.891	20180
896.012	20157
896.134	20206
896.255	20180
896.376	20149
896.498	20126
896.619	20191
896.74	20161
896.861	20294
896.982	20396
897.103	20583
897.224	20400
897.345	20465
897.466	20370
897.587	20377
897.708	20492
897.828	20427
897.949	20389
898.07	20263
898.19	20229
898.311	20412
898.431	20221
898.552	20434
898.672	20370
898.792	20415
898.913	20419
899.033	20275
899.153	20240
899.273	20122
899.393	20153
899.513	20115
899.633	20142
899.753	20107
899.873	20035
899.993	20153
900.113	20058
900.232	20103
900.352	19940
900.472	19997
900.591	19826
900.711	19944
900.83	19894
900.95	19837
901.069	20081
901.189	19776
901.308	19540
901.427	19502
901.546	19441
901.665	19449
901.784	19480
901.904	19354
902.023	19327
902.141	19122
902.26	19034
902.379	19088
902.498	19019
902.617	18973
902.735	19088
902.854	19034
902.973	18897
903.091	18795
903.21	18715
903.328	18703
903.446	18582
903.565	18372
903.683	18536
903.801	18410
903.919	18486
904.038	18486
904.156	18194
904.274	18391
904.392	18220
904.51	18152
904.627	18273
904.745	18289
904.863	18239
904.981	18125
905.098	17866
905.216	17882
905.334	17939
905.451	17893
905.569	17851
905.686	17931
905.803	17809
905.921	17760
906.038	17828
906.155	17779
906.272	17547
906.389	17554
906.506	17448
906.623	17455
906.74	17478
906.857	17303
906.974	17425
907.091	17570
907.208	17627
907.324	17448
907.441	17166
907.557	17185
907.674	17239
907.79	17083
907.907	17113
908.023	17121
908.139	17220
908.256	17151
908.372	17045
908.488	17045
908.604	16927
908.72	16816
908.836	16828
908.952	16721
909.068	16885
909.184	16949
909.3	16881
909.415	16896
909.531	16927
909.647	16717
909.762	16592
909.878	16618
909.993	16607
910.108	16542
910.224	16504
910.339	16691
910.454	16428
910.57	16409
910.685	16405
910.8	16660
910.915	16561
911.03	16299
911.145	16219
911.259	16181
911.374	16188
911.489	16055
911.604	16021
911.718	15964
911.833	15960
911.947	15880
912.062	15739
912.176	15922
912.291	15854
912.405	15922
912.519	16082
912.633	16097
912.748	16040
912.862	15781
912.976	15770
913.09	15584
913.204	15781
913.318	15793
913.431	15846
913.545	15785
913.659	15751
913.772	15667
913.886	15614
914	15622
914.113	15526
914.226	15682
914.34	15663
914.453	15466
914.566	15610
914.68	15523
914.793	15408
914.906	15150
915.019	15188
915.132	15195
915.245	15165
915.358	15112
915.47	15214
915.583	15192
915.696	15161
915.809	15214
915.921	15264
916.034	15188
916.146	15058
916.259	15066
916.371	15093
916.483	15093
916.595	14975
916.708	14921
916.82	14944
916.932	14937
917.044	15001
917.156	14990
917.268	14826
917.38	14845
917.491	14743
917.603	14743
917.715	14834
917.826	14876
917.938	14731
918.049	14640
918.161	14743
918.272	14876
918.384	14872
918.495	14701
918.606	14587
918.717	14533
918.828	14571
918.939	14480
919.05	14408
919.161	14568
919.272	14317
919.383	14446
919.494	14629
919.604	14712
919.715	14461
919.826	14473
919.936	14362
920.047	14541
920.157	14594
920.267	14765
920.378	14530
920.488	14431
920.598	14712
920.708	14743
920.818	14648
920.928	14659
921.038	14796
921.148	14765
921.258	14454
921.368	14347
921.477	14313
921.587	14267
921.697	14103
921.806	14206
921.916	14088
922.025	13921
922.134	13940
922.244	13860
922.353	13890
922.462	13799
922.571	13575
922.68	13594
922.789	13396
922.898	13590
923.007	13445
923.116	13544
923.224	13460
923.333	13464
923.442	13320
923.55	13331
923.659	13358
923.767	13331
923.876	13339
923.984	13392
924.092	13202
924.201	13335
924.309	13354
924.417	13232
924.525	13133
924.633	13160
924.741	14008
924.849	13027
924.956	13152
925.064	12928
925.172	12928
925.279	12878
925.387	12905
925.494	12996
925.602	13069
925.709	12970
925.816	12897
925.924	12924
926.031	12993
926.138	12817
926.245	12943
926.352	12840
926.459	12985
926.566	12981
926.673	12749
926.779	12745
926.886	12642
926.993	12551
927.099	12509
927.206	12528
927.312	12422
927.419	12547
927.525	12399
927.631	12494
927.737	12407
927.843	12350
927.95	12296
928.056	12369
928.162	12353
928.267	12369
928.373	12985
928.479	12403
928.585	12163
928.69	12289
928.796	12346
928.901	12197
929.007	12057
929.112	12201
929.218	12098
929.323	12159
929.428	12106
929.533	12194
929.638	12003
929.743	11939
929.848	12019
929.953	12007
930.058	11973
930.163	11676
930.267	11714
930.372	11939
930.477	11714
930.581	11920
930.685	11809
930.79	11589
930.894	11733
930.998	11566
931.103	11756
931.207	11368
931.311	11220
931.415	11269
931.519	11022
931.623	11025
