Data from test_V78500241_3355.txt Node
Date: Fri Mar 25 15:33:13 CST 2022
User: usil
Spectrometer: V785-0024
Trigger mode: 0
Integration Time (sec): 4.000000E-1
Scans to average: 1
Nonlinearity correction enabled: false
Boxcar width: 0
Storing dark spectrum: false
XAxis mode: Wavelengths
Number of Pixels in Spectrum: 1024
>>>>>Begin Spectral Data<<<<<
801.071	27176
801.214	27096
801.356	26883
801.499	26830
801.641	26735
801.783	26693
801.926	26769
802.068	26621
802.211	26697
802.353	26598
802.496	26336
802.638	26290
802.78	26275
802.923	26183
803.065	26183
803.208	26225
803.35	26427
803.492	26366
803.635	26541
803.777	26476
803.919	26480
804.061	26853
804.204	26689
804.346	26499
804.488	26358
804.63	26545
804.773	26427
804.915	26412
805.057	26492
805.199	26488
805.341	26423
805.483	26705
805.626	26583
805.768	26446
805.91	26583
806.052	26457
806.194	26583
806.336	26792
806.478	26617
806.62	26632
806.762	26651
806.904	26823
807.046	27055
807.188	27013
807.33	27024
807.472	27112
807.614	26815
807.756	26986
807.898	26834
808.04	26796
808.182	26670
808.324	26743
808.465	26891
808.607	26986
808.749	27165
808.891	27249
809.033	27256
809.174	27157
809.316	27150
809.458	27344
809.6	27157
809.741	27135
809.883	27279
810.025	27321
810.166	27401
810.308	27439
810.45	27469
810.591	27458
810.733	27138
810.875	27298
811.016	27032
811.158	26963
811.299	27214
811.441	27336
811.582	27264
811.724	27214
811.865	27089
812.007	27066
812.148	27150
812.29	27195
812.431	27245
812.573	27340
812.714	27534
812.855	27553
812.997	27622
813.138	27819
813.279	27766
813.421	27606
813.562	27481
813.703	27401
813.845	27302
813.986	27058
814.127	26853
814.268	26880
814.41	26804
814.551	26579
814.692	26876
814.833	26659
814.974	26765
815.115	26720
815.256	26746
815.397	26667
815.539	26682
815.68	26579
815.821	26552
815.962	26602
816.103	26568
816.244	26400
816.385	26336
816.526	26263
816.666	26210
816.807	25978
816.948	26096
817.089	26153
817.23	26237
817.371	25993
817.512	25997
817.653	26115
817.793	25864
817.934	26024
818.075	26054
818.216	26050
818.356	26073
818.497	25784
818.638	25833
818.778	25731
818.919	25913
819.06	25837
819.2	26020
819.341	26043
819.481	26103
819.622	26210
819.762	26423
819.903	26324
820.043	26221
820.184	26103
820.324	26142
820.465	26195
820.605	26244
820.746	26119
820.886	25951
821.026	26069
821.167	26138
821.307	26073
821.447	26050
821.588	25902
821.728	25746
821.868	25818
822.008	25449
822.149	25578
822.289	25544
822.429	25187
822.569	25251
822.709	25225
822.849	25133
822.99	25000
823.13	24989
823.27	25012
823.41	24852
823.55	24661
823.69	24920
823.83	24871
823.97	24726
824.11	24612
824.25	24677
824.389	24658
824.529	24738
824.669	24726
824.809	24764
824.949	24715
825.089	24783
825.228	24563
825.368	24483
825.508	24517
825.648	24566
825.787	24464
825.927	24479
826.067	24513
826.206	24433
826.346	24620
826.485	24566
826.625	24585
826.765	24570
826.904	24486
827.044	24243
827.183	24148
827.323	24194
827.462	24205
827.601	24292
827.741	24243
827.88	24178
828.02	24064
828.159	24144
828.298	24209
828.437	24254
828.577	24171
828.716	24342
828.855	24095
828.994	24026
829.134	23980
829.273	23927
829.412	23954
829.551	23946
829.69	23965
829.829	23939
829.968	24072
830.107	24015
830.246	23965
830.385	24015
830.524	23939
830.663	23779
830.802	23630
830.941	23558
831.08	23592
831.219	23646
831.357	23611
831.496	23855
831.635	23646
831.774	23364
831.913	23414
832.051	23398
832.19	23387
832.329	23303
832.467	23227
832.606	23246
832.744	23083
832.883	23296
833.022	23212
833.16	23231
833.299	23322
833.437	23277
833.576	23376
833.714	23334
833.852	23360
833.991	23349
834.129	23360
834.267	23387
834.406	23315
834.544	23307
834.682	23360
834.821	23227
834.959	23372
835.097	23299
835.235	23288
835.373	23353
835.511	23311
835.65	23174
835.788	23109
835.926	22961
836.064	23029
836.202	23022
836.34	23181
836.478	23246
836.615	23090
836.753	23109
836.891	23303
837.029	23178
837.167	23064
837.305	23014
837.443	23102
837.58	23022
837.718	23014
837.856	23006
837.993	22923
838.131	22968
838.269	22892
838.406	23029
838.544	22839
838.681	22626
838.819	22577
838.956	22413
839.094	22455
839.231	22630
839.369	22691
839.506	22858
839.643	22755
839.781	22424
839.918	22523
840.055	22535
840.193	22386
840.33	22485
840.467	22398
840.604	22462
840.742	22694
840.879	22360
841.016	22386
841.153	22234
841.29	22508
841.427	22436
841.564	22299
841.701	22417
841.838	22447
841.975	22322
842.112	22398
842.249	22261
842.385	22211
842.522	22459
842.659	22192
842.796	22166
842.933	22166
843.069	22234
843.206	22219
843.343	22188
843.479	22097
843.616	22234
843.752	21994
843.889	21998
844.025	22059
844.162	21903
844.298	22010
844.435	21899
844.571	21994
844.708	21892
844.844	21983
844.98	22059
845.117	21922
845.253	22010
845.389	21880
845.525	21953
845.661	21823
845.798	21778
845.934	21755
846.07	21709
846.206	21637
846.342	21816
846.478	21660
846.614	21450
846.75	21466
846.886	21504
847.022	21477
847.158	21462
847.294	21488
847.429	21469
847.565	21412
847.701	21728
847.837	21123
847.972	21173
848.108	21321
848.244	21241
848.379	21074
848.515	20971
848.65	20979
848.786	21001
848.921	21127
849.057	21184
849.192	21195
849.328	20998
849.463	21127
849.598	20979
849.734	20845
849.869	20864
850.004	20804
850.14	20720
850.275	20826
850.41	20769
850.545	20781
850.68	20724
850.815	20925
850.95	20902
851.085	20975
851.22	20785
851.355	20857
851.49	20743
851.625	20807
851.76	20876
851.895	20697
852.03	20655
852.165	20762
852.299	20853
852.434	20811
852.569	20769
852.703	20807
852.838	20815
852.973	20941
853.107	20857
853.242	20739
853.376	20629
853.511	20587
853.645	20575
853.78	20815
853.914	20689
854.048	20568
854.183	20594
854.317	20648
854.451	20777
854.585	20598
854.72	20545
854.854	20670
854.988	20629
855.122	20537
855.256	20598
855.39	20613
855.524	20750
855.658	20629
855.792	20537
855.926	20530
856.06	20731
856.194	20674
856.327	20602
856.461	20568
856.595	20476
856.729	20552
856.862	20705
856.996	20629
857.13	20644
857.263	20762
857.397	20655
857.53	20545
857.664	20670
857.797	20609
857.931	20712
858.064	20602
858.197	20705
858.331	20507
858.464	20564
858.597	20537
858.731	20495
858.864	20617
858.997	20552
859.13	20640
859.263	20571
859.396	20674
859.529	20594
859.662	20644
859.795	20541
859.928	20594
860.061	20750
860.194	20804
860.327	20625
860.46	20663
860.592	20781
860.725	20785
860.858	20731
860.99	20575
861.123	20438
861.256	20602
861.388	20632
861.521	21306
861.653	20469
861.786	20469
861.918	20499
862.05	20609
862.183	20613
862.315	20613
862.447	20621
862.58	20568
862.712	20248
862.844	20317
862.976	20412
863.108	20476
863.24	20705
863.372	20256
863.504	20400
863.636	20374
863.768	20336
863.9	20393
864.032	20256
864.164	20408
864.296	20298
864.428	20400
864.559	20313
864.691	20366
864.823	20415
864.954	20225
865.086	20362
865.217	20328
865.349	20221
865.48	20237
865.612	20351
865.743	20267
865.875	20187
866.006	20229
866.137	20263
866.269	20240
866.4	20180
866.531	20240
866.662	20210
866.793	20187
866.924	20183
867.055	20267
867.186	20195
867.317	20138
867.448	20115
867.579	20191
867.71	20111
867.841	20134
867.972	20259
868.103	20218
868.233	20191
868.364	20229
868.495	20252
868.625	20507
868.756	20511
868.886	20328
869.017	20438
869.147	20480
869.278	20609
869.408	20450
869.539	20393
869.669	20552
869.799	20442
869.929	20594
870.06	20594
870.19	20655
870.32	20682
870.45	20819
870.58	20754
870.71	21013
870.84	20891
870.97	20727
871.1	20754
871.23	21028
871.36	20998
871.489	21013
871.619	21017
871.749	21024
871.879	21100
872.008	21211
872.138	20952
872.267	21108
872.397	20815
872.526	20887
872.656	20754
872.785	20777
872.915	21070
873.044	21055
873.173	21108
873.303	21241
873.432	21112
873.561	21150
873.69	20998
873.819	21043
873.948	21104
874.077	21005
874.206	21070
874.335	21074
874.464	21081
874.593	21237
874.722	21150
874.851	21340
874.979	21332
875.108	21435
875.237	21302
875.365	21211
875.494	21195
875.623	21443
875.751	21169
875.88	21222
876.008	21401
876.136	21515
876.265	21755
876.393	21713
876.521	21667
876.65	21671
876.778	21648
876.906	21576
877.034	21614
877.162	21728
877.29	21599
877.418	21774
877.546	21671
877.674	21686
877.802	21542
877.93	21637
878.058	21511
878.185	21526
878.313	21572
878.441	21679
878.568	21378
878.696	21580
878.824	21743
878.951	21781
879.079	21846
879.206	21983
879.333	21686
879.461	21698
879.588	21880
879.715	21739
879.842	21975
879.97	21682
880.097	21507
880.224	21511
880.351	21561
880.478	21542
880.605	21412
880.732	21469
880.859	21751
880.986	21462
881.112	21564
881.239	21336
881.366	21188
881.493	21138
881.619	21051
881.746	21104
881.872	21062
881.999	20967
882.125	20967
882.252	21108
882.378	20982
882.505	21176
882.631	20990
882.757	20902
882.883	20785
883.01	20758
883.136	20636
883.262	20655
883.388	20469
883.514	20773
883.64	20769
883.766	20667
883.892	20476
884.018	20670
884.143	20659
884.269	20861
884.395	20530
884.52	20377
884.646	20488
884.772	20362
884.897	20362
885.023	20385
885.148	20560
885.274	20545
885.399	20488
885.524	20404
885.65	20412
885.775	20427
885.9	20370
886.025	20488
886.15	20514
886.275	20305
886.4	20294
886.525	20454
886.65	20446
886.775	20415
886.9	20530
887.025	20564
887.149	20396
887.274	20218
887.399	20145
887.523	20088
887.648	20134
887.773	20058
887.897	20183
888.021	20161
888.146	20138
888.27	20278
888.395	20195
888.519	20221
888.643	20237
888.767	20180
888.891	20126
889.015	19967
889.139	20001
889.263	19879
889.387	20058
889.511	20282
889.635	20161
889.759	19906
889.883	20005
890.006	19997
890.13	20054
890.254	19947
890.377	19917
890.501	19750
890.624	19582
890.748	19833
890.871	19632
890.995	19594
891.118	19548
891.241	19685
891.364	19643
891.488	19761
891.611	19594
891.734	19514
891.857	19651
891.98	19559
892.103	19525
892.226	19628
892.349	19563
892.471	19407
892.594	19441
892.717	19556
892.839	19362
892.962	19419
893.085	19548
893.207	19430
893.33	19335
893.452	19320
893.575	19582
893.697	19460
893.819	19635
893.941	19651
894.064	19514
894.186	19419
894.308	19502
894.43	19506
894.552	19651
894.674	19563
894.796	19343
894.918	19483
895.04	19525
895.161	19544
895.283	19582
895.405	19343
895.526	19499
895.648	19521
895.769	19483
895.891	19514
896.012	19620
896.134	19537
896.255	19590
896.376	19460
896.498	19537
896.619	19552
896.74	19419
896.861	19704
896.982	19811
897.103	19921
897.224	19734
897.345	19746
897.466	19734
897.587	19712
897.708	19879
897.828	19757
897.949	19643
898.07	19575
898.19	19609
898.311	19864
898.431	19632
898.552	19666
898.672	19742
898.792	19841
898.913	19803
899.033	19662
899.153	19559
899.273	19316
899.393	19445
899.513	19495
899.633	19381
899.753	19434
899.873	19411
899.993	19518
900.113	19487
900.232	19403
900.352	19354
900.472	19198
900.591	19209
900.711	19304
900.83	19240
900.95	19343
901.069	19358
901.189	19152
901.308	18878
901.427	18878
901.546	18882
901.665	18932
901.784	18852
901.904	18863
902.023	18593
902.141	18433
902.26	18361
902.379	18464
902.498	18380
902.617	18384
902.735	18437
902.854	18319
902.973	18270
903.091	18030
903.21	18007
903.328	17961
903.446	18015
903.565	17904
903.683	17874
903.801	17847
903.919	17893
904.038	17840
904.156	17722
904.274	17684
904.392	17600
904.51	17585
904.627	17482
904.745	17680
904.863	17668
904.981	17471
905.098	17261
905.216	17280
905.334	17334
905.451	17368
905.569	17296
905.686	17364
905.803	17250
905.921	17064
906.038	17239
906.155	17189
906.272	16942
906.389	16972
906.506	16809
906.623	16774
906.74	16869
906.857	16805
906.974	16839
907.091	17033
907.208	17022
907.324	16885
907.441	16721
907.557	16561
907.674	16618
907.79	16504
907.907	16508
908.023	16580
908.139	16580
908.256	16577
908.372	16527
908.488	16516
908.604	16360
908.72	16219
908.836	16230
908.952	16238
909.068	16299
909.184	16440
909.3	16272
909.415	16352
909.531	16188
909.647	16078
909.762	15918
909.878	15880
909.993	16105
910.108	16010
910.224	15884
910.339	15838
910.454	15827
910.57	15789
910.685	15751
910.8	16044
910.915	16048
911.03	15888
911.145	15671
911.259	15603
911.374	15682
911.489	15526
911.604	15447
911.718	15370
911.833	15405
911.947	15355
912.062	15211
912.176	15317
912.291	15374
912.405	15466
912.519	15488
912.633	15568
912.748	15416
912.862	15336
912.976	15188
913.09	15001
913.204	15123
913.318	15222
913.431	15214
913.545	15283
913.659	15298
913.772	15131
913.886	14963
914	14979
914.113	15180
914.226	15108
914.34	15077
914.453	14956
914.566	15077
914.68	14895
914.793	14868
914.906	14655
915.019	14689
915.132	14568
915.245	14575
915.358	14648
915.47	14632
915.583	14503
915.696	14655
915.809	14769
915.921	14754
916.034	14545
916.146	14499
916.259	14507
916.371	14526
916.483	14556
916.595	14492
916.708	14518
916.82	14461
916.932	14374
917.044	14457
917.156	14446
917.268	14320
917.38	14290
917.491	14195
917.603	14324
917.715	14339
917.826	14381
917.938	14206
918.049	14183
918.161	14286
918.272	14393
918.384	14404
918.495	14267
918.606	14084
918.717	14031
918.828	13993
918.939	14149
919.05	13932
919.161	13986
919.272	13868
919.383	14001
919.494	14123
919.604	14233
919.715	14024
919.826	13978
919.936	13955
920.047	14054
920.157	14096
920.267	14145
920.378	14081
920.488	14039
920.598	14153
920.708	14355
920.818	14294
920.928	14103
921.038	14355
921.148	14305
921.258	14046
921.368	14005
921.477	13757
921.587	13765
921.697	13643
921.806	13738
921.916	13616
922.025	13491
922.134	13483
922.244	13331
922.353	13480
922.462	13369
922.571	13282
922.68	13107
922.789	13027
922.898	13076
923.007	13019
923.116	13107
923.224	13027
923.333	13084
923.442	12993
923.55	12920
923.659	12886
923.767	13008
923.876	12802
923.984	12890
924.092	12749
924.201	12859
924.309	12749
924.417	12795
924.525	12745
924.633	12768
924.741	13670
924.849	12570
924.956	12700
925.064	12479
925.172	12521
925.279	12460
925.387	12494
925.494	12528
925.602	12604
925.709	12566
925.816	12441
925.924	12532
926.031	12506
926.138	12494
926.245	12490
926.352	12407
926.459	12494
926.566	12532
926.673	12429
926.779	12357
926.886	12266
926.993	12197
927.099	12106
927.206	12117
927.312	12091
927.419	12235
927.525	12159
927.631	12136
927.737	12015
927.843	11923
927.95	11836
928.056	11935
928.162	12038
928.267	12064
928.373	12414
928.479	11923
928.585	11760
928.69	11916
928.796	11958
928.901	11920
929.007	11684
929.112	11805
929.218	11851
929.323	11688
929.428	11611
929.533	11817
929.638	11710
929.743	11680
929.848	11581
929.953	11596
930.058	11497
930.163	11414
930.267	11372
930.372	11467
930.477	11337
930.581	11573
930.685	11455
930.79	11269
930.894	11220
930.998	11261
931.103	11398
931.207	10984
931.311	11006
931.415	10831
931.519	10626
931.623	10611
