Data from test_V78500241_3124.txt Node
Date: Fri Mar 25 15:31:36 CST 2022
User: usil
Spectrometer: V785-0024
Trigger mode: 0
Integration Time (sec): 4.000000E-1
Scans to average: 1
Nonlinearity correction enabled: false
Boxcar width: 0
Storing dark spectrum: false
XAxis mode: Wavelengths
Number of Pixels in Spectrum: 1024
>>>>>Begin Spectral Data<<<<<
801.071	27013
801.214	27074
801.356	26895
801.499	26693
801.641	26739
801.783	26632
801.926	26629
802.068	26621
802.211	26503
802.353	26549
802.496	26412
802.638	26221
802.78	26176
802.923	26176
803.065	26275
803.208	26096
803.35	26259
803.492	26317
803.635	26393
803.777	26328
803.919	26450
804.061	26743
804.204	26537
804.346	26408
804.488	26355
804.63	26438
804.773	26351
804.915	26389
805.057	26434
805.199	26298
805.341	26492
805.483	26579
805.626	26453
805.768	26480
805.91	26640
806.052	26533
806.194	26457
806.336	26625
806.478	26594
806.62	26450
806.762	26579
806.904	26826
807.046	26990
807.188	27009
807.33	26998
807.472	26998
807.614	26921
807.756	26845
807.898	26705
808.04	26705
808.182	26712
808.324	26678
808.465	26834
808.607	26864
808.749	27230
808.891	27203
809.033	27192
809.174	27112
809.316	27032
809.458	27055
809.6	27077
809.741	27203
809.883	27252
810.025	27298
810.166	27397
810.308	27317
810.45	27344
810.591	27249
810.733	27074
810.875	27161
811.016	27074
811.158	27131
811.299	27119
811.441	27268
811.582	27260
811.724	27047
811.865	27051
812.007	27135
812.148	27062
812.29	26998
812.431	27256
812.573	27439
812.714	27431
812.855	27583
812.997	27633
813.138	27831
813.279	27679
813.421	27534
813.562	27557
813.703	27321
813.845	27355
813.986	27005
814.127	26819
814.268	26781
814.41	26762
814.551	26686
814.692	26921
814.833	26743
814.974	26724
815.115	26838
815.256	26705
815.397	26689
815.539	26697
815.68	26469
815.821	26404
815.962	26549
816.103	26358
816.244	26320
816.385	26355
816.526	26305
816.666	26077
816.807	25856
816.948	25944
817.089	26077
817.23	26138
817.371	26065
817.512	26016
817.653	26016
817.793	25966
817.934	26016
818.075	26027
818.216	25986
818.356	25947
818.497	25856
818.638	25708
818.778	25674
818.919	25689
819.06	25818
819.2	25841
819.341	25978
819.481	25974
819.622	25951
819.762	26324
819.903	26172
820.043	26145
820.184	26069
820.324	26122
820.465	26096
820.605	26199
820.746	25959
820.886	25921
821.026	26012
821.167	25982
821.307	26092
821.447	26031
821.588	26012
821.728	25917
821.868	25590
822.008	25453
822.149	25339
822.289	25324
822.429	25194
822.569	25091
822.709	25327
822.849	24939
822.99	24924
823.13	24913
823.27	24992
823.41	24734
823.55	24616
823.69	24867
823.83	24859
823.97	24734
824.11	24620
824.25	24452
824.389	24532
824.529	24654
824.669	24669
824.809	24669
824.949	24582
825.089	24688
825.228	24608
825.368	24540
825.508	24494
825.648	24536
825.787	24422
825.927	24502
826.067	24547
826.206	24395
826.346	24593
826.485	24525
826.625	24593
826.765	24593
826.904	24391
827.044	24289
827.183	24152
827.323	24163
827.462	24361
827.601	24209
827.741	24030
827.88	24182
828.02	24049
828.159	24144
828.298	24144
828.437	24213
828.577	24060
828.716	24247
828.855	23961
828.994	23916
829.134	23931
829.273	23999
829.412	23843
829.551	23870
829.69	23885
829.829	23946
829.968	23923
830.107	23980
830.246	23897
830.385	24003
830.524	23638
830.663	23680
830.802	23649
830.941	23486
831.08	23528
831.219	23581
831.357	23505
831.496	23619
831.635	23482
831.774	23493
831.913	23471
832.051	23353
832.19	23273
832.329	23391
832.467	23109
832.606	23075
832.744	23033
832.883	23102
833.022	23102
833.16	23258
833.299	23181
833.437	23204
833.576	23277
833.714	23128
833.852	23269
833.991	23170
834.129	23322
834.267	23261
834.406	23223
834.544	23353
834.682	23227
834.821	23181
834.959	23341
835.097	23075
835.235	23379
835.373	23216
835.511	23212
835.65	23048
835.788	23159
835.926	23025
836.064	22816
836.202	22812
836.34	23083
836.478	23086
836.615	23075
836.753	23029
836.891	23208
837.029	23022
837.167	22987
837.305	23010
837.443	22995
837.58	22869
837.718	23029
837.856	22953
837.993	22869
838.131	22820
838.269	22710
838.406	22949
838.544	22710
838.681	22588
838.819	22538
838.956	22500
839.094	22344
839.231	22497
839.369	22554
839.506	22820
839.643	22630
839.781	22356
839.918	22322
840.055	22344
840.193	22341
840.33	22196
840.467	22344
840.604	22386
840.742	22702
840.879	22261
841.016	22341
841.153	22211
841.29	22421
841.427	22291
841.564	22413
841.701	22424
841.838	22257
841.975	22287
842.112	22234
842.249	22097
842.385	22215
842.522	22280
842.659	22265
842.796	22185
842.933	22150
843.069	21899
843.206	22128
843.343	22185
843.479	22135
843.616	22112
843.752	21759
843.889	21842
844.025	22025
844.162	21964
844.298	22048
844.435	21945
844.571	21945
844.708	22006
844.844	21934
844.98	21994
845.117	22010
845.253	21846
845.389	21675
845.525	21762
845.661	21713
845.798	21568
845.934	21686
846.07	21629
846.206	21614
846.342	21793
846.478	21553
846.614	21386
846.75	21287
846.886	21310
847.022	21367
847.158	21363
847.294	21515
847.429	21405
847.565	21298
847.701	21496
847.837	20952
847.972	21066
848.108	21150
848.244	21222
848.379	20975
848.515	20750
848.65	21024
848.786	20929
848.921	20853
849.057	20963
849.192	21074
849.328	20979
849.463	20952
849.598	20963
849.734	20830
849.869	20876
850.004	20777
850.14	20724
850.275	20815
850.41	20701
850.545	20568
850.68	20678
850.815	20686
850.95	20712
851.085	20982
851.22	20807
851.355	20796
851.49	20689
851.625	20750
851.76	20746
851.895	20621
852.03	20625
852.165	20678
852.299	20948
852.434	20777
852.569	20842
852.703	20659
852.838	20716
852.973	20781
853.107	20773
853.242	20731
853.376	20533
853.511	20427
853.645	20583
853.78	20693
853.914	20659
854.048	20511
854.183	20617
854.317	20522
854.451	20636
854.585	20556
854.72	20556
854.854	20499
854.988	20488
855.122	20450
855.256	20358
855.39	20537
855.524	20629
855.658	20579
855.792	20495
855.926	20537
856.06	20556
856.194	20552
856.327	20541
856.461	20393
856.595	20476
856.729	20575
856.862	20705
856.996	20552
857.13	20533
857.263	20598
857.397	20689
857.53	20533
857.664	20511
857.797	20609
857.931	20648
858.064	20613
858.197	20617
858.331	20526
858.464	20549
858.597	20389
858.731	20545
858.864	20503
858.997	20461
859.13	20533
859.263	20575
859.396	20617
859.529	20579
859.662	20454
859.795	20442
859.928	20518
860.061	20773
860.194	20727
860.327	20613
860.46	20530
860.592	20636
860.725	20613
860.858	20636
860.99	20457
861.123	20412
861.256	20476
861.388	20499
861.521	21123
861.653	20419
861.786	20259
861.918	20484
862.05	20431
862.183	20507
862.315	20419
862.447	20503
862.58	20438
862.712	20317
862.844	20252
862.976	20446
863.108	20351
863.24	20621
863.372	20206
863.504	20294
863.636	20210
863.768	20305
863.9	20229
864.032	20237
864.164	20172
864.296	20233
864.428	20465
864.559	20377
864.691	20339
864.823	20164
864.954	20130
865.086	20161
865.217	20191
865.349	20103
865.48	20153
865.612	20142
865.743	20301
865.875	20263
866.006	20130
866.137	20096
866.269	20263
866.4	20088
866.531	20267
866.662	20043
866.793	20115
866.924	20039
867.055	20214
867.186	20122
867.317	20142
867.448	20111
867.579	20138
867.71	20005
867.841	20016
867.972	20077
868.103	20157
868.233	20088
868.364	20073
868.495	20210
868.625	20423
868.756	20514
868.886	20313
869.017	20301
869.147	20530
869.278	20499
869.408	20355
869.539	20290
869.669	20389
869.799	20499
869.929	20461
870.06	20495
870.19	20670
870.32	20739
870.45	20625
870.58	20743
870.71	20720
870.84	20849
870.97	20720
871.1	20708
871.23	20971
871.36	20864
871.489	20830
871.619	20872
871.749	20929
871.879	20861
872.008	21135
872.138	20937
872.267	20944
872.397	20815
872.526	20758
872.656	20746
872.785	20834
872.915	21017
873.044	21005
873.173	20918
873.303	21047
873.432	20963
873.561	21020
873.69	21036
873.819	21062
873.948	21066
874.077	21028
874.206	21047
874.335	20826
874.464	21013
874.593	21256
874.722	21165
874.851	21173
874.979	21222
875.108	21302
875.237	21226
875.365	21116
875.494	21188
875.623	21249
875.751	21245
875.88	21298
876.008	21412
876.136	21329
876.265	21610
876.393	21720
876.521	21739
876.65	21656
876.778	21694
876.906	21747
877.034	21462
877.162	21488
877.29	21606
877.418	21583
877.546	21511
877.674	21599
877.802	21542
877.93	21610
878.058	21542
878.185	21416
878.313	21523
878.441	21545
878.568	21393
878.696	21466
878.824	21603
878.951	21545
879.079	21762
879.206	21983
879.333	21838
879.461	21564
879.588	21557
879.715	21705
879.842	21739
879.97	21724
880.097	21515
880.224	21348
880.351	21389
880.478	21424
880.605	21397
880.732	21340
880.859	21622
880.986	21492
881.112	21412
881.239	21233
881.366	21150
881.493	21036
881.619	20929
881.746	21024
881.872	20994
881.999	21001
882.125	20918
882.252	21077
882.378	20982
882.505	21100
882.631	20830
882.757	20777
882.883	20682
883.01	20750
883.136	20743
883.262	20530
883.388	20465
883.514	20526
883.64	20739
883.766	20590
883.892	20556
884.018	20488
884.143	20606
884.269	20678
884.395	20465
884.52	20362
884.646	20358
884.772	20206
884.897	20263
885.023	20328
885.148	20347
885.274	20404
885.399	20404
885.524	20332
885.65	20434
885.775	20362
885.9	20256
886.025	20442
886.15	20370
886.275	20320
886.4	20164
886.525	20347
886.65	20351
886.775	20225
886.9	20362
887.025	20484
887.149	20366
887.274	20138
887.399	20164
887.523	20145
887.648	20050
887.773	20122
887.897	20138
888.021	20172
888.146	20001
888.27	20214
888.395	20168
888.519	20088
888.643	20111
888.767	20244
888.891	20035
889.015	19906
889.139	19993
889.263	19871
889.387	20039
889.511	20130
889.635	20043
889.759	19826
889.883	19860
890.006	19986
890.13	19921
890.254	19799
890.377	19772
890.501	19753
890.624	19655
890.748	19712
890.871	19548
890.995	19449
891.118	19419
891.241	19559
891.364	19544
891.488	19670
891.611	19552
891.734	19476
891.857	19639
891.98	19521
892.103	19582
892.226	19415
892.349	19445
892.471	19350
892.594	19350
892.717	19464
892.839	19460
892.962	19381
893.085	19514
893.207	19358
893.33	19274
893.452	19320
893.575	19468
893.697	19407
893.819	19662
893.941	19620
894.064	19540
894.186	19320
894.308	19285
894.43	19464
894.552	19537
894.674	19483
894.796	19350
894.918	19426
895.04	19464
895.161	19495
895.283	19480
895.405	19304
895.526	19392
895.648	19457
895.769	19419
895.891	19575
896.012	19483
896.134	19362
896.255	19354
896.376	19301
896.498	19422
896.619	19540
896.74	19419
896.861	19495
896.982	19731
897.103	19925
897.224	19685
897.345	19609
897.466	19616
897.587	19704
897.708	19723
897.828	19677
897.949	19674
898.07	19438
898.19	19616
898.311	19731
898.431	19548
898.552	19719
898.672	19765
898.792	19746
898.913	19784
899.033	19575
899.153	19491
899.273	19415
899.393	19499
899.513	19415
899.633	19388
899.753	19506
899.873	19346
899.993	19460
900.113	19354
900.232	19377
900.352	19403
900.472	19320
900.591	19213
900.711	19282
900.83	19183
900.95	19270
901.069	19278
901.189	19110
901.308	18856
901.427	18821
901.546	18829
901.665	18894
901.784	18897
901.904	18745
902.023	18635
902.141	18395
902.26	18395
902.379	18410
902.498	18353
902.617	18304
902.735	18418
902.854	18201
902.973	18220
903.091	18049
903.21	17980
903.328	18026
903.446	17878
903.565	17832
903.683	17714
903.801	17771
903.919	17809
904.038	17707
904.156	17520
904.274	17699
904.392	17554
904.51	17558
904.627	17497
904.745	17619
904.863	17760
904.981	17322
905.098	17220
905.216	17280
905.334	17265
905.451	17242
905.569	17181
905.686	17273
905.803	17265
905.921	17075
906.038	17117
906.155	17140
906.272	16946
906.389	16995
906.506	16824
906.623	16847
906.74	16763
906.857	16736
906.974	16702
907.091	16900
907.208	16965
907.324	16854
907.441	16679
907.557	16542
907.674	16588
907.79	16402
907.907	16462
908.023	16573
908.139	16508
908.256	16546
908.372	16409
908.488	16527
908.604	16333
908.72	16295
908.836	16318
908.952	16287
909.068	16272
909.184	16390
909.3	16337
909.415	16238
909.531	16276
909.647	15979
909.762	16078
909.878	15998
909.993	15880
910.108	15915
910.224	15892
910.339	15880
910.454	15857
910.57	15797
910.685	15637
910.8	15945
910.915	15899
911.03	15713
911.145	15584
911.259	15568
911.374	15652
911.489	15428
911.604	15435
911.718	15310
911.833	15336
911.947	15336
912.062	15097
912.176	15294
912.291	15393
912.405	15325
912.519	15538
912.633	15443
912.748	15294
912.862	15321
912.976	15138
913.09	15127
913.204	15085
913.318	15154
913.431	15237
913.545	15260
913.659	15211
913.772	15047
913.886	14933
914	14895
914.113	15001
914.226	15028
914.34	15020
914.453	14792
914.566	14921
914.68	14762
914.793	14880
914.906	14625
915.019	14575
915.132	14530
915.245	14541
915.358	14560
915.47	14579
915.583	14571
915.696	14571
915.809	14625
915.921	14651
916.034	14495
916.146	14480
916.259	14533
916.371	14598
916.483	14587
916.595	14442
916.708	14461
916.82	14465
916.932	14339
917.044	14461
917.156	14339
917.268	14263
917.38	14301
917.491	14233
917.603	14229
917.715	14282
917.826	14343
917.938	14206
918.049	14123
918.161	14221
918.272	14358
918.384	14339
918.495	14221
918.606	14081
918.717	13970
918.828	14058
918.939	14016
919.05	13982
919.161	13974
919.272	13841
919.383	13917
919.494	14043
919.604	14180
919.715	14062
919.826	14008
919.936	13944
920.047	14050
920.157	14035
920.267	14271
920.378	14077
920.488	13917
920.598	14214
920.708	14324
920.818	14176
920.928	14180
921.038	14259
921.148	14377
921.258	13997
921.368	13921
921.477	13814
921.587	13750
921.697	13639
921.806	13807
921.916	13605
922.025	13518
922.134	13483
922.244	13411
922.353	13502
922.462	13392
922.571	13209
922.68	13027
922.789	13175
922.898	12989
923.007	13019
923.116	13099
923.224	13034
923.333	13091
923.442	12878
923.55	12890
923.659	12993
923.767	12970
923.876	12913
923.984	12935
924.092	12825
924.201	12840
924.309	12856
924.417	12791
924.525	12787
924.633	12779
924.741	13750
924.849	12627
924.956	12719
925.064	12551
925.172	12441
925.279	12574
925.387	12525
925.494	12544
925.602	12635
925.709	12532
925.816	12460
925.924	12517
926.031	12673
926.138	12395
926.245	12490
926.352	12464
926.459	12517
926.566	12616
926.673	12502
926.779	12353
926.886	12243
926.993	12022
927.099	12144
927.206	12125
927.312	11973
927.419	12133
927.525	12026
927.631	12064
927.737	12034
927.843	11965
927.95	11893
928.056	11897
928.162	11935
928.267	11923
928.373	12540
928.479	12140
928.585	11798
928.69	11920
928.796	11927
928.901	11847
929.007	11581
929.112	11760
929.218	11771
929.323	11733
929.428	11672
929.533	11733
929.638	11623
929.743	11615
929.848	11638
929.953	11547
930.058	11554
930.163	11387
930.267	11349
930.372	11551
930.477	11376
930.581	11592
930.685	11376
930.79	11288
930.894	11246
930.998	11231
931.103	11395
931.207	11003
931.311	10934
931.415	10892
931.519	10664
931.623	10596
