Data from test_V78500241_3437.txt Node
Date: Fri Mar 25 15:33:47 CST 2022
User: usil
Spectrometer: V785-0024
Trigger mode: 0
Integration Time (sec): 4.000000E-1
Scans to average: 1
Nonlinearity correction enabled: false
Boxcar width: 0
Storing dark spectrum: false
XAxis mode: Wavelengths
Number of Pixels in Spectrum: 1024
>>>>>Begin Spectral Data<<<<<
801.071	27389
801.214	27279
801.356	27081
801.499	27070
801.641	26701
801.783	26735
801.926	26906
802.068	26819
802.211	26762
802.353	26712
802.496	26663
802.638	26598
802.78	26347
802.923	26412
803.065	26263
803.208	26427
803.35	26408
803.492	26530
803.635	26590
803.777	26541
803.919	26590
804.061	26830
804.204	26693
804.346	26659
804.488	26343
804.63	26568
804.773	26522
804.915	26537
805.057	26659
805.199	26518
805.341	26613
805.483	26735
805.626	26686
805.768	26739
805.91	26720
806.052	26701
806.194	26731
806.336	26948
806.478	26701
806.62	26800
806.762	26800
806.904	26971
807.046	27161
807.188	27112
807.33	27051
807.472	27199
807.614	27001
807.756	27112
807.898	27135
808.04	26823
808.182	26937
808.324	26944
808.465	26868
808.607	27245
808.749	27272
808.891	27374
809.033	27500
809.174	27336
809.316	27207
809.458	27359
809.6	27195
809.741	27355
809.883	27355
810.025	27549
810.166	27466
810.308	27545
810.45	27523
810.591	27458
810.733	27351
810.875	27317
811.016	27116
811.158	27157
811.299	27412
811.441	27355
811.582	27332
811.724	27226
811.865	27435
812.007	27344
812.148	27321
812.29	27310
812.431	27583
812.573	27599
812.714	27610
812.855	27854
812.997	27911
813.138	28101
813.279	27899
813.421	27717
813.562	27652
813.703	27671
813.845	27553
813.986	27211
814.127	27100
814.268	27024
814.41	26986
814.551	26853
814.692	27043
814.833	27013
814.974	27001
815.115	27009
815.256	26777
815.397	26876
815.539	26758
815.68	26746
815.821	26636
815.962	26670
816.103	26743
816.244	26571
816.385	26419
816.526	26575
816.666	26381
816.807	26183
816.948	26317
817.089	26377
817.23	26271
817.371	26275
817.512	26183
817.653	26183
817.793	26298
817.934	26229
818.075	26183
818.216	26157
818.356	26119
818.497	26206
818.638	26020
818.778	25909
818.919	25970
819.06	26054
819.2	26050
819.341	26210
819.481	26134
819.622	26503
819.762	26503
819.903	26606
820.043	26423
820.184	26431
820.324	26248
820.465	26370
820.605	26286
820.746	26339
820.886	26168
821.026	26282
821.167	26142
821.307	26282
821.447	26225
821.588	26145
821.728	26180
821.868	25849
822.008	25613
822.149	25639
822.289	25594
822.429	25476
822.569	25362
822.709	25354
822.849	25213
822.99	25209
823.13	25095
823.27	25095
823.41	24951
823.55	24977
823.69	25099
823.83	25038
823.97	25008
824.11	24867
824.25	24776
824.389	24814
824.529	24913
824.669	24833
824.809	24958
824.949	24985
825.089	24856
825.228	24882
825.368	24669
825.508	24726
825.648	24787
825.787	24646
825.927	24741
826.067	24650
826.206	24741
826.346	24749
826.485	24810
826.625	24661
826.765	24871
826.904	24703
827.044	24498
827.183	24403
827.323	24471
827.462	24464
827.601	24422
827.741	24327
827.88	24532
828.02	24262
828.159	24384
828.298	24521
828.437	24429
828.577	24346
828.716	24563
828.855	24315
828.994	24038
829.134	24136
829.273	24057
829.412	24079
829.551	24117
829.69	24171
829.829	24117
829.968	24205
830.107	24357
830.246	24045
830.385	24129
830.524	24034
830.663	23958
830.802	23870
830.941	23619
831.08	23699
831.219	23779
831.357	23802
831.496	24091
831.635	23813
831.774	23531
831.913	23600
832.051	23551
832.19	23543
832.329	23349
832.467	23543
832.606	23334
832.744	23360
832.883	23372
833.022	23387
833.16	23398
833.299	23364
833.437	23452
833.576	23539
833.714	23467
833.852	23630
833.991	23455
834.129	23551
834.267	23516
834.406	23493
834.544	23452
834.682	23539
834.821	23558
834.959	23661
835.097	23649
835.235	23634
835.373	23577
835.511	23467
835.65	23341
835.788	23364
835.926	23318
836.064	23166
836.202	23143
836.34	23334
836.478	23345
836.615	23254
836.753	23273
836.891	23402
837.029	23299
837.167	23250
837.305	23258
837.443	23220
837.58	23265
837.718	23117
837.856	23220
837.993	23204
838.131	23113
838.269	23109
838.406	23064
838.544	22991
838.681	22850
838.819	22869
838.956	22611
839.094	22580
839.231	22850
839.369	22778
839.506	23067
839.643	22911
839.781	22653
839.918	22565
840.055	22683
840.193	22611
840.33	22596
840.467	22569
840.604	22729
840.742	22801
840.879	22417
841.016	22504
841.153	22508
841.29	22706
841.427	22588
841.564	22660
841.701	22577
841.838	22493
841.975	22440
842.112	22417
842.249	22329
842.385	22284
842.522	22607
842.659	22398
842.796	22436
842.933	22409
843.069	22223
843.206	22371
843.343	22310
843.479	22375
843.616	22371
843.752	22128
843.889	22185
844.025	22253
844.162	22139
844.298	22238
844.435	22128
844.571	22188
844.708	22177
844.844	22215
844.98	22242
845.117	22299
845.253	22143
845.389	22051
845.525	21949
845.661	22048
845.798	21960
845.934	21850
846.07	21960
846.206	21918
846.342	21899
846.478	21907
846.614	21663
846.75	21610
846.886	21743
847.022	21675
847.158	21667
847.294	21724
847.429	21690
847.565	21580
847.701	21736
847.837	21393
847.972	21447
848.108	21481
848.244	21420
848.379	21154
848.515	21199
848.65	21146
848.786	21154
848.921	21287
849.057	21374
849.192	21275
849.328	21199
849.463	21283
849.598	21161
849.734	21157
849.869	21074
850.004	20982
850.14	21043
850.275	21005
850.41	20880
850.545	20921
850.68	20994
850.815	21032
850.95	20967
851.085	21142
851.22	21085
851.355	21043
851.49	21032
851.625	20861
851.76	21024
851.895	20845
852.03	20887
852.165	20914
852.299	20929
852.434	21104
852.569	21055
852.703	20929
852.838	20982
852.973	21074
853.107	21058
853.242	20929
853.376	20849
853.511	20629
853.645	20720
853.78	20864
853.914	20674
854.048	20613
854.183	20716
854.317	20716
854.451	21036
854.585	20800
854.72	20796
854.854	20891
854.988	20663
855.122	20788
855.256	20777
855.39	20876
855.524	20804
855.658	20880
855.792	20826
855.926	20826
856.06	20834
856.194	20857
856.327	20895
856.461	20670
856.595	20724
856.729	20746
856.862	20921
856.996	20823
857.13	20880
857.263	21005
857.397	20788
857.53	20765
857.664	20845
857.797	20842
857.931	20891
858.064	20880
858.197	20925
858.331	20746
858.464	20617
858.597	20769
858.731	20689
858.864	20682
858.997	20804
859.13	20819
859.263	20682
859.396	20830
859.529	20815
859.662	20781
859.795	20705
859.928	20842
860.061	20944
860.194	21024
860.327	20864
860.46	20883
860.592	21020
860.725	20785
860.858	20883
860.99	20731
861.123	20796
861.256	20724
861.388	20762
861.521	21378
861.653	20602
861.786	20556
861.918	20648
862.05	20617
862.183	20693
862.315	20765
862.447	20899
862.58	20720
862.712	20594
862.844	20511
862.976	20617
863.108	20488
863.24	21085
863.372	20575
863.504	20579
863.636	20503
863.768	20651
863.9	20568
864.032	20400
864.164	20545
864.296	20564
864.428	20571
864.559	20598
864.691	20556
864.823	20537
864.954	20461
865.086	20419
865.217	20450
865.349	20362
865.48	20492
865.612	20438
865.743	20552
865.875	20480
866.006	20473
866.137	20427
866.269	20339
866.4	20431
866.531	20419
866.662	20256
866.793	20332
866.924	20389
867.055	20454
867.186	20381
867.317	20351
867.448	20237
867.579	20355
867.71	20339
867.841	20267
867.972	20336
868.103	20389
868.233	20446
868.364	20412
868.495	20404
868.625	20518
868.756	20811
868.886	20533
869.017	20598
869.147	20758
869.278	20682
869.408	20674
869.539	20602
869.669	20743
869.799	20754
869.929	20750
870.06	20902
870.19	20872
870.32	20785
870.45	20952
870.58	20967
870.71	21112
870.84	21127
870.97	20982
871.1	21096
871.23	21252
871.36	21157
871.489	21203
871.619	21211
871.749	21169
871.879	21237
872.008	21294
872.138	21226
872.267	21336
872.397	21203
872.526	21108
872.656	21039
872.785	21093
872.915	21336
873.044	21268
873.173	21176
873.303	21279
873.432	21367
873.561	21264
873.69	21237
873.819	21157
873.948	21317
874.077	21207
874.206	21195
874.335	21207
874.464	21317
874.593	21515
874.722	21603
874.851	21614
874.979	21549
875.108	21454
875.237	21485
875.365	21389
875.494	21492
875.623	21511
875.751	21401
875.88	21507
876.008	21583
876.136	21629
876.265	21880
876.393	21987
876.521	21979
876.65	22082
876.778	21899
876.906	21892
877.034	21816
877.162	21812
877.29	21812
877.418	21880
877.546	21819
877.674	21720
877.802	21827
877.93	21819
878.058	21781
878.185	21705
878.313	21739
878.441	21793
878.568	21656
878.696	21895
878.824	21785
878.951	22120
879.079	21915
879.206	22219
879.333	21991
879.461	21789
879.588	21979
879.715	22017
879.842	22101
879.97	21953
880.097	21618
880.224	21603
880.351	21717
880.478	21564
880.605	21614
880.732	21542
880.859	21869
880.986	21705
881.112	21663
881.239	21557
881.366	21511
881.493	21199
881.619	21214
881.746	21279
881.872	21028
881.999	21294
882.125	21146
882.252	21287
882.378	21237
882.505	21313
882.631	21108
882.757	20998
882.883	21032
883.01	21009
883.136	20948
883.262	20868
883.388	20765
883.514	20899
883.64	21066
883.766	20872
883.892	20648
884.018	20811
884.143	20979
884.269	21157
884.395	20792
884.52	20716
884.646	20499
884.772	20648
884.897	20598
885.023	20602
885.148	20823
885.274	20712
885.399	20762
885.524	20621
885.65	20598
885.775	20678
885.9	20617
886.025	20750
886.15	20701
886.275	20503
886.4	20469
886.525	20552
886.65	20522
886.775	20537
886.9	20716
887.025	20777
887.149	20636
887.274	20404
887.399	20423
887.523	20252
887.648	20385
887.773	20313
887.897	20408
888.021	20473
888.146	20206
888.27	20423
888.395	20537
888.519	20476
888.643	20514
888.767	20457
888.891	20252
889.015	20103
889.139	20259
889.263	20161
889.387	20161
889.511	20476
889.635	20145
889.759	20122
889.883	20183
890.006	20149
890.13	20362
890.254	20065
890.377	20195
890.501	19997
890.624	19883
890.748	19940
890.871	19909
890.995	19590
891.118	19712
891.241	19757
891.364	19734
891.488	19909
891.611	19849
891.734	19708
891.857	19818
891.98	19814
892.103	19704
892.226	19849
892.349	19723
892.471	19552
892.594	19655
892.717	19715
892.839	19677
892.962	19742
893.085	19772
893.207	19635
893.33	19578
893.452	19704
893.575	19719
893.697	19685
893.819	19860
893.941	19898
894.064	19791
894.186	19662
894.308	19700
894.43	19776
894.552	19788
894.674	19826
894.796	19632
894.918	19643
895.04	19628
895.161	19727
895.283	19769
895.405	19632
895.526	19757
895.648	19685
895.769	19559
895.891	19601
896.012	19780
896.134	19681
896.255	19666
896.376	19719
896.498	19791
896.619	19734
896.74	19700
896.861	19734
896.982	20001
897.103	20031
897.224	19890
897.345	19826
897.466	19883
897.587	19864
897.708	20043
897.828	19993
897.949	19967
898.07	19700
898.19	19830
898.311	19917
898.431	19776
898.552	19856
898.672	19955
898.792	20062
898.913	19864
899.033	19833
899.153	19677
899.273	19670
899.393	19677
899.513	19750
899.633	19613
899.753	19605
899.873	19590
899.993	19662
900.113	19658
900.232	19647
900.352	19533
900.472	19514
900.591	19468
900.711	19426
900.83	19369
900.95	19559
901.069	19533
901.189	19354
901.308	19057
901.427	19000
901.546	19046
901.665	19008
901.784	19038
901.904	18913
902.023	18795
902.141	18608
902.26	18601
902.379	18684
902.498	18540
902.617	18540
902.735	18509
902.854	18498
902.973	18521
903.091	18273
903.21	18194
903.328	18311
903.446	18167
903.565	18030
903.683	18079
903.801	17912
903.919	17988
904.038	17973
904.156	17843
904.274	17813
904.392	17760
904.51	17821
904.627	17805
904.745	17878
904.863	17790
904.981	17554
905.098	17452
905.216	17391
905.334	17581
905.451	17520
905.569	17376
905.686	17532
905.803	17585
905.921	17299
906.038	17311
906.155	17337
906.272	17121
906.389	17159
906.506	17105
906.623	17029
906.74	16991
906.857	16885
906.974	16801
907.091	17037
907.208	17159
907.324	16949
907.441	17006
907.557	16797
907.674	16778
907.79	16748
907.907	16805
908.023	16889
908.139	16748
908.256	16660
908.372	16611
908.488	16603
908.604	16421
908.72	16398
908.836	16497
908.952	16519
909.068	16573
909.184	16577
909.3	16424
909.415	16531
909.531	16428
909.647	16226
909.762	16230
909.878	16162
909.993	16162
910.108	16223
910.224	16082
910.339	16147
910.454	16044
910.57	15972
910.685	15911
910.8	16207
910.915	16139
911.03	15964
911.145	15797
911.259	15812
911.374	15759
911.489	15686
911.604	15622
911.718	15454
911.833	15538
911.947	15378
912.062	15351
912.176	15557
912.291	15538
912.405	15424
912.519	15698
912.633	15751
912.748	15481
912.862	15477
912.976	15359
913.09	15230
913.204	15397
913.318	15389
913.431	15450
913.545	15378
913.659	15469
913.772	15272
913.886	15188
914	15180
914.113	15184
914.226	15283
914.34	15157
914.453	15093
914.566	15275
914.68	15036
914.793	14971
914.906	14842
915.019	14883
915.132	14765
915.245	14712
915.358	14765
915.47	14769
915.583	14655
915.696	14826
915.809	14960
915.921	14815
916.034	14712
916.146	14712
916.259	14587
916.371	14708
916.483	14788
916.595	14617
916.708	14743
916.82	14617
916.932	14476
917.044	14629
917.156	14526
917.268	14461
917.38	14499
917.491	14514
917.603	14514
917.715	14526
917.826	14488
917.938	14370
918.049	14301
918.161	14442
918.272	14465
918.384	14602
918.495	14408
918.606	14263
918.717	14153
918.828	14206
918.939	14240
919.05	14134
919.161	14134
919.272	13951
919.383	14058
919.494	14202
919.604	14343
919.715	14130
919.826	14145
919.936	14161
920.047	14240
920.157	14100
920.267	14290
920.378	14084
920.488	14153
920.598	14313
920.708	14457
920.818	14442
920.928	14286
921.038	14404
921.148	14347
921.258	14111
921.368	14119
921.477	13898
921.587	13875
921.697	13795
921.806	13894
921.916	13753
922.025	13708
922.134	13571
922.244	13514
922.353	13628
922.462	13415
922.571	13312
922.68	13339
922.789	13171
922.898	13244
923.007	13156
923.116	13236
923.224	13190
923.333	13129
923.442	13065
923.55	13012
923.659	13118
923.767	13057
923.876	12958
923.984	13038
924.092	12916
924.201	12966
924.309	12958
924.417	13050
924.525	12905
924.633	12848
924.741	13776
924.849	12798
924.956	12833
925.064	12665
925.172	12665
925.279	12631
925.387	12707
925.494	12642
925.602	12665
925.709	12673
925.816	12585
925.924	12589
926.031	12745
926.138	12593
926.245	12654
926.352	12471
926.459	12684
926.566	12673
926.673	12445
926.779	12391
926.886	12357
926.993	12194
927.099	12270
927.206	12152
927.312	12136
927.419	12243
927.525	12197
927.631	12232
927.737	12129
927.843	12076
927.95	11977
928.056	12057
928.162	12087
928.267	12102
928.373	12540
928.479	12129
928.585	11882
928.69	11984
928.796	12064
928.901	11878
929.007	11836
929.112	11889
929.218	11840
929.323	11794
929.428	11794
929.533	11942
929.638	11672
929.743	11691
929.848	11779
929.953	11691
930.058	11676
930.163	11410
930.267	11406
930.372	11592
930.477	11448
930.581	11638
930.685	11509
930.79	11414
930.894	11379
930.998	11246
931.103	11486
931.207	11204
931.311	11041
931.415	10953
931.519	10721
931.623	10755
