Data from test_V78500241_3569.txt Node
Date: Fri Mar 25 15:34:42 CST 2022
User: usil
Spectrometer: V785-0024
Trigger mode: 0
Integration Time (sec): 4.000000E-1
Scans to average: 1
Nonlinearity correction enabled: false
Boxcar width: 0
Storing dark spectrum: false
XAxis mode: Wavelengths
Number of Pixels in Spectrum: 1024
>>>>>Begin Spectral Data<<<<<
801.071	27264
801.214	27294
801.356	26933
801.499	26971
801.641	26857
801.783	26823
801.926	26815
802.068	26880
802.211	26781
802.353	26769
802.496	26446
802.638	26644
802.78	26446
802.923	26511
803.065	26313
803.208	26488
803.35	26366
803.492	26564
803.635	26701
803.777	26583
803.919	26594
804.061	26902
804.204	26625
804.346	26522
804.488	26564
804.63	26598
804.773	26625
804.915	26632
805.057	26781
805.199	26667
805.341	26609
805.483	26712
805.626	26811
805.768	26598
805.91	26708
806.052	26811
806.194	26712
806.336	26948
806.478	26826
806.62	26792
806.762	26971
806.904	26876
807.046	27199
807.188	27176
807.33	27249
807.472	27192
807.614	27096
807.756	27066
807.898	27051
808.04	26895
808.182	26899
808.324	26944
808.465	27066
808.607	27218
808.749	27329
808.891	27397
809.033	27492
809.174	27332
809.316	27431
809.458	27283
809.6	27188
809.741	27477
809.883	27370
810.025	27720
810.166	27603
810.308	27694
810.45	27705
810.591	27523
810.733	27450
810.875	27336
811.016	27283
811.158	27275
811.299	27329
811.441	27580
811.582	27606
811.724	27363
811.865	27283
812.007	27291
812.148	27348
812.29	27435
812.431	27572
812.573	27648
812.714	27804
812.855	27857
812.997	27922
813.138	28059
813.279	28010
813.421	27842
813.562	27812
813.703	27561
813.845	27359
813.986	27313
814.127	27024
814.268	26952
814.41	27009
814.551	26891
814.692	27112
814.833	27043
814.974	27005
815.115	26960
815.256	26929
815.397	26864
815.539	26800
815.68	26921
815.821	26724
815.962	26792
816.103	26777
816.244	26705
816.385	26667
816.526	26499
816.666	26434
816.807	26336
816.948	26278
817.089	26332
817.23	26271
817.371	26157
817.512	26256
817.653	26164
817.793	26221
817.934	26374
818.075	26206
818.216	26385
818.356	26282
818.497	26111
818.638	25887
818.778	25917
818.919	26073
819.06	26096
819.2	26138
819.341	26214
819.481	26229
819.622	26476
819.762	26575
819.903	26575
820.043	26545
820.184	26366
820.324	26358
820.465	26389
820.605	26476
820.746	26412
820.886	26176
821.026	26358
821.167	26320
821.307	26381
821.447	26328
821.588	26062
821.728	26065
821.868	25765
822.008	25784
822.149	25723
822.289	25689
822.429	25518
822.569	25362
822.709	25419
822.849	25308
822.99	25266
823.13	25228
823.27	25133
823.41	25084
823.55	25015
823.69	25084
823.83	24962
823.97	24966
824.11	24856
824.25	24905
824.389	24795
824.529	24958
824.669	24825
824.809	25053
824.949	24954
825.089	25042
825.228	24867
825.368	24661
825.508	24749
825.648	24829
825.787	24772
825.927	24871
826.067	24791
826.206	24673
826.346	24806
826.485	24696
826.625	24646
826.765	24852
826.904	24954
827.044	24597
827.183	24521
827.323	24471
827.462	24445
827.601	24544
827.741	24471
827.88	24414
828.02	24277
828.159	24395
828.298	24582
828.437	24547
828.577	24441
828.716	24490
828.855	24410
828.994	24224
829.134	24190
829.273	24098
829.412	24167
829.551	24068
829.69	24228
829.829	24201
829.968	24239
830.107	24296
830.246	24357
830.385	24186
830.524	24091
830.663	24079
830.802	23954
830.941	23786
831.08	23687
831.219	23809
831.357	23935
831.496	24121
831.635	23729
831.774	23775
831.913	23684
832.051	23615
832.19	23627
832.329	23490
832.467	23535
832.606	23421
832.744	23334
832.883	23551
833.022	23516
833.16	23467
833.299	23551
833.437	23531
833.576	23596
833.714	23547
833.852	23646
833.991	23474
834.129	23630
834.267	23627
834.406	23528
834.544	23539
834.682	23417
834.821	23524
834.959	23760
835.097	23501
835.235	23505
835.373	23535
835.511	23627
835.65	23463
835.788	23258
835.926	23250
836.064	23197
836.202	23235
836.34	23330
836.478	23444
836.615	23463
836.753	23482
836.891	23455
837.029	23455
837.167	23383
837.305	23318
837.443	23318
837.58	23212
837.718	23250
837.856	23269
837.993	23265
838.131	23322
838.269	23277
838.406	23227
838.544	23067
838.681	22866
838.819	22934
838.956	22820
839.094	22596
839.231	22786
839.369	22816
839.506	23132
839.643	22934
839.781	22774
839.918	22729
840.055	22755
840.193	22828
840.33	22664
840.467	22797
840.604	22824
840.742	23014
840.879	22622
841.016	22596
841.153	22557
841.29	22637
841.427	22755
841.564	22721
841.701	22713
841.838	22599
841.975	22569
842.112	22660
842.249	22554
842.385	22504
842.522	22626
842.659	22546
842.796	22470
842.933	22390
843.069	22314
843.206	22344
843.343	22394
843.479	22459
843.616	22398
843.752	22356
843.889	22166
844.025	22382
844.162	22139
844.298	22192
844.435	22169
844.571	22074
844.708	22234
844.844	22303
844.98	22261
845.117	22352
845.253	22067
845.389	22059
845.525	22120
845.661	22082
845.798	21930
845.934	22029
846.07	21907
846.206	21854
846.342	22074
846.478	21857
846.614	21751
846.75	21614
846.886	21717
847.022	21800
847.158	21728
847.294	21698
847.429	21717
847.565	21603
847.701	21823
847.837	21439
847.972	21370
848.108	21561
848.244	21500
848.379	21298
848.515	21233
848.65	21252
848.786	21252
848.921	21370
849.057	21424
849.192	21306
849.328	21408
849.463	21233
849.598	21291
849.734	21157
849.869	21127
850.004	20971
850.14	20982
850.275	21058
850.41	21043
850.545	20883
850.68	20933
850.815	21039
850.95	21070
851.085	21142
851.22	21085
851.355	21131
851.49	21055
851.625	20872
851.76	20979
851.895	20975
852.03	20941
852.165	21036
852.299	21108
852.434	21089
852.569	21112
852.703	21024
852.838	21005
852.973	21211
853.107	21207
853.242	20982
853.376	20792
853.511	20796
853.645	20887
853.78	20956
853.914	20868
854.048	20758
854.183	20834
854.317	20880
854.451	21093
854.585	20937
854.72	20800
854.854	20887
854.988	20777
855.122	20895
855.256	20826
855.39	20891
855.524	21085
855.658	20773
855.792	20948
855.926	20944
856.06	20861
856.194	20975
856.327	20819
856.461	20727
856.595	20781
856.729	20906
856.862	20979
856.996	20921
857.13	20895
857.263	21051
857.397	20891
857.53	20788
857.664	20944
857.797	20937
857.931	20975
858.064	21024
858.197	21009
858.331	20876
858.464	20868
858.597	20823
858.731	20910
858.864	20872
858.997	20785
859.13	20777
859.263	20842
859.396	20895
859.529	20853
859.662	20845
859.795	20872
859.928	20925
860.061	21089
860.194	20986
860.327	20849
860.46	20925
860.592	21032
860.725	20975
860.858	20823
860.99	20830
861.123	20716
861.256	20902
861.388	20948
861.521	21610
861.653	20777
861.786	20621
861.918	20762
862.05	20796
862.183	20830
862.315	20823
862.447	20899
862.58	20800
862.712	20587
862.844	20556
862.976	20785
863.108	20720
863.24	20921
863.372	20514
863.504	20613
863.636	20602
863.768	20575
863.9	20617
864.032	20609
864.164	20598
864.296	20632
864.428	20739
864.559	20648
864.691	20651
864.823	20549
864.954	20431
865.086	20514
865.217	20526
865.349	20480
865.48	20446
865.612	20476
865.743	20579
865.875	20598
866.006	20412
866.137	20480
866.269	20419
866.4	20431
866.531	20476
866.662	20442
866.793	20282
866.924	20366
867.055	20465
867.186	20381
867.317	20298
867.448	20301
867.579	20263
867.71	20332
867.841	20298
867.972	20381
868.103	20347
868.233	20290
868.364	20457
868.495	20518
868.625	20587
868.756	20667
868.886	20492
869.017	20621
869.147	20765
869.278	20815
869.408	20724
869.539	20689
869.669	20754
869.799	20724
869.929	20758
870.06	20781
870.19	20956
870.32	20963
870.45	21074
870.58	21108
870.71	21138
870.84	21195
870.97	21157
871.1	21116
871.23	21116
871.36	21260
871.489	21150
871.619	21203
871.749	21298
871.879	21344
872.008	21397
872.138	21382
872.267	21321
872.397	21077
872.526	21017
872.656	21085
872.785	21085
872.915	21291
873.044	21348
873.173	21325
873.303	21500
873.432	21275
873.561	21435
873.69	21264
873.819	21321
873.948	21256
874.077	21241
874.206	21336
874.335	21165
874.464	21321
874.593	21614
874.722	21553
874.851	21587
874.979	21580
875.108	21553
875.237	21454
875.365	21504
875.494	21500
875.623	21652
875.751	21698
875.88	21622
876.008	21637
876.136	21747
876.265	22010
876.393	22070
876.521	22032
876.65	21991
876.778	21987
876.906	21884
877.034	21918
877.162	22002
877.29	21823
877.418	21907
877.546	21884
877.674	21869
877.802	21888
877.93	21770
878.058	21785
878.185	21835
878.313	21907
878.441	21808
878.568	21736
878.696	21854
878.824	21941
878.951	22017
879.079	22063
879.206	22192
879.333	21987
879.461	21949
879.588	21941
879.715	22059
879.842	22276
879.97	21915
880.097	21717
880.224	21728
880.351	21781
880.478	21694
880.605	21564
880.732	21747
880.859	21907
880.986	21774
881.112	21755
881.239	21622
881.366	21469
881.493	21370
881.619	21351
881.746	21294
881.872	21367
881.999	21348
882.125	21249
882.252	21211
882.378	21287
882.505	21397
882.631	21161
882.757	21104
882.883	21089
883.01	20990
883.136	20967
883.262	20937
883.388	20735
883.514	21081
883.64	21043
883.766	20933
883.892	20727
884.018	20758
884.143	20982
884.269	21085
884.395	20727
884.52	20739
884.646	20697
884.772	20590
884.897	20575
885.023	20678
885.148	20762
885.274	20781
885.399	20781
885.524	20583
885.65	20708
885.775	20587
885.9	20541
886.025	20568
886.15	20735
886.275	20556
886.4	20575
886.525	20674
886.65	20450
886.775	20499
886.9	20773
887.025	20861
887.149	20655
887.274	20571
887.399	20415
887.523	20374
887.648	20305
887.773	20492
887.897	20488
888.021	20518
888.146	20446
888.27	20480
888.395	20427
888.519	20404
888.643	20374
888.767	20511
888.891	20347
889.015	20256
889.139	20229
889.263	20214
889.387	20328
889.511	20415
889.635	20317
889.759	20271
889.883	20256
890.006	20218
890.13	20252
890.254	20100
890.377	20081
890.501	19928
890.624	20073
890.748	19963
890.871	19830
890.995	19651
891.118	19811
891.241	19875
891.364	19780
891.488	19913
891.611	19784
891.734	19799
891.857	19852
891.98	19822
892.103	19818
892.226	19704
892.349	19765
892.471	19491
892.594	19662
892.717	19784
892.839	19784
892.962	19689
893.085	19906
893.207	19693
893.33	19506
893.452	19506
893.575	19765
893.697	19620
893.819	19928
893.941	19883
894.064	19826
894.186	19742
894.308	19674
894.43	19791
894.552	19883
894.674	19845
894.796	19548
894.918	19704
895.04	19696
895.161	19738
895.283	19681
895.405	19613
895.526	19723
895.648	19655
895.769	19784
895.891	19769
896.012	19826
896.134	19734
896.255	19647
896.376	19635
896.498	19689
896.619	19674
896.74	19731
896.861	19750
896.982	19967
897.103	20191
897.224	19887
897.345	19830
897.466	19788
897.587	19879
897.708	20096
897.828	20161
897.949	19818
898.07	19769
898.19	19940
898.311	19944
898.431	19894
898.552	19818
898.672	19963
898.792	19993
898.913	20027
899.033	20005
899.153	19731
899.273	19571
899.393	19662
899.513	19784
899.633	19696
899.753	19639
899.873	19521
899.993	19772
900.113	19655
900.232	19727
900.352	19533
900.472	19582
900.591	19518
900.711	19445
900.83	19384
900.95	19556
901.069	19567
901.189	19335
901.308	19190
901.427	19076
901.546	19122
901.665	18954
901.784	19110
901.904	18909
902.023	18890
902.141	18650
902.26	18684
902.379	18703
902.498	18593
902.617	18544
902.735	18684
902.854	18578
902.973	18464
903.091	18319
903.21	18266
903.328	18266
903.446	18178
903.565	18095
903.683	18091
903.801	17882
903.919	18076
904.038	17958
904.156	17847
904.274	17927
904.392	17756
904.51	17775
904.627	17687
904.745	17855
904.863	17916
904.981	17623
905.098	17471
905.216	17554
905.334	17467
905.451	17516
905.569	17490
905.686	17589
905.803	17524
905.921	17200
906.038	17398
906.155	17353
906.272	17155
906.389	17204
906.506	17140
906.623	17014
906.74	16984
906.857	16877
906.974	16976
907.091	17170
907.208	17090
907.324	17067
907.441	17022
907.557	16812
907.674	16809
907.79	16710
907.907	16729
908.023	16752
908.139	16771
908.256	16729
908.372	16656
908.488	16687
908.604	16558
908.72	16481
908.836	16558
908.952	16284
909.068	16523
909.184	16516
909.3	16573
909.415	16550
909.531	16622
909.647	16169
909.762	16230
909.878	16128
909.993	16185
910.108	16173
910.224	16086
910.339	16097
910.454	16029
910.57	16067
910.685	15922
910.8	16226
910.915	16257
911.03	16055
911.145	15827
911.259	15884
911.374	15732
911.489	15751
911.604	15656
911.718	15610
911.833	15576
911.947	15447
912.062	15477
912.176	15557
912.291	15610
912.405	15515
912.519	15789
912.633	15736
912.748	15656
912.862	15496
912.976	15348
913.09	15275
913.204	15256
913.318	15355
913.431	15408
913.545	15439
913.659	15462
913.772	15397
913.886	15256
914	15199
914.113	15226
914.226	15222
914.34	15272
914.453	15043
914.566	15165
914.68	15032
914.793	15081
914.906	14880
915.019	14796
915.132	14788
915.245	14842
915.358	14815
915.47	14708
915.583	14800
915.696	14811
915.809	14902
915.921	14872
916.034	14667
916.146	14735
916.259	14621
916.371	14804
916.483	14826
916.595	14575
916.708	14537
916.82	14705
916.932	14594
917.044	14625
917.156	14587
917.268	14351
917.38	14480
917.491	14507
917.603	14454
917.715	14518
917.826	14575
917.938	14347
918.049	14396
918.161	14419
918.272	14545
918.384	14583
918.495	14362
918.606	14145
918.717	14191
918.828	14172
918.939	14267
919.05	14172
919.161	14214
919.272	13978
919.383	14084
919.494	14267
919.604	14374
919.715	14259
919.826	14119
919.936	14237
920.047	14370
920.157	14176
920.267	14408
920.378	14240
920.488	14130
920.598	14423
920.708	14533
920.818	14263
920.928	14404
921.038	14503
921.148	14393
921.258	14103
921.368	14100
921.477	13955
921.587	13967
921.697	13780
921.806	13871
921.916	13761
922.025	13715
922.134	13643
922.244	13544
922.353	13689
922.462	13480
922.571	13400
922.68	13282
922.789	13240
922.898	13263
923.007	13228
923.116	13198
923.224	13190
923.333	13133
923.442	13084
923.55	13053
923.659	13088
923.767	13095
923.876	13038
923.984	13133
924.092	12973
924.201	13038
924.309	13072
924.417	13095
924.525	12932
924.633	12875
924.741	13807
924.849	12741
924.956	12825
925.064	12764
925.172	12608
925.279	12696
925.387	12753
925.494	12700
925.602	12779
925.709	12623
925.816	12578
925.924	12593
926.031	12783
926.138	12570
926.245	12741
926.352	12479
926.459	12703
926.566	12703
926.673	12559
926.779	12429
926.886	12429
926.993	12270
927.099	12216
927.206	12190
927.312	12114
927.419	12338
927.525	12213
927.631	12228
927.737	12155
927.843	12053
927.95	11977
928.056	12133
928.162	12110
928.267	12190
928.373	12677
928.479	12167
928.585	11931
928.69	11988
928.796	11996
928.901	11946
929.007	11878
929.112	11942
929.218	11866
929.323	11843
929.428	11866
929.533	11916
929.638	11756
929.743	11805
929.848	11817
929.953	11764
930.058	11596
930.163	11509
930.267	11452
930.372	11611
930.477	11452
930.581	11630
930.685	11528
930.79	11402
930.894	11463
930.998	11334
931.103	11474
931.207	11132
931.311	11105
931.415	10991
931.519	10866
931.623	10790
