Data from test_V78500241_2459.txt Node
Date: Fri Mar 25 15:26:58 CST 2022
User: usil
Spectrometer: V785-0024
Trigger mode: 0
Integration Time (sec): 4.000000E-1
Scans to average: 1
Nonlinearity correction enabled: false
Boxcar width: 0
Storing dark spectrum: false
XAxis mode: Wavelengths
Number of Pixels in Spectrum: 1024
>>>>>Begin Spectral Data<<<<<
801.071	26967
801.214	26880
801.356	26731
801.499	26640
801.641	26537
801.783	26362
801.926	26560
802.068	26480
802.211	26476
802.353	26366
802.496	26092
802.638	26309
802.78	25970
802.923	26012
803.065	25890
803.208	25875
803.35	26005
803.492	26195
803.635	26172
803.777	26149
803.919	26221
804.061	26556
804.204	26183
804.346	26278
804.488	26164
804.63	26221
804.773	26111
804.915	26233
805.057	26290
805.199	26244
805.341	26301
805.483	26381
805.626	26309
805.768	26168
805.91	26336
806.052	26370
806.194	26161
806.336	26366
806.478	26328
806.62	26453
806.762	26412
806.904	26575
807.046	26849
807.188	26697
807.33	26861
807.472	26807
807.614	26613
807.756	26659
807.898	26632
808.04	26522
808.182	26556
808.324	26629
808.465	26526
808.607	26853
808.749	26887
808.891	26940
809.033	27089
809.174	26933
809.316	26849
809.458	26940
809.6	26819
809.741	26895
809.883	26994
810.025	27157
810.166	27218
810.308	27241
810.45	27249
810.591	26967
810.733	26853
810.875	26765
811.016	26899
811.158	26834
811.299	27024
811.441	27131
811.582	27233
811.724	26887
811.865	26986
812.007	26845
812.148	26853
812.29	26998
812.431	26788
812.573	27317
812.714	27218
812.855	27393
812.997	27450
813.138	27641
813.279	27435
813.421	27393
813.562	27279
813.703	27112
813.845	27036
813.986	26902
814.127	26632
814.268	26651
814.41	26678
814.551	26617
814.692	26514
814.833	26476
814.974	26549
815.115	26518
815.256	26412
815.397	26412
815.539	26488
815.68	26259
815.821	26240
815.962	26328
816.103	26355
816.244	26122
816.385	26229
816.526	26134
816.666	25902
816.807	25807
816.948	25894
817.089	25898
817.23	25776
817.371	25845
817.512	25689
817.653	25689
817.793	25658
817.934	25811
818.075	25712
818.216	25799
818.356	25807
818.497	25651
818.638	25514
818.778	25559
818.919	25449
819.06	25533
819.2	25662
819.341	25693
819.481	25757
819.622	25849
819.762	25997
819.903	26024
820.043	25955
820.184	25875
820.324	25826
820.465	26046
820.605	25944
820.746	25875
820.886	25742
821.026	25955
821.167	25776
821.307	25818
821.447	25852
821.588	25723
821.728	25575
821.868	25419
822.008	25369
822.149	25331
822.289	25293
822.429	25034
822.569	24875
822.709	24821
822.849	24833
822.99	24730
823.13	24738
823.27	24707
823.41	24513
823.55	24604
823.69	24635
823.83	24608
823.97	24464
824.11	24388
824.25	24353
824.389	24437
824.529	24426
824.669	24346
824.809	24475
824.949	24365
825.089	24372
825.228	24361
825.368	24285
825.508	24171
825.648	24155
825.787	24277
825.927	24410
826.067	24296
826.206	24266
826.346	24407
826.485	24414
826.625	24254
826.765	24334
826.904	24330
827.044	24102
827.183	23988
827.323	23946
827.462	24102
827.601	23935
827.741	23889
827.88	23939
828.02	23817
828.159	23942
828.298	24022
828.437	24049
828.577	23874
828.716	24167
828.855	23996
828.994	23779
829.134	23703
829.273	23802
829.412	23684
829.551	23714
829.69	23581
829.829	23726
829.968	23756
830.107	23623
830.246	23695
830.385	23543
830.524	23570
830.663	23520
830.802	23455
830.941	23383
831.08	23383
831.219	23417
831.357	23360
831.496	23589
831.635	23269
831.774	23181
831.913	23239
832.051	23113
832.19	23223
832.329	23136
832.467	22938
832.606	22900
832.744	22976
832.883	23010
833.022	22942
833.16	23010
833.299	23056
833.437	22961
833.576	22957
833.714	22942
833.852	23083
833.991	23083
834.129	23086
834.267	23098
834.406	22892
834.544	22991
834.682	23105
834.821	23037
834.959	23185
835.097	23044
835.235	23212
835.373	23178
835.511	23018
835.65	22911
835.788	22858
835.926	22752
836.064	22801
836.202	22782
836.34	22991
836.478	22923
836.615	22900
836.753	22858
836.891	22873
837.029	23010
837.167	22812
837.305	22824
837.443	22790
837.58	22740
837.718	22790
837.856	22782
837.993	22645
838.131	22668
838.269	22641
838.406	22660
838.544	22542
838.681	22402
838.819	22242
838.956	22257
839.094	22200
839.231	22166
839.369	22535
839.506	22580
839.643	22451
839.781	22341
839.918	22185
840.055	22265
840.193	22280
840.33	22154
840.467	22280
840.604	22207
840.742	22386
840.879	22059
841.016	22185
841.153	22048
841.29	22196
841.427	22200
841.564	22116
841.701	22105
841.838	22112
841.975	22150
842.112	22265
842.249	22158
842.385	21998
842.522	22200
842.659	22010
842.796	21922
842.933	21975
843.069	21911
843.206	21884
843.343	21873
843.479	21800
843.616	21865
843.752	21698
843.889	21610
844.025	21789
844.162	21682
844.298	21823
844.435	21759
844.571	21595
844.708	21766
844.844	21835
844.98	21827
845.117	21835
845.253	21720
845.389	21637
845.525	21652
845.661	21553
845.798	21473
845.934	21496
846.07	21492
846.206	21500
846.342	21561
846.478	21370
846.614	21294
846.75	21306
846.886	21131
847.022	21287
847.158	21188
847.294	21195
847.429	21207
847.565	21146
847.701	21428
847.837	21036
847.972	20838
848.108	20941
848.244	20918
848.379	20830
848.515	20697
848.65	20739
848.786	20918
848.921	20800
849.057	20994
849.192	20834
849.328	20773
849.463	20754
849.598	20720
849.734	20708
849.869	20575
850.004	20499
850.14	20560
850.275	20492
850.41	20412
850.545	20541
850.68	20423
850.815	20522
850.95	20564
851.085	20708
851.22	20651
851.355	20678
851.49	20587
851.625	20488
851.76	20511
851.895	20541
852.03	20522
852.165	20492
852.299	20594
852.434	20423
852.569	20560
852.703	20499
852.838	20571
852.973	20678
853.107	20625
853.242	20450
853.376	20358
853.511	20221
853.645	20347
853.78	20446
853.914	20389
854.048	20358
854.183	20290
854.317	20404
854.451	20613
854.585	20343
854.72	20419
854.854	20507
854.988	20332
855.122	20381
855.256	20275
855.39	20492
855.524	20480
855.658	20415
855.792	20434
855.926	20317
856.06	20492
856.194	20503
856.327	20275
856.461	20381
856.595	20206
856.729	20256
856.862	20427
856.996	20362
857.13	20507
857.263	20530
857.397	20434
857.53	20366
857.664	20358
857.797	20415
857.931	20503
858.064	20366
858.197	20412
858.331	20301
858.464	20301
858.597	20442
858.731	20396
858.864	20298
858.997	20366
859.13	20366
859.263	20324
859.396	20381
859.529	20355
859.662	20336
859.795	20339
859.928	20351
860.061	20606
860.194	20609
860.327	20476
860.46	20317
860.592	20507
860.725	20499
860.858	20412
860.99	20476
861.123	20176
861.256	20221
861.388	20294
861.521	20967
861.653	20122
861.786	20240
861.918	20225
862.05	20389
862.183	20305
862.315	20328
862.447	20389
862.58	20180
862.712	20092
862.844	19997
862.976	20240
863.108	20180
863.24	20590
863.372	20043
863.504	20069
863.636	20107
863.768	20039
863.9	20100
864.032	19944
864.164	20119
864.296	20054
864.428	20191
864.559	20111
864.691	20153
864.823	20267
864.954	20176
865.086	20027
865.217	20005
865.349	19932
865.48	19894
865.612	20035
865.743	20145
865.875	19947
866.006	19974
866.137	20016
866.269	19955
866.4	19947
866.531	20046
866.662	19890
866.793	20027
866.924	19925
867.055	19932
867.186	19936
867.317	19917
867.448	19940
867.579	19875
867.71	19856
867.841	19822
867.972	19947
868.103	19909
868.233	19959
868.364	19951
868.495	19989
868.625	20103
868.756	20248
868.886	20138
869.017	20145
869.147	20298
869.278	20320
869.408	20161
869.539	20161
869.669	20320
869.799	20275
869.929	20328
870.06	20248
870.19	20457
870.32	20438
870.45	20469
870.58	20571
870.71	20617
870.84	20598
870.97	20609
871.1	20678
871.23	20765
871.36	20743
871.489	20701
871.619	20769
871.749	20720
871.879	20724
872.008	20925
872.138	20746
872.267	20762
872.397	20617
872.526	20739
872.656	20609
872.785	20579
872.915	20735
873.044	20910
873.173	20792
873.303	20853
873.432	20887
873.561	20921
873.69	20765
873.819	20773
873.948	20933
874.077	20918
874.206	20800
874.335	20765
874.464	20906
874.593	21085
874.722	20967
874.851	21104
874.979	21138
875.108	21154
875.237	21096
875.365	20861
875.494	21009
875.623	21055
875.751	20960
875.88	21074
876.008	21211
876.136	21214
876.265	21386
876.393	21542
876.521	21526
876.65	21515
876.778	21485
876.906	21397
877.034	21374
877.162	21458
877.29	21359
877.418	21382
877.546	21428
877.674	21397
877.802	21363
877.93	21477
878.058	21416
878.185	21169
878.313	21435
878.441	21462
878.568	21275
878.696	21294
878.824	21275
878.951	21542
879.079	21652
879.206	21724
879.333	21557
879.461	21370
879.588	21557
879.715	21496
879.842	21682
879.97	21561
880.097	21222
880.224	21169
880.351	21321
880.478	21332
880.605	21222
880.732	21222
880.859	21526
880.986	21226
881.112	21416
881.239	21123
881.366	20990
881.493	20815
881.619	20906
881.746	20800
881.872	20785
881.999	20807
882.125	20663
882.252	20921
882.378	20731
882.505	20899
882.631	20689
882.757	20396
882.883	20575
883.01	20533
883.136	20492
883.262	20499
883.388	20427
883.514	20545
883.64	20621
883.766	20488
883.892	20298
884.018	20385
884.143	20522
884.269	20473
884.395	20263
884.52	20252
884.646	20221
884.772	20088
884.897	20054
885.023	20103
885.148	20301
885.274	20225
885.399	20332
885.524	20122
885.65	20229
885.775	20161
885.9	20210
886.025	20320
886.15	20267
886.275	20130
886.4	20020
886.525	20119
886.65	20069
886.775	20115
886.9	20336
887.025	20301
887.149	20164
887.274	19955
887.399	19951
887.523	20027
887.648	19883
887.773	19936
887.897	20111
888.021	20100
888.146	19902
888.27	19974
888.395	20001
888.519	19932
888.643	19989
888.767	19902
888.891	19807
889.015	19651
889.139	19868
889.263	19780
889.387	19822
889.511	19947
889.635	19902
889.759	19708
889.883	19685
890.006	19761
890.13	19868
890.254	19647
890.377	19696
890.501	19647
890.624	19548
890.748	19483
890.871	19415
890.995	19354
891.118	19324
891.241	19400
891.364	19339
891.488	19415
891.611	19358
891.734	19282
891.857	19350
891.98	19384
892.103	19407
892.226	19335
892.349	19293
892.471	19247
892.594	19270
892.717	19316
892.839	19266
892.962	19247
893.085	19259
893.207	19240
893.33	19160
893.452	19137
893.575	19362
893.697	19187
893.819	19388
893.941	19476
894.064	19335
894.186	19339
894.308	19202
894.43	19346
894.552	19365
894.674	19362
894.796	19236
894.918	19160
895.04	19308
895.161	19225
895.283	19236
895.405	19190
895.526	19217
895.648	19285
895.769	19293
895.891	19259
896.012	19339
896.134	19358
896.255	19320
896.376	19236
896.498	19213
896.619	19362
896.74	19278
896.861	19354
896.982	19601
897.103	19670
897.224	19510
897.345	19407
897.466	19381
897.587	19533
897.708	19624
897.828	19563
897.949	19430
898.07	19483
898.19	19445
898.311	19651
898.431	19563
898.552	19578
898.672	19624
898.792	19563
898.913	19556
899.033	19422
899.153	19392
899.273	19320
899.393	19346
899.513	19228
899.633	19247
899.753	19266
899.873	19190
899.993	19209
900.113	19225
900.232	19289
900.352	19217
900.472	18993
900.591	19053
900.711	19095
900.83	18993
900.95	19190
901.069	19209
901.189	19046
901.308	18730
901.427	18677
901.546	18631
901.665	18673
901.784	18631
901.904	18528
902.023	18498
902.141	18171
902.26	18228
902.379	18254
902.498	18174
902.617	18057
902.735	18224
902.854	18228
902.973	18106
903.091	17897
903.21	17866
903.328	17824
903.446	17756
903.565	17703
903.683	17653
903.801	17543
903.919	17653
904.038	17547
904.156	17509
904.274	17459
904.392	17429
904.51	17425
904.627	17387
904.745	17551
904.863	17395
904.981	17334
905.098	17318
905.216	17090
905.334	17231
905.451	17258
905.569	17064
905.686	17223
905.803	17071
905.921	17060
906.038	16949
906.155	16957
906.272	16915
906.389	16850
906.506	16706
906.623	16683
906.74	16733
906.857	16592
906.974	16634
907.091	16641
907.208	16774
907.324	16660
907.441	16664
907.557	16443
907.674	16417
907.79	16287
907.907	16428
908.023	16428
908.139	16379
908.256	16303
908.372	16363
908.488	16238
908.604	16135
908.72	16093
908.836	16150
908.952	16078
909.068	16078
909.184	16207
909.3	16025
909.415	16135
909.531	16131
909.647	15876
909.762	15876
909.878	15793
909.993	15907
910.108	15869
910.224	15762
910.339	15709
910.454	15770
910.57	15614
910.685	15542
910.8	15926
910.915	15774
911.03	15656
911.145	15553
911.259	15416
911.374	15435
911.489	15359
911.604	15443
911.718	15313
911.833	15283
911.947	15150
912.062	15150
912.176	15245
912.291	15389
912.405	15302
912.519	15428
912.633	15386
912.748	15245
912.862	15199
912.976	15039
913.09	14876
913.204	14944
913.318	14956
913.431	15112
913.545	15108
913.659	15043
913.772	15005
913.886	14876
914	14826
914.113	14925
914.226	14921
914.34	14876
914.453	14678
914.566	14834
914.68	14678
914.793	14804
914.906	14469
915.019	14465
915.132	14450
915.245	14427
915.358	14442
915.47	14419
915.583	14465
915.696	14438
915.809	14632
915.921	14564
916.034	14408
916.146	14358
916.259	14259
916.371	14549
916.483	14404
916.595	14252
916.708	14324
916.82	14377
916.932	14366
917.044	14248
917.156	14233
917.268	14111
917.38	14138
917.491	14161
917.603	14180
917.715	14229
917.826	14176
917.938	14123
918.049	13970
918.161	14001
918.272	14164
918.384	14237
918.495	14157
918.606	13925
918.717	13807
918.828	13917
918.939	13906
919.05	13909
919.161	13936
919.272	13776
919.383	13818
919.494	13875
919.604	14081
919.715	13913
919.826	13780
919.936	13887
920.047	13909
920.157	13856
920.267	14176
920.378	13890
920.488	13860
920.598	14046
920.708	14233
920.818	13986
920.928	14020
921.038	14225
921.148	14202
921.258	13803
921.368	13769
921.477	13632
921.587	13594
921.697	13487
921.806	13632
921.916	13449
922.025	13304
922.134	13282
922.244	13213
922.353	13381
922.462	13179
922.571	13110
922.68	13015
922.789	12962
922.898	13012
923.007	12840
923.116	12943
923.224	12878
923.333	12894
923.442	12833
923.55	12722
923.659	12730
923.767	12760
923.876	12802
923.984	12734
924.092	12768
924.201	12669
924.309	12692
924.417	12722
924.525	12578
924.633	12544
924.741	13521
924.849	12452
924.956	12662
925.064	12418
925.172	12270
925.279	12338
925.387	12414
925.494	12323
925.602	12452
925.709	12391
925.816	12243
925.924	12346
926.031	12445
926.138	12330
926.245	12388
926.352	12232
926.459	12338
926.566	12410
926.673	12308
926.779	12175
926.886	12133
926.993	12015
927.099	12053
927.206	11980
927.312	11885
927.419	11992
927.525	12003
927.631	12038
927.737	11832
927.843	11950
927.95	11699
928.056	11843
928.162	11817
928.267	11847
928.373	12452
928.479	11878
928.585	11726
928.69	11691
928.796	11786
928.901	11627
929.007	11570
929.112	11649
929.218	11596
929.323	11627
929.428	11592
929.533	11630
929.638	11436
929.743	11520
929.848	11657
929.953	11372
930.058	11436
930.163	11189
930.267	11170
930.372	11395
930.477	11181
930.581	11372
930.685	11303
930.79	11170
930.894	11193
930.998	11079
931.103	11326
931.207	10892
931.311	10763
931.415	10797
931.519	10630
931.623	10561
