Data from test_V78500241_3069.txt Node
Date: Fri Mar 25 15:31:13 CST 2022
User: usil
Spectrometer: V785-0024
Trigger mode: 0
Integration Time (sec): 4.000000E-1
Scans to average: 1
Nonlinearity correction enabled: false
Boxcar width: 0
Storing dark spectrum: false
XAxis mode: Wavelengths
Number of Pixels in Spectrum: 1024
>>>>>Begin Spectral Data<<<<<
801.071	27214
801.214	27173
801.356	26990
801.499	26956
801.641	26735
801.783	26948
801.926	26830
802.068	26910
802.211	26872
802.353	26781
802.496	26575
802.638	26450
802.78	26453
802.923	26347
803.065	26404
803.208	26225
803.35	26560
803.492	26568
803.635	26621
803.777	26511
803.919	26552
804.061	26921
804.204	26667
804.346	26556
804.488	26533
804.63	26552
804.773	26347
804.915	26571
805.057	26701
805.199	26564
805.341	26800
805.483	26697
805.626	26659
805.768	26655
805.91	26682
806.052	26815
806.194	26473
806.336	26830
806.478	26735
806.62	26499
806.762	26667
806.904	26921
807.046	27287
807.188	27233
807.33	27169
807.472	27173
807.614	27032
807.756	27055
807.898	27043
808.04	26910
808.182	26883
808.324	26849
808.465	26902
808.607	27180
808.749	27370
808.891	27405
809.033	27534
809.174	27412
809.316	27408
809.458	27157
809.6	27268
809.741	27427
809.883	27477
810.025	27568
810.166	27660
810.308	27439
810.45	27583
810.591	27538
810.733	27431
810.875	27492
811.016	27306
811.158	27119
811.299	27458
811.441	27481
811.582	27500
811.724	27393
811.865	27230
812.007	27291
812.148	27332
812.29	27279
812.431	27504
812.573	27583
812.714	27682
812.855	27747
812.997	27781
813.138	27937
813.279	27975
813.421	27804
813.562	27724
813.703	27583
813.845	27424
813.986	27100
814.127	27020
814.268	26929
814.41	26952
814.551	27005
814.692	27017
814.833	27051
814.974	26849
815.115	27005
815.256	26921
815.397	26826
815.539	26864
815.68	26872
815.821	26590
815.962	26640
816.103	26781
816.244	26678
816.385	26514
816.526	26495
816.666	26427
816.807	26298
816.948	26347
817.089	26328
817.23	26393
817.371	26126
817.512	26301
817.653	26240
817.793	26206
817.934	26313
818.075	26271
818.216	26286
818.356	26183
818.497	26130
818.638	25925
818.778	25811
818.919	25959
819.06	25955
819.2	26142
819.341	26206
819.481	26244
819.622	26290
819.762	26556
819.903	26412
820.043	26457
820.184	26298
820.324	26328
820.465	26381
820.605	26313
820.746	26278
820.886	26111
821.026	26317
821.167	26415
821.307	26457
821.447	26377
821.588	26081
821.728	26043
821.868	25921
822.008	25765
822.149	25734
822.289	25727
822.429	25415
822.569	25426
822.709	25369
822.849	25236
822.99	25206
823.13	25187
823.27	24989
823.41	25042
823.55	24867
823.69	25046
823.83	25168
823.97	24909
824.11	24840
824.25	24768
824.389	24639
824.529	25015
824.669	24776
824.809	24973
824.949	24871
825.089	24958
825.228	24897
825.368	24684
825.508	24631
825.648	24730
825.787	24760
825.927	24684
826.067	24707
826.206	24673
826.346	24760
826.485	24776
826.625	24597
826.765	24886
826.904	24627
827.044	24467
827.183	24509
827.323	24311
827.462	24308
827.601	24429
827.741	24410
827.88	24376
828.02	24251
828.159	24372
828.298	24388
828.437	24433
828.577	24410
828.716	24372
828.855	24342
828.994	24174
829.134	24159
829.273	24239
829.412	24034
829.551	24083
829.69	24133
829.829	24190
829.968	24174
830.107	24171
830.246	24045
830.385	24197
830.524	24034
830.663	23843
830.802	23821
830.941	23699
831.08	23817
831.219	23824
831.357	23786
831.496	23916
831.635	23726
831.774	23687
831.913	23684
832.051	23490
832.19	23524
832.329	23486
832.467	23372
832.606	23311
832.744	23311
832.883	23372
833.022	23368
833.16	23410
833.299	23349
833.437	23497
833.576	23573
833.714	23486
833.852	23448
833.991	23436
834.129	23585
834.267	23634
834.406	23425
834.544	23406
834.682	23528
834.821	23387
834.959	23672
835.097	23337
835.235	23497
835.373	23269
835.511	23452
835.65	23406
835.788	23258
835.926	23242
836.064	23083
836.202	23090
836.34	23208
836.478	23486
836.615	23197
836.753	23235
836.891	23349
837.029	23204
837.167	23307
837.305	23242
837.443	23124
837.58	23155
837.718	23284
837.856	23098
837.993	23075
838.131	23151
838.269	23094
838.406	23010
838.544	23037
838.681	22866
838.819	22748
838.956	22508
839.094	22577
839.231	22592
839.369	22790
839.506	22976
839.643	22965
839.781	22660
839.918	22546
840.055	22588
840.193	22584
840.33	22519
840.467	22538
840.604	22584
840.742	22858
840.879	22531
841.016	22516
841.153	22394
841.29	22531
841.427	22580
841.564	22683
841.701	22519
841.838	22557
841.975	22417
842.112	22596
842.249	22455
842.385	22379
842.522	22557
842.659	22379
842.796	22356
842.933	22371
843.069	22242
843.206	22242
843.343	22329
843.479	22295
843.616	22280
843.752	22112
843.889	21975
844.025	22169
844.162	21968
844.298	22143
844.435	22002
844.571	22086
844.708	22082
844.844	22162
844.98	22310
845.117	22147
845.253	21983
845.389	21960
845.525	21895
845.661	22006
845.798	21846
845.934	21808
846.07	21884
846.206	21835
846.342	21979
846.478	21789
846.614	21583
846.75	21682
846.886	21580
847.022	21515
847.158	21667
847.294	21637
847.429	21530
847.565	21458
847.701	21819
847.837	21370
847.972	21298
848.108	21378
848.244	21389
848.379	21184
848.515	21150
848.65	21154
848.786	21108
848.921	21096
849.057	21317
849.192	21131
849.328	21192
849.463	21077
849.598	21043
849.734	21093
849.869	21024
850.004	20834
850.14	20876
850.275	20967
850.41	20914
850.545	20830
850.68	20864
850.815	20861
850.95	20967
851.085	21062
851.22	20990
851.355	20925
851.49	20800
851.625	20918
851.76	20811
851.895	20868
852.03	20785
852.165	20899
852.299	21024
852.434	20906
852.569	20963
852.703	20880
852.838	20925
852.973	21036
853.107	21024
853.242	20834
853.376	20697
853.511	20689
853.645	20708
853.78	20811
853.914	20800
854.048	20674
854.183	20682
854.317	20689
854.451	20925
854.585	20819
854.72	20697
854.854	20823
854.988	20636
855.122	20773
855.256	20587
855.39	20785
855.524	20796
855.658	20705
855.792	20727
855.926	20739
856.06	20785
856.194	20823
856.327	20716
856.461	20678
856.595	20743
856.729	20800
856.862	20872
856.996	20705
857.13	20823
857.263	20902
857.397	20781
857.53	20659
857.664	20788
857.797	20731
857.931	20743
858.064	20804
858.197	20910
858.331	20720
858.464	20739
858.597	20651
858.731	20678
858.864	20629
858.997	20678
859.13	20720
859.263	20765
859.396	20838
859.529	20693
859.662	20750
859.795	20796
859.928	20750
860.061	20975
860.194	20902
860.327	20735
860.46	20754
860.592	20906
860.725	20895
860.858	20754
860.99	20773
861.123	20663
861.256	20708
861.388	20773
861.521	21233
861.653	20579
861.786	20530
861.918	20511
862.05	20651
862.183	20651
862.315	20648
862.447	20705
862.58	20533
862.712	20480
862.844	20374
862.976	20545
863.108	20473
863.24	20777
863.372	20400
863.504	20419
863.636	20495
863.768	20514
863.9	20454
864.032	20370
864.164	20309
864.296	20587
864.428	20541
864.559	20454
864.691	20533
864.823	20484
864.954	20328
865.086	20434
865.217	20324
865.349	20362
865.48	20461
865.612	20434
865.743	20514
865.875	20450
866.006	20332
866.137	20419
866.269	20336
866.4	20347
866.531	20396
866.662	20294
866.793	20267
866.924	20237
867.055	20275
867.186	20309
867.317	20267
867.448	20149
867.579	20294
867.71	20248
867.841	20176
867.972	20370
868.103	20221
868.233	20294
868.364	20187
868.495	20415
868.625	20518
868.756	20617
868.886	20431
869.017	20511
869.147	20575
869.278	20625
869.408	20594
869.539	20590
869.669	20686
869.799	20701
869.929	20526
870.06	20629
870.19	20857
870.32	20750
870.45	20819
870.58	20952
870.71	21039
870.84	21085
870.97	20982
871.1	20804
871.23	21119
871.36	21070
871.489	21074
871.619	21161
871.749	21199
871.879	21203
872.008	21279
872.138	21188
872.267	21074
872.397	20937
872.526	21116
872.656	20963
872.785	20944
872.915	21150
873.044	21249
873.173	21180
873.303	21116
873.432	21188
873.561	21344
873.69	21233
873.819	21131
873.948	21222
874.077	21081
874.206	21081
874.335	21218
874.464	21256
874.593	21370
874.722	21443
874.851	21329
874.979	21416
875.108	21397
875.237	21344
875.365	21260
875.494	21420
875.623	21428
875.751	21389
875.88	21382
876.008	21481
876.136	21610
876.265	21873
876.393	21960
876.521	21899
876.65	21823
876.778	21793
876.906	21747
877.034	21766
877.162	21846
877.29	21648
877.418	21762
877.546	21762
877.674	21785
877.802	21713
877.93	21759
878.058	21698
878.185	21618
878.313	21675
878.441	21762
878.568	21701
878.696	21747
878.824	21812
878.951	21823
879.079	21819
879.206	21968
879.333	21850
879.461	21720
879.588	21873
879.715	21873
879.842	22078
879.97	21800
880.097	21633
880.224	21580
880.351	21682
880.478	21622
880.605	21595
880.732	21580
880.859	21819
880.986	21519
881.112	21648
881.239	21370
881.366	21351
881.493	21291
881.619	21203
881.746	21100
881.872	21146
881.999	21047
882.125	21096
882.252	21279
882.378	21116
882.505	21252
882.631	21089
882.757	20937
882.883	20986
883.01	20861
883.136	20807
883.262	20705
883.388	20659
883.514	20819
883.64	20743
883.766	20788
883.892	20606
884.018	20609
884.143	20792
884.269	20902
884.395	20495
884.52	20469
884.646	20533
884.772	20336
884.897	20427
885.023	20457
885.148	20609
885.274	20682
885.399	20568
885.524	20549
885.65	20492
885.775	20450
885.9	20415
886.025	20590
886.15	20625
886.275	20533
886.4	20343
886.525	20427
886.65	20404
886.775	20476
886.9	20575
887.025	20689
887.149	20556
887.274	20351
887.399	20343
887.523	20317
887.648	20172
887.773	20111
887.897	20339
888.021	20370
888.146	20305
888.27	20362
888.395	20434
888.519	20237
888.643	20282
888.767	20237
888.891	20233
889.015	20176
889.139	20043
889.263	20092
889.387	20252
889.511	20278
889.635	20263
889.759	20077
889.883	20035
890.006	20081
890.13	20039
890.254	19974
890.377	20058
890.501	19868
890.624	19856
890.748	19906
890.871	19852
890.995	19624
891.118	19658
891.241	19677
891.364	19677
891.488	19807
891.611	19605
891.734	19605
891.857	19742
891.98	19708
892.103	19757
892.226	19818
892.349	19658
892.471	19434
892.594	19609
892.717	19666
892.839	19613
892.962	19506
893.085	19582
893.207	19597
893.33	19457
893.452	19510
893.575	19723
893.697	19559
893.819	19658
893.941	19780
894.064	19670
894.186	19559
894.308	19533
894.43	19586
894.552	19807
894.674	19605
894.796	19567
894.918	19647
895.04	19392
895.161	19712
895.283	19662
895.405	19552
895.526	19605
895.648	19499
895.769	19689
895.891	19605
896.012	19586
896.134	19696
896.255	19605
896.376	19552
896.498	19548
896.619	19635
896.74	19578
896.861	19586
896.982	19913
897.103	20031
897.224	19883
897.345	19772
897.466	19803
897.587	19890
897.708	19913
897.828	19940
897.949	19658
898.07	19689
898.19	19746
898.311	19871
898.431	19761
898.552	19776
898.672	19928
898.792	19921
898.913	19757
899.033	19689
899.153	19696
899.273	19483
899.393	19594
899.513	19575
899.633	19521
899.753	19662
899.873	19559
899.993	19582
900.113	19605
900.232	19594
900.352	19445
900.472	19396
900.591	19377
900.711	19346
900.83	19221
900.95	19468
901.069	19346
901.189	19301
901.308	19095
901.427	18920
901.546	19023
901.665	18993
901.784	18916
901.904	18875
902.023	18696
902.141	18601
902.26	18509
902.379	18589
902.498	18517
902.617	18479
902.735	18494
902.854	18521
902.973	18433
903.091	18114
903.21	18186
903.328	18171
903.446	18087
903.565	18045
903.683	18060
903.801	17893
903.919	17908
904.038	17866
904.156	17764
904.274	17840
904.392	17703
904.51	17802
904.627	17733
904.745	17817
904.863	17710
904.981	17520
905.098	17322
905.216	17421
905.334	17421
905.451	17334
905.569	17307
905.686	17467
905.803	17280
905.921	17166
906.038	17280
906.155	17105
906.272	17052
906.389	17128
906.506	16995
906.623	16896
906.74	16953
906.857	16843
906.974	16862
907.091	17064
907.208	17033
907.324	16976
907.441	16736
907.557	16656
907.674	16607
907.79	16626
907.907	16706
908.023	16668
908.139	16634
908.256	16611
908.372	16653
908.488	16546
908.604	16428
908.72	16413
908.836	16341
908.952	16447
909.068	16402
909.184	16470
909.3	16348
909.415	16375
909.531	16497
909.647	16124
909.762	16090
909.878	16090
909.993	16112
910.108	15975
910.224	16051
910.339	16093
910.454	16021
910.57	15953
910.685	15762
910.8	16116
910.915	15934
911.03	15945
911.145	15759
911.259	15778
911.374	15770
911.489	15603
911.604	15500
911.718	15355
911.833	15466
911.947	15367
912.062	15279
912.176	15389
912.291	15557
912.405	15420
912.519	15599
912.633	15675
912.748	15428
912.862	15393
912.976	15245
913.09	15199
913.204	15260
913.318	15279
913.431	15363
913.545	15317
913.659	15405
913.772	15180
913.886	15055
914	14967
914.113	15142
914.226	15195
914.34	15062
914.453	15024
914.566	15169
914.68	14998
914.793	14895
914.906	14739
915.019	14746
915.132	14610
915.245	14686
915.358	14823
915.47	14739
915.583	14667
915.696	14667
915.809	14788
915.921	14819
916.034	14693
916.146	14602
916.259	14541
916.371	14659
916.483	14674
916.595	14507
916.708	14514
916.82	14514
916.932	14454
917.044	14446
917.156	14389
917.268	14404
917.38	14366
917.491	14343
917.603	14446
917.715	14423
917.826	14473
917.938	14377
918.049	14347
918.161	14347
918.272	14442
918.384	14454
918.495	14271
918.606	14176
918.717	14172
918.828	14153
918.939	14176
919.05	14016
919.161	14039
919.272	13959
919.383	13982
919.494	14115
919.604	14328
919.715	14157
919.826	14012
919.936	14069
920.047	14176
920.157	14050
920.267	14294
920.378	14130
920.488	14111
920.598	14252
920.708	14423
920.818	14206
920.928	14275
921.038	14476
921.148	14328
921.258	14103
921.368	14024
921.477	13852
921.587	13902
921.697	13742
921.806	13791
921.916	13799
922.025	13582
922.134	13506
922.244	13483
922.353	13586
922.462	13426
922.571	13365
922.68	13129
922.789	13152
922.898	13149
923.007	13088
923.116	13183
923.224	13129
923.333	13088
923.442	12973
923.55	12962
923.659	12932
923.767	13114
923.876	12810
923.984	13023
924.092	12875
924.201	12901
924.309	12837
924.417	12871
924.525	12856
924.633	12859
924.741	13830
924.849	12639
924.956	12745
925.064	12662
925.172	12551
925.279	12498
925.387	12601
925.494	12467
925.602	12662
925.709	12646
925.816	12547
925.924	12426
926.031	12521
926.138	12563
926.245	12585
926.352	12361
926.459	12585
926.566	12654
926.673	12410
926.779	12323
926.886	12308
926.993	12197
927.099	12110
927.206	12117
927.312	12163
927.419	12125
927.525	12144
927.631	12194
927.737	12079
927.843	12041
927.95	11954
928.056	12007
928.162	12064
928.267	12045
928.373	12604
928.479	12064
928.585	11726
928.69	12007
928.796	12030
928.901	11923
929.007	11729
929.112	11802
929.218	11874
929.323	11714
929.428	11699
929.533	11828
929.638	11619
929.743	11726
929.848	11809
929.953	11714
930.058	11554
930.163	11398
930.267	11395
930.372	11577
930.477	11448
930.581	11615
930.685	11493
930.79	11372
930.894	11349
930.998	11261
931.103	11440
931.207	11094
931.311	11010
931.415	10972
931.519	10691
931.623	10679
