Data from test_V78500241_1247.txt Node
Date: Fri Mar 25 15:18:32 CST 2022
User: usil
Spectrometer: V785-0024
Trigger mode: 0
Integration Time (sec): 4.000000E-1
Scans to average: 1
Nonlinearity correction enabled: false
Boxcar width: 0
Storing dark spectrum: false
XAxis mode: Wavelengths
Number of Pixels in Spectrum: 1024
>>>>>Begin Spectral Data<<<<<
801.071	27842
801.214	27660
801.356	27435
801.499	27321
801.641	27222
801.783	27260
801.926	27233
802.068	27268
802.211	27093
802.353	27150
802.496	27039
802.638	26880
802.78	26853
802.923	26925
803.065	26773
803.208	26743
803.35	26842
803.492	27028
803.635	27173
803.777	26872
803.919	27100
804.061	27515
804.204	27173
804.346	26952
804.488	26990
804.63	27020
804.773	26975
804.915	27169
805.057	27249
805.199	27047
805.341	27093
805.483	27287
805.626	27032
805.768	27036
805.91	27173
806.052	27222
806.194	27104
806.336	27329
806.478	27203
806.62	27192
806.762	27313
806.904	27576
807.046	27564
807.188	27629
807.33	27622
807.472	27595
807.614	27542
807.756	27637
807.898	27511
808.04	27454
808.182	27382
808.324	27405
808.465	27488
808.607	27724
808.749	27698
808.891	27956
809.033	27949
809.174	27922
809.316	27808
809.458	27732
809.6	27591
809.741	27934
809.883	27945
810.025	28196
810.166	28150
810.308	28074
810.45	28086
810.591	28044
810.733	27869
810.875	27899
811.016	27591
811.158	27679
811.299	27842
811.441	27987
811.582	28025
811.724	27994
811.865	27808
812.007	27766
812.148	27930
812.29	27800
812.431	28147
812.573	28204
812.714	28242
812.855	28318
812.997	28295
813.138	28664
813.279	28500
813.421	28291
813.562	28314
813.703	28230
813.845	28173
813.986	27774
814.127	27530
814.268	27629
814.41	27447
814.551	27485
814.692	27682
814.833	27317
814.974	27507
815.115	27519
815.256	27310
815.397	27492
815.539	27325
815.68	27424
815.821	27245
815.962	27294
816.103	27370
816.244	27291
816.385	27112
816.526	27142
816.666	26838
816.807	26705
816.948	26872
817.089	27051
817.23	26849
817.371	26887
817.512	26834
817.653	26823
817.793	26720
817.934	26781
818.075	26845
818.216	26765
818.356	26746
818.497	26697
818.638	26602
818.778	26526
818.919	26670
819.06	26682
819.2	26568
819.341	26899
819.481	26762
819.622	26925
819.762	27157
819.903	27081
820.043	26986
820.184	27028
820.324	26963
820.465	26998
820.605	26944
820.746	26899
820.886	26804
821.026	26963
821.167	26830
821.307	26796
821.447	26823
821.588	26746
821.728	26602
821.868	26377
822.008	26351
822.149	26305
822.289	26271
822.429	26012
822.569	26001
822.709	25803
822.849	25723
822.99	25826
823.13	25837
823.27	25670
823.41	25704
823.55	25495
823.69	25529
823.83	25613
823.97	25552
824.11	25430
824.25	25343
824.389	25362
824.529	25594
824.669	25483
824.809	25559
824.949	25354
825.089	25533
825.228	25544
825.368	25362
825.508	25324
825.648	25369
825.787	25445
825.927	25396
826.067	25282
826.206	25251
826.346	25343
826.485	25369
826.625	25327
826.765	25422
826.904	25362
827.044	25088
827.183	25114
827.323	24985
827.462	25247
827.601	24970
827.741	25038
827.88	25114
828.02	25015
828.159	24970
828.298	25050
828.437	25072
828.577	24928
828.716	25103
828.855	24985
828.994	24783
829.134	24871
829.273	24863
829.412	24654
829.551	24715
829.69	24863
829.829	24810
829.968	24821
830.107	24924
830.246	24734
830.385	24661
830.524	24658
830.663	24551
830.802	24464
830.941	24338
831.08	24289
831.219	24471
831.357	24437
831.496	24639
831.635	24433
831.774	24414
831.913	24350
832.051	24152
832.19	24174
832.329	24205
832.467	24163
832.606	24114
832.744	23931
832.883	24133
833.022	24125
833.16	24064
833.299	24178
833.437	24152
833.576	24133
833.714	24106
833.852	24186
833.991	24174
834.129	24186
834.267	24190
834.406	24224
834.544	24201
834.682	24140
834.821	24114
834.959	24205
835.097	24095
835.235	24167
835.373	23988
835.511	24159
835.65	23889
835.788	24030
835.926	23870
836.064	23786
836.202	23729
836.34	23999
836.478	23969
836.615	23851
836.753	23912
836.891	24038
837.029	24057
837.167	23851
837.305	23771
837.443	23927
837.58	23878
837.718	23897
837.856	23813
837.993	23699
838.131	23851
838.269	23714
838.406	23824
838.544	23703
838.681	23608
838.819	23459
838.956	23303
839.094	23345
839.231	23258
839.369	23490
839.506	23710
839.643	23592
839.781	23208
839.918	23246
840.055	23341
840.193	23159
840.33	23181
840.467	23147
840.604	23242
840.742	23376
840.879	22980
841.016	23117
841.153	23014
841.29	23246
841.427	23109
841.564	23113
841.701	23090
841.838	23239
841.975	23052
842.112	23014
842.249	23037
842.385	22927
842.522	23105
842.659	23033
842.796	22900
842.933	22991
843.069	22991
843.206	22900
843.343	23041
843.479	22934
843.616	22881
843.752	22702
843.889	22759
844.025	22889
844.162	22793
844.298	22744
844.435	22618
844.571	22664
844.708	22733
844.844	22938
844.98	22877
845.117	22850
845.253	22588
845.389	22550
845.525	22622
845.661	22713
845.798	22352
845.934	22664
846.07	22478
846.206	22557
846.342	22554
846.478	22276
846.614	22246
846.75	22048
846.886	22177
847.022	22402
847.158	22234
847.294	22299
847.429	22204
847.565	22284
847.701	22360
847.837	21911
847.972	21732
848.108	21922
848.244	21991
848.379	21892
848.515	21770
848.65	21728
848.786	21774
848.921	21663
849.057	21854
849.192	21785
849.328	21831
849.463	21789
849.598	21797
849.734	21701
849.869	21637
850.004	21641
850.14	21644
850.275	21496
850.41	21515
850.545	21473
850.68	21447
850.815	21519
850.95	21542
851.085	21766
851.22	21648
851.355	21660
851.49	21610
851.625	21496
851.76	21424
851.895	21424
852.03	21408
852.165	21473
852.299	21492
852.434	21568
852.569	21466
852.703	21583
852.838	21633
852.973	21690
853.107	21648
853.242	21526
853.376	21389
853.511	21287
853.645	21439
853.78	21530
853.914	21393
854.048	21306
854.183	21359
854.317	21485
854.451	21614
854.585	21363
854.72	21382
854.854	21367
854.988	21165
855.122	21370
855.256	21150
855.39	21393
855.524	21344
855.658	21473
855.792	21454
855.926	21359
856.06	21340
856.194	21515
856.327	21374
856.461	21336
856.595	21370
856.729	21325
856.862	21523
856.996	21325
857.13	21473
857.263	21507
857.397	21412
857.53	21306
857.664	21458
857.797	21420
857.931	21458
858.064	21431
858.197	21473
858.331	21310
858.464	21340
858.597	21264
858.731	21359
858.864	21359
858.997	21268
859.13	21336
859.263	21283
859.396	21534
859.529	21477
859.662	21260
859.795	21249
859.928	21408
860.061	21591
860.194	21553
860.327	21450
860.46	21275
860.592	21485
860.725	21534
860.858	21519
860.99	21370
861.123	21325
861.256	21329
861.388	21408
861.521	22040
861.653	21321
861.786	21093
861.918	21142
862.05	21249
862.183	21135
862.315	21230
862.447	21363
862.58	21203
862.712	20990
862.844	21024
862.976	21157
863.108	21146
863.24	21405
863.372	21036
863.504	20933
863.636	21001
863.768	21070
863.9	21081
864.032	20963
864.164	20982
864.296	21135
864.428	21131
864.559	21146
864.691	21188
864.823	21154
864.954	21077
865.086	21055
865.217	20906
865.349	20994
865.48	21055
865.612	20982
865.743	21074
865.875	21157
866.006	20941
866.137	21066
866.269	20937
866.4	21009
866.531	20891
866.662	20853
866.793	20948
866.924	21039
867.055	21001
867.186	20887
867.317	20857
867.448	20785
867.579	20838
867.71	20796
867.841	20838
867.972	20807
868.103	20868
868.233	21051
868.364	21028
868.495	20990
868.625	21123
868.756	21226
868.886	21081
869.017	21116
869.147	21230
869.278	21249
869.408	21081
869.539	21157
869.669	21199
869.799	21207
869.929	21249
870.06	21169
870.19	21485
870.32	21401
870.45	21500
870.58	21549
870.71	21561
870.84	21717
870.97	21473
871.1	21614
871.23	21717
871.36	21724
871.489	21656
871.619	21644
871.749	21793
871.879	21816
872.008	21663
872.138	21739
872.267	21717
872.397	21576
872.526	21523
872.656	21485
872.785	21496
872.915	21728
873.044	21831
873.173	21770
873.303	21808
873.432	21819
873.561	21835
873.69	21884
873.819	21755
873.948	21831
874.077	21720
874.206	21648
874.335	21713
874.464	21895
874.593	21968
874.722	21918
874.851	22025
874.979	22093
875.108	21964
875.237	22074
875.365	21857
875.494	21964
875.623	22051
875.751	21937
875.88	21983
876.008	22147
876.136	22055
876.265	22363
876.393	22554
876.521	22493
876.65	22382
876.778	22413
876.906	22325
877.034	22299
877.162	22318
877.29	22169
877.418	22405
877.546	22253
877.674	22310
877.802	22325
877.93	22303
878.058	22371
878.185	22249
878.313	22246
878.441	22219
878.568	22120
878.696	22337
878.824	22287
878.951	22341
879.079	22535
879.206	22584
879.333	22497
879.461	22318
879.588	22432
879.715	22390
879.842	22542
879.97	22341
880.097	22131
880.224	22128
880.351	22242
880.478	22059
880.605	21968
880.732	22097
880.859	22428
880.986	22150
881.112	22173
881.239	21998
881.366	21785
881.493	21755
881.619	21739
881.746	21671
881.872	21694
881.999	21660
882.125	21694
882.252	21682
882.378	21728
882.505	21778
882.631	21583
882.757	21504
882.883	21519
883.01	21405
883.136	21355
883.262	21336
883.388	21192
883.514	21496
883.64	21420
883.766	21298
883.892	21135
884.018	21268
884.143	21325
884.269	21435
884.395	21127
884.52	21081
884.646	21127
884.772	20880
884.897	21020
885.023	21142
885.148	21184
885.274	21123
885.399	21173
885.524	21074
885.65	21017
885.775	21089
885.9	21032
886.025	21104
886.15	21028
886.275	21017
886.4	21013
886.525	20975
886.65	20994
886.775	20971
886.9	21195
887.025	21188
887.149	20948
887.274	20887
887.399	20845
887.523	20944
887.648	20724
887.773	20735
887.897	20857
888.021	20872
888.146	20762
888.27	20796
888.395	20910
888.519	20921
888.643	20834
888.767	20819
888.891	20781
889.015	20629
889.139	20644
889.263	20659
889.387	20708
889.511	20769
889.635	20754
889.759	20667
889.883	20480
890.006	20781
890.13	20705
890.254	20507
890.377	20644
890.501	20412
890.624	20324
890.748	20484
890.871	20282
890.995	20214
891.118	20225
891.241	20149
891.364	20244
891.488	20229
891.611	20210
891.734	20183
891.857	20206
891.98	20172
892.103	20138
892.226	20153
892.349	20126
892.471	20005
892.594	20206
892.717	20115
892.839	19947
892.962	20107
893.085	20183
893.207	20027
893.33	19982
893.452	20111
893.575	20199
893.697	20161
893.819	20347
893.941	20324
894.064	20256
894.186	19909
894.308	20016
894.43	20183
894.552	20183
894.674	20142
894.796	20050
894.918	20126
895.04	20016
895.161	20199
895.283	20248
895.405	20027
895.526	20138
895.648	20096
895.769	20088
895.891	19974
896.012	20130
896.134	20157
896.255	20073
896.376	19944
896.498	20084
896.619	20176
896.74	20016
896.861	20096
896.982	20347
897.103	20518
897.224	20488
897.345	20286
897.466	20278
897.587	20324
897.708	20446
897.828	20381
897.949	20282
898.07	20096
898.19	20263
898.311	20400
898.431	20332
898.552	20237
898.672	20393
898.792	20419
898.913	20214
899.033	20065
899.153	20153
899.273	19982
899.393	20005
899.513	20122
899.633	20081
899.753	20191
899.873	19989
899.993	20084
900.113	19978
900.232	19997
900.352	20012
900.472	20005
900.591	19795
900.711	19849
900.83	19681
900.95	19955
901.069	19947
901.189	19807
901.308	19510
901.427	19381
901.546	19422
901.665	19419
901.784	19392
901.904	19308
902.023	19259
902.141	18993
902.26	19069
902.379	19069
902.498	18947
902.617	19000
902.735	19072
902.854	18973
902.973	18962
903.091	18677
903.21	18566
903.328	18589
903.446	18555
903.565	18395
903.683	18376
903.801	18308
903.919	18369
904.038	18311
904.156	18182
904.274	18220
904.392	18205
904.51	18136
904.627	18136
904.745	18235
904.863	18239
904.981	17946
905.098	17809
905.216	17741
905.334	17802
905.451	17961
905.569	17855
905.686	17939
905.803	17836
905.921	17528
906.038	17745
906.155	17676
906.272	17566
906.389	17543
906.506	17353
906.623	17425
906.74	17330
906.857	17265
906.974	17311
907.091	17383
907.208	17516
907.324	17463
907.441	17273
907.557	17231
907.674	17086
907.79	16984
907.907	17086
908.023	17094
908.139	17022
908.256	16961
908.372	16923
908.488	16980
908.604	16896
908.72	16694
908.836	16809
908.952	16740
909.068	16889
909.184	16923
909.3	16885
909.415	16812
909.531	16801
909.647	16554
909.762	16489
909.878	16500
909.993	16546
910.108	16508
910.224	16481
910.339	16478
910.454	16390
910.57	16310
910.685	16299
910.8	16554
910.915	16470
911.03	16253
911.145	16173
911.259	16090
911.374	16071
911.489	16135
911.604	15987
911.718	15850
911.833	15968
911.947	15781
912.062	15717
912.176	15861
912.291	15884
912.405	15884
912.519	16078
912.633	16090
912.748	15949
912.862	15804
912.976	15724
913.09	15572
913.204	15561
913.318	15675
913.431	15774
913.545	15827
913.659	15869
913.772	15679
913.886	15534
914	15488
914.113	15504
914.226	15523
914.34	15564
914.453	15428
914.566	15477
914.68	15382
914.793	15298
914.906	15291
915.019	15051
915.132	15093
915.245	15097
915.358	15081
915.47	15131
915.583	15100
915.696	15161
915.809	15192
915.921	15226
916.034	15032
916.146	14998
916.259	14982
916.371	15127
916.483	15062
916.595	14914
916.708	14929
916.82	14937
916.932	15005
917.044	14845
917.156	14853
917.268	14788
917.38	14834
917.491	14689
917.603	14777
917.715	14876
917.826	14853
917.938	14640
918.049	14640
918.161	14568
918.272	14815
918.384	14823
918.495	14689
918.606	14442
918.717	14404
918.828	14503
918.939	14473
919.05	14431
919.161	14404
919.272	14301
919.383	14370
919.494	14503
919.604	14632
919.715	14465
919.826	14393
919.936	14503
920.047	14594
920.157	14484
920.267	14651
920.378	14450
920.488	14415
920.598	14636
920.708	14788
920.818	14587
920.928	14522
921.038	14743
921.148	14708
921.258	14476
921.368	14362
921.477	14256
921.587	14225
921.697	14062
921.806	14134
921.916	14107
922.025	13871
922.134	13814
922.244	13731
922.353	13849
922.462	13772
922.571	13674
922.68	13487
922.789	13487
922.898	13499
923.007	13400
923.116	13540
923.224	13362
923.333	13464
923.442	13381
923.55	13381
923.659	13259
923.767	13362
923.876	13175
923.984	13297
924.092	13110
924.201	13278
924.309	13179
924.417	13263
924.525	13179
924.633	13244
924.741	13757
924.849	12958
924.956	13065
925.064	12962
925.172	12901
925.279	12962
925.387	12875
925.494	12886
925.602	13008
925.709	12867
925.816	12894
925.924	12837
926.031	12878
926.138	12833
926.245	12909
926.352	12738
926.459	12882
926.566	12943
926.673	12833
926.779	12585
926.886	12650
926.993	12471
927.099	12467
927.206	12471
927.312	12380
927.419	12494
927.525	12426
927.631	12445
927.737	12407
927.843	12289
927.95	12220
928.056	12273
928.162	12361
928.267	12342
928.373	12943
928.479	12365
928.585	12117
928.69	12209
928.796	12292
928.901	12159
929.007	12030
929.112	12091
929.218	12140
929.323	12102
929.428	11992
929.533	12125
929.638	11901
929.743	11992
929.848	11927
929.953	11916
930.058	11874
930.163	11649
930.267	11718
930.372	11802
930.477	11630
930.581	11912
930.685	11756
930.79	11608
930.894	11627
930.998	11528
931.103	11680
931.207	11330
931.311	11223
931.415	11147
931.519	11006
931.623	10972
