Data from test_V78500241_1941.txt Node
Date: Fri Mar 25 15:23:22 CST 2022
User: usil
Spectrometer: V785-0024
Trigger mode: 0
Integration Time (sec): 4.000000E-1
Scans to average: 1
Nonlinearity correction enabled: false
Boxcar width: 0
Storing dark spectrum: false
XAxis mode: Wavelengths
Number of Pixels in Spectrum: 1024
>>>>>Begin Spectral Data<<<<<
801.071	27686
801.214	27743
801.356	27427
801.499	27272
801.641	27146
801.783	27275
801.926	27249
802.068	27275
802.211	27188
802.353	27233
802.496	26921
802.638	26948
802.78	26750
802.923	26727
803.065	26868
803.208	26819
803.35	26891
803.492	26933
803.635	27093
803.777	26963
803.919	27077
804.061	27340
804.204	27154
804.346	27142
804.488	26933
804.63	27123
804.773	26834
804.915	27036
805.057	27256
805.199	26994
805.341	27074
805.483	27218
805.626	27264
805.768	27085
805.91	27062
806.052	27157
806.194	27009
806.336	27268
806.478	27195
806.62	27165
806.762	27176
806.904	27427
807.046	27705
807.188	27663
807.33	27625
807.472	27751
807.614	27538
807.756	27534
807.898	27519
808.04	27439
808.182	27454
808.324	27557
808.465	27363
808.607	27705
808.749	27808
808.891	27888
809.033	27857
809.174	27838
809.316	27732
809.458	27804
809.6	27713
809.741	27911
809.883	27934
810.025	27949
810.166	28010
810.308	28048
810.45	28048
810.591	27968
810.733	27823
810.875	27755
811.016	27660
811.158	27789
811.299	27831
811.441	27964
811.582	27823
811.724	27724
811.865	27800
812.007	27770
812.148	27781
812.29	27709
812.431	27922
812.573	28116
812.714	28234
812.855	28394
812.997	28466
813.138	28504
813.279	28413
813.421	28318
813.562	28223
813.703	28059
813.845	28029
813.986	27610
814.127	27526
814.268	27424
814.41	27416
814.551	27382
814.692	27576
814.833	27610
814.974	27511
815.115	27526
815.256	27317
815.397	27519
815.539	27249
815.68	27348
815.821	27199
815.962	27218
816.103	27192
816.244	26929
816.385	27043
816.526	26979
816.666	26807
816.807	26697
816.948	26834
817.089	26773
817.23	26785
817.371	26739
817.512	26800
817.653	26724
817.793	26663
817.934	26708
818.075	26708
818.216	26743
818.356	26594
818.497	26640
818.638	26511
818.778	26446
818.919	26480
819.06	26537
819.2	26511
819.341	26686
819.481	26853
819.622	26944
819.762	27104
819.903	26975
820.043	26910
820.184	26838
820.324	26781
820.465	26876
820.605	26891
820.746	26754
820.886	26724
821.026	26804
821.167	26765
821.307	26921
821.447	26788
821.588	26674
821.728	26526
821.868	26400
822.008	26259
822.149	26142
822.289	26221
822.429	25982
822.569	25776
822.709	26016
822.849	25715
822.99	25814
823.13	25696
823.27	25552
823.41	25586
823.55	25335
823.69	25620
823.83	25632
823.97	25510
824.11	25232
824.25	25198
824.389	25422
824.529	25434
824.669	25308
824.809	25438
824.949	25502
825.089	25392
825.228	25449
825.368	25225
825.508	25255
825.648	25251
825.787	25244
825.927	25274
826.067	25198
826.206	25324
826.346	25327
826.485	25156
826.625	25403
826.765	25362
826.904	25293
827.044	25027
827.183	24951
827.323	24966
827.462	25023
827.601	24875
827.741	24939
827.88	24981
828.02	24878
828.159	24882
828.298	24970
828.437	25004
828.577	24886
828.716	25107
828.855	24871
828.994	24684
829.134	24593
829.273	24711
829.412	24719
829.551	24566
829.69	24684
829.829	24669
829.968	24734
830.107	24612
830.246	24783
830.385	24452
830.524	24555
830.663	24547
830.802	24350
830.941	24369
831.08	24186
831.219	24350
831.357	24209
831.496	24395
831.635	24300
831.774	24136
831.913	24098
832.051	24083
832.19	24007
832.329	23954
832.467	23977
832.606	23843
832.744	23821
832.883	24011
833.022	23961
833.16	23931
833.299	24007
833.437	24018
833.576	23988
833.714	24030
833.852	24087
833.991	24095
834.129	23923
834.267	24125
834.406	24060
834.544	24041
834.682	24106
834.821	23954
834.959	24140
835.097	23824
835.235	23965
835.373	23988
835.511	24011
835.65	23958
835.788	23908
835.926	23783
836.064	23608
836.202	23733
836.34	23779
836.478	23958
836.615	23726
836.753	23802
836.891	23958
837.029	23939
837.167	23779
837.305	23866
837.443	23714
837.58	23737
837.718	23714
837.856	23672
837.993	23592
838.131	23722
838.269	23619
838.406	23604
838.544	23604
838.681	23349
838.819	23246
838.956	23200
839.094	23109
839.231	23121
839.369	23341
839.506	23467
839.643	23482
839.781	23208
839.918	23014
840.055	23166
840.193	23159
840.33	22942
840.467	23022
840.604	23022
840.742	23372
840.879	23075
841.016	22991
841.153	22972
841.29	23204
841.427	23029
841.564	23098
841.701	23079
841.838	23052
841.975	23010
842.112	22976
842.249	22805
842.385	22862
842.522	23018
842.659	22927
842.796	22839
842.933	22904
843.069	22797
843.206	22866
843.343	22908
843.479	22900
843.616	22892
843.752	22615
843.889	22683
844.025	22831
844.162	22588
844.298	22653
844.435	22497
844.571	22630
844.708	22573
844.844	22843
844.98	22752
845.117	22645
845.253	22577
845.389	22447
845.525	22573
845.661	22455
845.798	22398
845.934	22398
846.07	22375
846.206	22360
846.342	22382
846.478	22200
846.614	22166
846.75	22074
846.886	21968
847.022	22181
847.158	22154
847.294	22036
847.429	22131
847.565	22051
847.701	22280
847.837	21701
847.972	21823
848.108	21857
848.244	21915
848.379	21831
848.515	21564
848.65	21625
848.786	21717
848.921	21778
849.057	21759
849.192	21705
849.328	21793
849.463	21595
849.598	21606
849.734	21428
849.869	21504
850.004	21370
850.14	21492
850.275	21405
850.41	21310
850.545	21458
850.68	21287
850.815	21416
850.95	21405
851.085	21648
851.22	21629
851.355	21408
851.49	21466
851.625	21412
851.76	21496
851.895	21462
852.03	21405
852.165	21447
852.299	21424
852.434	21625
852.569	21477
852.703	21416
852.838	21424
852.973	21641
853.107	21557
853.242	21325
853.376	21203
853.511	21192
853.645	21173
853.78	21332
853.914	21287
854.048	21214
854.183	21214
854.317	21192
854.451	21454
854.585	21199
854.72	21226
854.854	21370
854.988	21195
855.122	21237
855.256	21283
855.39	21176
855.524	21287
855.658	21370
855.792	21264
855.926	21169
856.06	21283
856.194	21310
856.327	21272
856.461	21317
856.595	21222
856.729	21310
856.862	21367
856.996	21283
857.13	21416
857.263	21329
857.397	21336
857.53	21150
857.664	21332
857.797	21344
857.931	21359
858.064	21245
858.197	21287
858.331	21207
858.464	21222
858.597	21150
858.731	21199
858.864	21173
858.997	21237
859.13	21233
859.263	21233
859.396	21428
859.529	21127
859.662	21226
859.795	21275
859.928	21256
860.061	21378
860.194	21473
860.327	21389
860.46	21226
860.592	21431
860.725	21374
860.858	21393
860.99	21157
861.123	21241
861.256	21070
861.388	21374
861.521	21975
861.653	21055
861.786	20914
861.918	21112
862.05	21188
862.183	21192
862.315	21325
862.447	21218
862.58	21066
862.712	20971
862.844	20990
862.976	21039
863.108	21043
863.24	21500
863.372	20891
863.504	20948
863.636	20880
863.768	21077
863.9	21024
864.032	20963
864.164	20921
864.296	21013
864.428	20979
864.559	21017
864.691	21001
864.823	20956
864.954	20941
865.086	20979
865.217	20918
865.349	20750
865.48	20800
865.612	20883
865.743	20982
865.875	20876
866.006	20826
866.137	20765
866.269	20944
866.4	20739
866.531	20819
866.662	20792
866.793	20754
866.924	20796
867.055	20785
867.186	20785
867.317	20727
867.448	20705
867.579	20754
867.71	20754
867.841	20743
867.972	20826
868.103	20792
868.233	20716
868.364	20773
868.495	20914
868.625	21020
868.756	21146
868.886	20868
869.017	21036
869.147	21032
869.278	21024
869.408	21199
869.539	21055
869.669	20967
869.799	21055
869.929	21207
870.06	21188
870.19	21252
870.32	21325
870.45	21291
870.58	21416
870.71	21542
870.84	21542
870.97	21420
871.1	21386
871.23	21504
871.36	21545
871.489	21447
871.619	21701
871.749	21572
871.879	21549
872.008	21713
872.138	21553
872.267	21583
872.397	21629
872.526	21428
872.656	21507
872.785	21325
872.915	21618
873.044	21641
873.173	21675
873.303	21717
873.432	21709
873.561	21785
873.69	21690
873.819	21690
873.948	21797
874.077	21705
874.206	21625
874.335	21656
874.464	21770
874.593	21960
874.722	21838
874.851	21888
874.979	21903
875.108	21861
875.237	21705
875.365	21709
875.494	21835
875.623	21941
875.751	21778
875.88	21857
876.008	22090
876.136	22116
876.265	22246
876.393	22500
876.521	22371
876.65	22272
876.778	22211
876.906	22230
877.034	22204
877.162	22185
877.29	22242
877.418	22226
877.546	22173
877.674	22112
877.802	22177
877.93	22150
878.058	22116
878.185	22154
878.313	22230
878.441	22246
878.568	22135
878.696	22166
878.824	22261
878.951	22318
879.079	22344
879.206	22497
879.333	22478
879.461	22291
879.588	22344
879.715	22318
879.842	22500
879.97	22223
880.097	22154
880.224	22063
880.351	22093
880.478	21892
880.605	22112
880.732	21994
880.859	22112
880.986	22074
881.112	22063
881.239	21968
881.366	21724
881.493	21652
881.619	21660
881.746	21656
881.872	21633
881.999	21572
882.125	21637
882.252	21576
882.378	21496
882.505	21835
882.631	21561
882.757	21233
882.883	21435
883.01	21287
883.136	21302
883.262	21226
883.388	21142
883.514	21252
883.64	21321
883.766	21245
883.892	21055
884.018	21009
884.143	21157
884.269	21329
884.395	21066
884.52	20994
884.646	20952
884.772	20914
884.897	20941
885.023	20960
885.148	20963
885.274	21108
885.399	21142
885.524	20914
885.65	20941
885.775	20921
885.9	20929
886.025	21077
886.15	20902
886.275	20921
886.4	20899
886.525	20944
886.65	20952
886.775	20880
886.9	21032
887.025	21260
887.149	21005
887.274	20769
887.399	20785
887.523	20727
887.648	20613
887.773	20720
887.897	20895
888.021	20792
888.146	20682
888.27	20735
888.395	20880
888.519	20735
888.643	20826
888.767	20785
888.891	20629
889.015	20556
889.139	20689
889.263	20480
889.387	20720
889.511	20625
889.635	20746
889.759	20446
889.883	20473
890.006	20564
890.13	20522
890.254	20583
890.377	20301
890.501	20225
890.624	20252
890.748	20415
890.871	20176
890.995	20126
891.118	19993
891.241	20119
891.364	20168
891.488	20225
891.611	20084
891.734	20012
891.857	20218
891.98	20161
892.103	20138
892.226	20058
892.349	20031
892.471	19833
892.594	19959
892.717	20088
892.839	20046
892.962	20031
893.085	20043
893.207	19963
893.33	19856
893.452	19875
893.575	19993
893.697	19898
893.819	20115
893.941	20286
894.064	20157
894.186	19890
894.308	19917
894.43	20130
894.552	20103
894.674	19970
894.796	19932
894.918	20046
895.04	19925
895.161	20054
895.283	20039
895.405	19928
895.526	19921
895.648	20058
895.769	20012
895.891	19978
896.012	20058
896.134	20024
896.255	19997
896.376	20065
896.498	20073
896.619	19974
896.74	19986
896.861	20012
896.982	20305
897.103	20492
897.224	20267
897.345	20298
897.466	20168
897.587	20218
897.708	20320
897.828	20206
897.949	20187
898.07	20065
898.19	20199
898.311	20256
898.431	20103
898.552	20187
898.672	20324
898.792	20267
898.913	20240
899.033	20065
899.153	20027
899.273	19940
899.393	19936
899.513	20050
899.633	19963
899.753	19978
899.873	19940
899.993	19944
900.113	19947
900.232	19955
900.352	19913
900.472	19879
900.591	19799
900.711	19719
900.83	19750
900.95	19841
901.069	19879
901.189	19658
901.308	19445
901.427	19247
901.546	19251
901.665	19343
901.784	19343
901.904	19114
902.023	19095
902.141	18970
902.26	18787
902.379	19027
902.498	18806
902.617	18772
902.735	18859
902.854	18764
902.973	18707
903.091	18403
903.21	18498
903.328	18525
903.446	18342
903.565	18441
903.683	18410
903.801	18201
903.919	18334
904.038	18190
904.156	18083
904.274	18216
904.392	18034
904.51	17988
904.627	18019
904.745	18102
904.863	18140
904.981	17965
905.098	17798
905.216	17752
905.334	17950
905.451	17821
905.569	17779
905.686	17821
905.803	17878
905.921	17604
906.038	17657
906.155	17535
906.272	17551
906.389	17448
906.506	17356
906.623	17368
906.74	17280
906.857	17216
906.974	17212
907.091	17383
907.208	17425
907.324	17227
907.441	17151
907.557	16961
907.674	17064
907.79	17029
907.907	16976
908.023	17105
908.139	17090
908.256	17079
908.372	16847
908.488	16862
908.604	16801
908.72	16771
908.836	16862
908.952	16706
909.068	16729
909.184	16911
909.3	16774
909.415	16744
909.531	16793
909.647	16618
909.762	16542
909.878	16402
909.993	16542
910.108	16485
910.224	16421
910.339	16386
910.454	16344
910.57	16238
910.685	16303
910.8	16440
910.915	16447
911.03	16185
911.145	16120
911.259	16063
911.374	16120
911.489	15998
911.604	15983
911.718	15774
911.833	15827
911.947	15717
912.062	15606
912.176	15720
912.291	15732
912.405	15686
912.519	15842
912.633	15918
912.748	15823
912.862	15747
912.976	15671
913.09	15454
913.204	15530
913.318	15701
913.431	15743
913.545	15732
913.659	15713
913.772	15450
913.886	15504
914	15428
914.113	15561
914.226	15443
914.34	15466
914.453	15199
914.566	15568
914.68	15382
914.793	15294
914.906	15127
915.019	15028
915.132	14990
915.245	14960
915.358	15005
915.47	14975
915.583	14986
915.696	14899
915.809	15108
915.921	15154
916.034	14960
916.146	14880
916.259	14868
916.371	15005
916.483	14948
916.595	14819
916.708	14883
916.82	14891
916.932	14769
917.044	14864
917.156	14845
917.268	14746
917.38	14644
917.491	14724
917.603	14651
917.715	14765
917.826	14830
917.938	14617
918.049	14507
918.161	14636
918.272	14765
918.384	14765
918.495	14571
918.606	14457
918.717	14408
918.828	14507
918.939	14461
919.05	14419
919.161	14446
919.272	14286
919.383	14271
919.494	14522
919.604	14610
919.715	14560
919.826	14305
919.936	14434
920.047	14400
920.157	14366
920.267	14621
920.378	14301
920.488	14328
920.598	14541
920.708	14613
920.818	14480
920.928	14533
921.038	14659
921.148	14549
921.258	14324
921.368	14305
921.477	14161
921.587	14176
921.697	14054
921.806	14092
921.916	13997
922.025	13746
922.134	13807
922.244	13636
922.353	13772
922.462	13647
922.571	13556
922.68	13556
922.789	13419
922.898	13487
923.007	13438
923.116	13430
923.224	13403
923.333	13445
923.442	13270
923.55	13149
923.659	13225
923.767	13320
923.876	13217
923.984	13301
924.092	13122
924.201	13099
924.309	13232
924.417	13149
924.525	13156
924.633	13129
924.741	13993
924.849	12928
924.956	13065
925.064	12852
925.172	12745
925.279	12871
925.387	12943
925.494	12897
925.602	12981
925.709	12840
925.816	12707
925.924	12719
926.031	12875
926.138	12871
926.245	12886
926.352	12642
926.459	12779
926.566	12795
926.673	12684
926.779	12654
926.886	12631
926.993	12410
927.099	12433
927.206	12327
927.312	12433
927.419	12410
927.525	12471
927.631	12437
927.737	12270
927.843	12353
927.95	12110
928.056	12209
928.162	12243
928.267	12330
928.373	12840
928.479	12296
928.585	12072
928.69	12152
928.796	12247
928.901	12015
929.007	11923
929.112	12106
929.218	12064
929.323	12049
929.428	11916
929.533	12068
929.638	11946
929.743	11874
929.848	11832
929.953	11923
930.058	11855
930.163	11714
930.267	11611
930.372	11836
930.477	11661
930.581	11870
930.685	11657
930.79	11573
930.894	11501
930.998	11463
931.103	11661
931.207	11288
931.311	11208
931.415	11178
931.519	10930
931.623	10904
