Data from test_V78500241_2771.txt Node
Date: Fri Mar 25 15:29:09 CST 2022
User: usil
Spectrometer: V785-0024
Trigger mode: 0
Integration Time (sec): 4.000000E-1
Scans to average: 1
Nonlinearity correction enabled: false
Boxcar width: 0
Storing dark spectrum: false
XAxis mode: Wavelengths
Number of Pixels in Spectrum: 1024
>>>>>Begin Spectral Data<<<<<
801.071	27249
801.214	27005
801.356	26739
801.499	26781
801.641	26594
801.783	26648
801.926	26575
802.068	26621
802.211	26461
802.353	26537
802.496	26180
802.638	26320
802.78	26149
802.923	26024
803.065	26199
803.208	26134
803.35	26218
803.492	26309
803.635	26400
803.777	26229
803.919	26351
804.061	26648
804.204	26355
804.346	26298
804.488	26202
804.63	26473
804.773	26290
804.915	26225
805.057	26396
805.199	26370
805.341	26427
805.483	26545
805.626	26480
805.768	26317
805.91	26488
806.052	26473
806.194	26423
806.336	26594
806.478	26541
806.62	26461
806.762	26511
806.904	26682
807.046	26994
807.188	26910
807.33	26883
807.472	26834
807.614	26781
807.756	26796
807.898	26796
808.04	26735
808.182	26632
808.324	26655
808.465	26796
808.607	27043
808.749	27051
808.891	27043
809.033	27211
809.174	27077
809.316	26971
809.458	27146
809.6	27024
809.741	27093
809.883	27176
810.025	27420
810.166	27355
810.308	27245
810.45	27245
810.591	27222
810.733	27135
810.875	26994
811.016	27051
811.158	26967
811.299	27146
811.441	27230
811.582	27176
811.724	27043
811.865	26971
812.007	26918
812.148	27028
812.29	27028
812.431	27127
812.573	27306
812.714	27306
812.855	27526
812.997	27485
813.138	27812
813.279	27747
813.421	27466
813.562	27504
813.703	27302
813.845	27146
813.986	26891
814.127	26857
814.268	26727
814.41	26925
814.551	26735
814.692	26777
814.833	26594
814.974	26590
815.115	26667
815.256	26511
815.397	26648
815.539	26640
815.68	26431
815.821	26393
815.962	26434
816.103	26438
816.244	26377
816.385	26202
816.526	26164
816.666	26046
816.807	25875
816.948	26050
817.089	25982
817.23	25928
817.371	26111
817.512	25906
817.653	25830
817.793	25864
817.934	26065
818.075	25909
818.216	25833
818.356	25803
818.497	25898
818.638	25613
818.778	25731
818.919	25742
819.06	25689
819.2	25887
819.341	25951
819.481	25909
819.622	26012
819.762	26389
819.903	26050
820.043	26130
820.184	26027
820.324	25925
820.465	26157
820.605	25997
820.746	25932
820.886	25879
821.026	25997
821.167	25936
821.307	25906
821.447	25917
821.588	25746
821.728	25704
821.868	25518
822.008	25365
822.149	25453
822.289	25369
822.429	25118
822.569	25015
822.709	25050
822.849	24924
822.99	24924
823.13	24875
823.27	24875
823.41	24764
823.55	24684
823.69	24642
823.83	24814
823.97	24703
824.11	24547
824.25	24555
824.389	24536
824.529	24544
824.669	24544
824.809	24601
824.949	24604
825.089	24563
825.228	24585
825.368	24372
825.508	24433
825.648	24357
825.787	24372
825.927	24441
826.067	24395
826.206	24311
826.346	24475
826.485	24437
826.625	24384
826.765	24460
826.904	24353
827.044	24258
827.183	24190
827.323	24095
827.462	24144
827.601	24018
827.741	24083
827.88	24213
828.02	24011
828.159	24038
828.298	24110
828.437	24186
828.577	23954
828.716	24159
828.855	24015
828.994	23882
829.134	23794
829.273	23843
829.412	23855
829.551	23745
829.69	23771
829.829	23756
829.968	23790
830.107	23897
830.246	23809
830.385	23687
830.524	23611
830.663	23589
830.802	23638
830.941	23459
831.08	23402
831.219	23509
831.357	23520
831.496	23642
831.635	23379
831.774	23414
831.913	23391
832.051	23265
832.19	23140
832.329	23147
832.467	23064
832.606	23079
832.744	23075
832.883	22991
833.022	22957
833.16	23037
833.299	23147
833.437	23147
833.576	23121
833.714	23056
833.852	23178
833.991	23155
834.129	23204
834.267	23170
834.406	23155
834.544	23151
834.682	23189
834.821	23189
834.959	23322
835.097	23083
835.235	23193
835.373	23079
835.511	23109
835.65	22968
835.788	23022
835.926	22835
836.064	22869
836.202	22801
836.34	23018
836.478	23083
836.615	23010
836.753	22862
836.891	23128
837.029	22892
837.167	22812
837.305	22702
837.443	22915
837.58	22839
837.718	22885
837.856	22820
837.993	22774
838.131	22889
838.269	22767
838.406	22797
838.544	22782
838.681	22504
838.819	22538
838.956	22325
839.094	22261
839.231	22447
839.369	22523
839.506	22588
839.643	22561
839.781	22329
839.918	22280
840.055	22223
840.193	22223
840.33	22261
840.467	22287
840.604	22272
840.742	22291
840.879	22158
841.016	22265
841.153	22143
841.29	22291
841.427	22204
841.564	22219
841.701	22219
841.838	22196
841.975	22040
842.112	22177
842.249	22082
842.385	22025
842.522	22466
842.659	22169
842.796	22040
842.933	22044
843.069	21911
843.206	21937
843.343	22112
843.479	22040
843.616	22002
843.752	21793
843.889	21842
844.025	21937
844.162	21789
844.298	21892
844.435	21850
844.571	21759
844.708	21797
844.844	22006
844.98	22040
845.117	21876
845.253	21766
845.389	21576
845.525	21580
845.661	21580
845.798	21599
845.934	21644
846.07	21428
846.206	21492
846.342	21583
846.478	21420
846.614	21283
846.75	21222
846.886	21222
847.022	21355
847.158	21332
847.294	21218
847.429	21184
847.565	21336
847.701	21568
847.837	21001
847.972	20971
848.108	21214
848.244	21062
848.379	20815
848.515	20834
848.65	20872
848.786	20975
848.921	20891
849.057	21013
849.192	20979
849.328	20785
849.463	20868
849.598	20769
849.734	20758
849.869	20568
850.004	20613
850.14	20659
850.275	20473
850.41	20568
850.545	20590
850.68	20617
850.815	20617
850.95	20552
851.085	20727
851.22	20731
851.355	20663
851.49	20701
851.625	20632
851.76	20568
851.895	20575
852.03	20583
852.165	20568
852.299	20727
852.434	20724
852.569	20674
852.703	20632
852.838	20598
852.973	20773
853.107	20743
853.242	20617
853.376	20408
853.511	20446
853.645	20514
853.78	20503
853.914	20450
854.048	20393
854.183	20294
854.317	20404
854.451	20640
854.585	20457
854.72	20381
854.854	20476
854.988	20324
855.122	20427
855.256	20290
855.39	20404
855.524	20556
855.658	20511
855.792	20446
855.926	20465
856.06	20492
856.194	20454
856.327	20541
856.461	20305
856.595	20396
856.729	20374
856.862	20518
856.996	20522
857.13	20526
857.263	20678
857.397	20450
857.53	20495
857.664	20514
857.797	20465
857.931	20594
858.064	20465
858.197	20564
858.331	20526
858.464	20290
858.597	20473
858.731	20431
858.864	20423
858.997	20412
859.13	20511
859.263	20514
859.396	20393
859.529	20507
859.662	20495
859.795	20393
859.928	20240
860.061	20590
860.194	20667
860.327	20473
860.46	20495
860.592	20579
860.725	20499
860.858	20495
860.99	20419
861.123	20339
861.256	20393
861.388	20328
861.521	20982
861.653	20358
861.786	20362
861.918	20199
862.05	20343
862.183	20301
862.315	20374
862.447	20317
862.58	20275
862.712	20122
862.844	20153
862.976	20298
863.108	20248
863.24	20602
863.372	20046
863.504	20130
863.636	20202
863.768	20225
863.9	20107
864.032	20130
864.164	20081
864.296	20172
864.428	20164
864.559	20244
864.691	20183
864.823	20130
864.954	20126
865.086	20115
865.217	20046
865.349	19997
865.48	20073
865.612	20027
865.743	20252
865.875	19967
866.006	20039
866.137	20069
866.269	19959
866.4	20005
866.531	20027
866.662	20039
866.793	19921
866.924	20058
867.055	20020
867.186	20065
867.317	20016
867.448	20092
867.579	20065
867.71	19951
867.841	19902
867.972	19925
868.103	20031
868.233	19947
868.364	19947
868.495	20138
868.625	20180
868.756	20423
868.886	20050
869.017	20294
869.147	20431
869.278	20339
869.408	20286
869.539	20161
869.669	20301
869.799	20233
869.929	20396
870.06	20149
870.19	20484
870.32	20571
870.45	20602
870.58	20484
870.71	20739
870.84	20800
870.97	20564
871.1	20659
871.23	20902
871.36	20823
871.489	20712
871.619	20750
871.749	20739
871.879	20876
872.008	21005
872.138	20948
872.267	20826
872.397	20804
872.526	20651
872.656	20785
872.785	20667
872.915	20777
873.044	20910
873.173	20872
873.303	20906
873.432	20975
873.561	21013
873.69	20868
873.819	20887
873.948	20979
874.077	20952
874.206	20834
874.335	20902
874.464	20933
874.593	21043
874.722	21024
874.851	21233
874.979	21070
875.108	21157
875.237	21017
875.365	21001
875.494	20952
875.623	21268
875.751	21146
875.88	21161
876.008	21165
876.136	21188
876.265	21500
876.393	21599
876.521	21637
876.65	21675
876.778	21557
876.906	21507
877.034	21424
877.162	21500
877.29	21428
877.418	21557
877.546	21466
877.674	21492
877.802	21504
877.93	21393
878.058	21439
878.185	21401
878.313	21454
878.441	21340
878.568	21443
878.696	21332
878.824	21428
878.951	21572
879.079	21568
879.206	21705
879.333	21564
879.461	21564
879.588	21511
879.715	21458
879.842	21682
879.97	21549
880.097	21249
880.224	21393
880.351	21401
880.478	21412
880.605	21226
880.732	21268
880.859	21580
880.986	21294
881.112	21374
881.239	21176
881.366	21043
881.493	20952
881.619	20933
881.746	20853
881.872	20868
881.999	20819
882.125	20853
882.252	20830
882.378	20842
882.505	20960
882.631	20781
882.757	20499
882.883	20583
883.01	20594
883.136	20499
883.262	20396
883.388	20408
883.514	20640
883.64	20693
883.766	20469
883.892	20446
884.018	20545
884.143	20488
884.269	20640
884.395	20301
884.52	20366
884.646	20263
884.772	20138
884.897	20202
885.023	20263
885.148	20320
885.274	20400
885.399	20332
885.524	20225
885.65	20271
885.775	20370
885.9	20218
886.025	20412
886.15	20282
886.275	20214
886.4	20081
886.525	20244
886.65	20035
886.775	20157
886.9	20324
887.025	20412
887.149	20294
887.274	20031
887.399	20012
887.523	20153
887.648	19928
887.773	19936
887.897	20145
888.021	20077
888.146	20005
888.27	20005
888.395	20058
888.519	19982
888.643	19986
888.767	20069
888.891	19925
889.015	19833
889.139	19894
889.263	19723
889.387	19959
889.511	20020
889.635	19947
889.759	19906
889.883	19822
890.006	19811
890.13	19769
890.254	19715
890.377	19841
890.501	19491
890.624	19586
890.748	19582
890.871	19594
890.995	19438
891.118	19358
891.241	19377
891.364	19457
891.488	19518
891.611	19392
891.734	19308
891.857	19514
891.98	19403
892.103	19514
892.226	19411
892.349	19346
892.471	19160
892.594	19282
892.717	19384
892.839	19301
892.962	19434
893.085	19415
893.207	19324
893.33	19213
893.452	19297
893.575	19392
893.697	19297
893.819	19552
893.941	19487
894.064	19388
894.186	19221
894.308	19236
894.43	19377
894.552	19563
894.674	19403
894.796	19419
894.918	19251
895.04	19289
895.161	19396
895.283	19365
895.405	19259
895.526	19304
895.648	19171
895.769	19327
895.891	19324
896.012	19388
896.134	19373
896.255	19381
896.376	19457
896.498	19278
896.619	19384
896.74	19365
896.861	19460
896.982	19780
897.103	19902
897.224	19613
897.345	19662
897.466	19548
897.587	19575
897.708	19677
897.828	19647
897.949	19396
898.07	19331
898.19	19586
898.311	19651
898.431	19647
898.552	19632
898.672	19700
898.792	19715
898.913	19620
899.033	19476
899.153	19377
899.273	19282
899.393	19441
899.513	19453
899.633	19320
899.753	19274
899.873	19297
899.993	19392
900.113	19324
900.232	19312
900.352	19339
900.472	19179
900.591	19103
900.711	19251
900.83	19228
900.95	19240
901.069	19190
901.189	19091
901.308	18768
901.427	18779
901.546	18837
901.665	18798
901.784	18711
901.904	18620
902.023	18559
902.141	18311
902.26	18273
902.379	18357
902.498	18232
902.617	18098
902.735	18357
902.854	18266
902.973	18098
903.091	17961
903.21	17893
903.328	17920
903.446	17798
903.565	17722
903.683	17710
903.801	17687
903.919	17764
904.038	17600
904.156	17638
904.274	17589
904.392	17490
904.51	17471
904.627	17474
904.745	17676
904.863	17634
904.981	17356
905.098	17159
905.216	17166
905.334	17231
905.451	17200
905.569	17128
905.686	17216
905.803	17193
905.921	16968
906.038	17178
906.155	17029
906.272	16881
906.389	16816
906.506	16710
906.623	16873
906.74	16675
906.857	16637
906.974	16698
907.091	16816
907.208	16801
907.324	16729
907.441	16664
907.557	16466
907.674	16481
907.79	16382
907.907	16451
908.023	16500
908.139	16459
908.256	16417
908.372	16299
908.488	16356
908.604	16128
908.72	16124
908.836	16150
908.952	16185
909.068	16067
909.184	16329
909.3	16139
909.415	16242
909.531	16181
909.647	15937
909.762	15960
909.878	15915
909.993	15865
910.108	15804
910.224	15888
910.339	15755
910.454	15724
910.57	15603
910.685	15542
910.8	15751
910.915	15812
911.03	15709
911.145	15458
911.259	15435
911.374	15405
911.489	15439
911.604	15348
911.718	15310
911.833	15313
911.947	15131
912.062	15055
912.176	15245
912.291	15283
912.405	15245
912.519	15492
912.633	15526
912.748	15317
912.862	15245
912.976	15020
913.09	15051
913.204	15013
913.318	15055
913.431	15188
913.545	15176
913.659	15176
913.772	14937
913.886	14868
914	14876
914.113	14937
914.226	15043
914.34	14876
914.453	14785
914.566	14853
914.68	14815
914.793	14788
914.906	14587
915.019	14511
915.132	14412
915.245	14457
915.358	14484
915.47	14495
915.583	14442
915.696	14568
915.809	14552
915.921	14522
916.034	14446
916.146	14457
916.259	14377
916.371	14442
916.483	14533
916.595	14298
916.708	14389
916.82	14412
916.932	14225
917.044	14305
917.156	14240
917.268	14145
917.38	14153
917.491	14119
917.603	14164
917.715	14271
917.826	14225
917.938	14043
918.049	14005
918.161	14130
918.272	14301
918.384	14240
918.495	14183
918.606	13963
918.717	13894
918.828	13913
918.939	13944
919.05	13898
919.161	13928
919.272	13693
919.383	13769
919.494	13978
919.604	14100
919.715	13925
919.826	13894
919.936	13906
920.047	13967
920.157	13951
920.267	14161
920.378	13982
920.488	13890
920.598	14024
920.708	14282
920.818	14065
920.928	14050
921.038	14313
921.148	14210
921.258	13845
921.368	13769
921.477	13727
921.587	13685
921.697	13609
921.806	13643
921.916	13559
922.025	13460
922.134	13270
922.244	13289
922.353	13369
922.462	13194
922.571	13110
922.68	13004
922.789	12943
922.898	12951
923.007	12878
923.116	12973
923.224	12985
923.333	12928
923.442	12894
923.55	12795
923.659	12951
923.767	12848
923.876	12768
923.984	12856
924.092	12741
924.201	12760
924.309	12749
924.417	12692
924.525	12646
924.633	12696
924.741	13601
924.849	12395
924.956	12540
925.064	12494
925.172	12350
925.279	12448
925.387	12486
925.494	12342
925.602	12570
925.709	12460
925.816	12334
925.924	12426
926.031	12563
926.138	12445
926.245	12410
926.352	12232
926.459	12426
926.566	12433
926.673	12285
926.779	12239
926.886	12262
926.993	11946
927.099	12003
927.206	11946
927.312	11958
927.419	12053
927.525	11977
927.631	11969
927.737	11908
927.843	11840
927.95	11680
928.056	11832
928.162	11874
928.267	11969
928.373	12460
928.479	11904
928.585	11619
928.69	11851
928.796	11802
928.901	11642
929.007	11551
929.112	11737
929.218	11756
929.323	11577
929.428	11562
929.533	11646
929.638	11528
929.743	11573
929.848	11600
929.953	11482
930.058	11482
930.163	11242
930.267	11223
930.372	11364
930.477	11273
930.581	11452
930.685	11280
930.79	11128
930.894	11216
930.998	11105
931.103	11303
931.207	10900
931.311	10862
931.415	10774
931.519	10588
931.623	10573
