Data from test_V78500241_1961.txt Node
Date: Fri Mar 25 15:23:30 CST 2022
User: usil
Spectrometer: V785-0024
Trigger mode: 0
Integration Time (sec): 4.000000E-1
Scans to average: 1
Nonlinearity correction enabled: false
Boxcar width: 0
Storing dark spectrum: false
XAxis mode: Wavelengths
Number of Pixels in Spectrum: 1024
>>>>>Begin Spectral Data<<<<<
801.071	27603
801.214	27507
801.356	27386
801.499	27329
801.641	27207
801.783	27142
801.926	27173
802.068	27199
802.211	27157
802.353	27116
802.496	26906
802.638	26785
802.78	26804
802.923	26876
803.065	26724
803.208	26781
803.35	26804
803.492	26982
803.635	27036
803.777	26956
803.919	27100
804.061	27344
804.204	26986
804.346	26940
804.488	27009
804.63	27081
804.773	26990
804.915	27039
805.057	27207
805.199	27055
805.341	27192
805.483	27275
805.626	27260
805.768	27180
805.91	27211
806.052	27173
806.194	27070
806.336	27439
806.478	27157
806.62	27146
806.762	27321
806.904	27393
807.046	27679
807.188	27481
807.33	27614
807.472	27576
807.614	27466
807.756	27485
807.898	27481
808.04	27405
808.182	27317
808.324	27420
808.465	27492
808.607	27701
808.749	27846
808.891	27857
809.033	27884
809.174	27793
809.316	27873
809.458	27842
809.6	27759
809.741	27930
809.883	27895
810.025	28135
810.166	28086
810.308	28086
810.45	27964
810.591	28059
810.733	27869
810.875	27774
811.016	27553
811.158	27542
811.299	27797
811.441	27899
811.582	27926
811.724	27827
811.865	27698
812.007	27842
812.148	27743
812.29	27804
812.431	27930
812.573	28166
812.714	28265
812.855	28276
812.997	28360
813.138	28440
813.279	28542
813.421	28246
813.562	28268
813.703	28135
813.845	27930
813.986	27736
814.127	27743
814.268	27599
814.41	27538
814.551	27530
814.692	27671
814.833	27469
814.974	27439
815.115	27500
815.256	27431
815.397	27443
815.539	27374
815.68	27230
815.821	27161
815.962	27397
816.103	27252
816.244	27070
816.385	27036
816.526	27058
816.666	26979
816.807	26602
816.948	26811
817.089	26876
817.23	26796
817.371	26712
817.512	26716
817.653	26758
817.793	26629
817.934	26834
818.075	26659
818.216	26735
818.356	26731
818.497	26609
818.638	26663
818.778	26461
818.919	26522
819.06	26644
819.2	26568
819.341	26769
819.481	26735
819.622	26986
819.762	27005
819.903	26960
820.043	26868
820.184	26975
820.324	26998
820.465	26918
820.605	26834
820.746	26918
820.886	26838
821.026	26823
821.167	26853
821.307	26834
821.447	26758
821.588	26617
821.728	26617
821.868	26385
822.008	26195
822.149	26347
822.289	26263
822.429	26016
822.569	25875
822.709	25860
822.849	25803
822.99	25814
823.13	25799
823.27	25856
823.41	25571
823.55	25449
823.69	25681
823.83	25620
823.97	25521
824.11	25400
824.25	25350
824.389	25430
824.529	25407
824.669	25346
824.809	25613
824.949	25415
825.089	25438
825.228	25411
825.368	25023
825.508	25183
825.648	25362
825.787	25362
825.927	25453
826.067	25187
826.206	25217
826.346	25373
826.485	25285
826.625	25152
826.765	25293
826.904	25240
827.044	25008
827.183	25034
827.323	24954
827.462	24996
827.601	25031
827.741	25000
827.88	24909
828.02	24905
828.159	24909
828.298	24817
828.437	25027
828.577	24947
828.716	24981
828.855	24985
828.994	24779
829.134	24639
829.273	24608
829.412	24570
829.551	24540
829.69	24631
829.829	24700
829.968	24783
830.107	24711
830.246	24642
830.385	24540
830.524	24570
830.663	24479
830.802	24342
830.941	24319
831.08	24205
831.219	24376
831.357	24388
831.496	24464
831.635	24429
831.774	24171
831.913	24136
832.051	24110
832.19	24129
832.329	24182
832.467	23996
832.606	23923
832.744	23897
832.883	24049
833.022	23980
833.16	23931
833.299	23992
833.437	24064
833.576	24148
833.714	24041
833.852	23999
833.991	24178
834.129	24091
834.267	24159
834.406	23942
834.544	24224
834.682	24053
834.821	24015
834.959	24133
835.097	23870
835.235	23980
835.373	24045
835.511	23992
835.65	23885
835.788	23885
835.926	23783
836.064	23722
836.202	23786
836.34	23824
836.478	24003
836.615	23866
836.753	23958
836.891	23882
837.029	23851
837.167	23752
837.305	23824
837.443	23752
837.58	23733
837.718	23790
837.856	23798
837.993	23653
838.131	23684
838.269	23531
838.406	23539
838.544	23581
838.681	23280
838.819	23383
838.956	23197
839.094	23094
839.231	23204
839.369	23372
839.506	23611
839.643	23501
839.781	23128
839.918	23067
840.055	23162
840.193	23113
840.33	23033
840.467	23052
840.604	23079
840.742	23334
840.879	22881
841.016	23090
841.153	22965
841.29	23220
841.427	23022
841.564	23113
841.701	23018
841.838	23022
841.975	23048
842.112	23048
842.249	22881
842.385	22759
842.522	23162
842.659	22896
842.796	22938
842.933	22862
843.069	22862
843.206	22786
843.343	22949
843.479	22904
843.616	22923
843.752	22653
843.889	22702
844.025	22778
844.162	22725
844.298	22839
844.435	22607
844.571	22580
844.708	22649
844.844	22721
844.98	22744
845.117	22873
845.253	22607
845.389	22573
845.525	22538
845.661	22550
845.798	22485
845.934	22390
846.07	22333
846.206	22459
846.342	22573
846.478	22341
846.614	22230
846.75	22124
846.886	22135
847.022	22101
847.158	22055
847.294	22166
847.429	22109
847.565	21972
847.701	22314
847.837	21827
847.972	21945
848.108	21930
848.244	21949
848.379	21751
848.515	21679
848.65	21698
848.786	21720
848.921	21595
849.057	21899
849.192	21785
849.328	21652
849.463	21698
849.598	21610
849.734	21633
849.869	21549
850.004	21420
850.14	21454
850.275	21542
850.41	21412
850.545	21408
850.68	21511
850.815	21561
850.95	21443
851.085	21694
851.22	21568
851.355	21492
851.49	21420
851.625	21428
851.76	21386
851.895	21367
852.03	21321
852.165	21412
852.299	21538
852.434	21515
852.569	21538
852.703	21534
852.838	21351
852.973	21496
853.107	21492
853.242	21382
853.376	21268
853.511	21169
853.645	21207
853.78	21416
853.914	21313
854.048	21260
854.183	21214
854.317	21275
854.451	21477
854.585	21317
854.72	21317
854.854	21329
854.988	21249
855.122	21294
855.256	21188
855.39	21264
855.524	21408
855.658	21344
855.792	21154
855.926	21260
856.06	21317
856.194	21294
856.327	21249
856.461	21169
856.595	21188
856.729	21252
856.862	21374
856.996	21336
857.13	21332
857.263	21424
857.397	21454
857.53	21291
857.664	21340
857.797	21218
857.931	21313
858.064	21317
858.197	21412
858.331	21203
858.464	21226
858.597	21127
858.731	21264
858.864	21264
858.997	21233
859.13	21203
859.263	21199
859.396	21287
859.529	21252
859.662	21214
859.795	21218
859.928	21275
860.061	21458
860.194	21447
860.327	21344
860.46	21329
860.592	21351
860.725	21481
860.858	21367
860.99	21252
861.123	21264
861.256	21089
861.388	21249
861.521	21873
861.653	21169
861.786	21135
861.918	21093
862.05	21089
862.183	21150
862.315	21260
862.447	21264
862.58	21252
862.712	21058
862.844	20929
862.976	21005
863.108	20963
863.24	21450
863.372	21085
863.504	21085
863.636	20994
863.768	20960
863.9	20994
864.032	20925
864.164	20910
864.296	20944
864.428	21161
864.559	21024
864.691	21001
864.823	21108
864.954	20979
865.086	21005
865.217	20925
865.349	20853
865.48	20724
865.612	21024
865.743	20963
865.875	20868
866.006	20731
866.137	20880
866.269	20868
866.4	20952
866.531	20811
866.662	20655
866.793	20792
866.924	20796
867.055	20754
867.186	20849
867.317	20735
867.448	20705
867.579	20872
867.71	20804
867.841	20701
867.972	20727
868.103	20777
868.233	20857
868.364	20785
868.495	20895
868.625	21096
868.756	21062
868.886	20921
869.017	21009
869.147	21184
869.278	21245
869.408	21051
869.539	21112
869.669	21218
869.799	21142
869.929	21146
870.06	21138
870.19	21416
870.32	21408
870.45	21386
870.58	21477
870.71	21500
870.84	21599
870.97	21523
871.1	21553
871.23	21591
871.36	21675
871.489	21606
871.619	21557
871.749	21572
871.879	21637
872.008	21789
872.138	21553
872.267	21576
872.397	21557
872.526	21492
872.656	21488
872.785	21439
872.915	21663
873.044	21823
873.173	21778
873.303	21633
873.432	21838
873.561	21819
873.69	21694
873.819	21644
873.948	21823
874.077	21675
874.206	21667
874.335	21641
874.464	21663
874.593	21903
874.722	21778
874.851	21960
874.979	21964
875.108	22013
875.237	21903
875.365	21842
875.494	21888
875.623	21964
875.751	21797
875.88	22078
876.008	21934
876.136	22097
876.265	22253
876.393	22653
876.521	22405
876.65	22413
876.778	22257
876.906	22219
877.034	22223
877.162	22295
877.29	22120
877.418	22246
877.546	22223
877.674	22204
877.802	22352
877.93	22173
878.058	22276
878.185	22139
878.313	22162
878.441	22204
878.568	22135
878.696	22147
878.824	22348
878.951	22268
879.079	22470
879.206	22668
879.333	22398
879.461	22375
879.588	22238
879.715	22382
879.842	22573
879.97	22436
880.097	21956
880.224	22017
880.351	22090
880.478	21975
880.605	21991
880.732	22040
880.859	22348
880.986	22150
881.112	21998
881.239	21964
881.366	21831
881.493	21823
881.619	21599
881.746	21785
881.872	21641
881.999	21526
882.125	21538
882.252	21648
882.378	21644
882.505	21751
882.631	21458
882.757	21424
882.883	21386
883.01	21416
883.136	21287
883.262	21256
883.388	21218
883.514	21401
883.64	21370
883.766	21264
883.892	21043
884.018	21100
884.143	21336
884.269	21287
884.395	20986
884.52	20849
884.646	20982
884.772	20864
884.897	20963
885.023	20963
885.148	21077
885.274	21051
885.399	21093
885.524	20948
885.65	21039
885.775	21005
885.9	20971
886.025	21077
886.15	21123
886.275	20941
886.4	20906
886.525	20956
886.65	20956
886.775	20933
886.9	21161
887.025	21138
887.149	20982
887.274	20842
887.399	20678
887.523	20667
887.648	20689
887.773	20739
887.897	20750
888.021	20693
888.146	20724
888.27	20883
888.395	20880
888.519	20781
888.643	20693
888.767	20815
888.891	20686
889.015	20606
889.139	20632
889.263	20609
889.387	20701
889.511	20830
889.635	20655
889.759	20533
889.883	20590
890.006	20560
890.13	20636
890.254	20484
890.377	20530
890.501	20332
890.624	20305
890.748	20415
890.871	20103
890.995	20100
891.118	20142
891.241	20233
891.364	20183
891.488	20221
891.611	20122
891.734	20244
891.857	20271
891.98	20138
892.103	20218
892.226	20187
892.349	19989
892.471	19898
892.594	20046
892.717	20100
892.839	20084
892.962	20050
893.085	20031
893.207	20119
893.33	20001
893.452	19959
893.575	20134
893.697	20027
893.819	20130
893.941	20199
894.064	20119
894.186	19959
894.308	19947
894.43	20111
894.552	20145
894.674	20115
894.796	19951
894.918	20046
895.04	20005
895.161	20031
895.283	20031
895.405	20027
895.526	20122
895.648	20084
895.769	20020
895.891	20115
896.012	20157
896.134	20027
896.255	20073
896.376	19989
896.498	19967
896.619	20024
896.74	20024
896.861	20191
896.982	20221
897.103	20469
897.224	20309
897.345	20309
897.466	20084
897.587	20275
897.708	20431
897.828	20320
897.949	20233
898.07	20005
898.19	20275
898.311	20358
898.431	20164
898.552	20259
898.672	20313
898.792	20355
898.913	20259
899.033	20073
899.153	19959
899.273	19917
899.393	19902
899.513	20088
899.633	19970
899.753	20020
899.873	19936
899.993	19997
900.113	19936
900.232	19982
900.352	19909
900.472	19772
900.591	19719
900.711	19822
900.83	19708
900.95	19906
901.069	19841
901.189	19605
901.308	19483
901.427	19449
901.546	19270
901.665	19396
901.784	19388
901.904	19304
902.023	19084
902.141	18939
902.26	18962
902.379	19008
902.498	18837
902.617	18787
902.735	18856
902.854	18871
902.973	18745
903.091	18589
903.21	18585
903.328	18517
903.446	18346
903.565	18380
903.683	18433
903.801	18243
903.919	18258
904.038	18205
904.156	18148
904.274	18228
904.392	18117
904.51	18167
904.627	18228
904.745	18064
904.863	18133
904.981	17908
905.098	17832
905.216	17798
905.334	17832
905.451	17703
905.569	17813
905.686	17771
905.803	17726
905.921	17573
906.038	17748
906.155	17592
906.272	17543
906.389	17406
906.506	17337
906.623	17376
906.74	17315
906.857	17162
906.974	17212
907.091	17326
907.208	17402
907.324	17360
907.441	17258
907.557	17025
907.674	17060
907.79	17010
907.907	17022
908.023	17033
908.139	17060
908.256	17140
908.372	16927
908.488	16957
908.604	16850
908.72	16866
908.836	16782
908.952	16740
909.068	16824
909.184	16866
909.3	16797
909.415	16767
909.531	16710
909.647	16512
909.762	16447
909.878	16459
909.993	16569
910.108	16329
910.224	16424
910.339	16493
910.454	16382
910.57	16299
910.685	16207
910.8	16618
910.915	16478
911.03	16253
911.145	16093
911.259	16093
911.374	16162
911.489	16063
911.604	15968
911.718	15880
911.833	15854
911.947	15663
912.062	15629
912.176	15797
912.291	15812
912.405	15781
912.519	15945
912.633	15968
912.748	15812
912.862	15804
912.976	15663
913.09	15549
913.204	15587
913.318	15622
913.431	15800
913.545	15625
913.659	15732
913.772	15568
913.886	15469
914	15428
914.113	15500
914.226	15534
914.34	15488
914.453	15252
914.566	15515
914.68	15401
914.793	15264
914.906	15020
915.019	14998
915.132	15036
915.245	14990
915.358	15142
915.47	15074
915.583	15089
915.696	15047
915.809	15146
915.921	15127
916.034	14994
916.146	14990
916.259	14861
916.371	15077
916.483	15036
916.595	14788
916.708	14857
916.82	14842
916.932	14849
917.044	14743
917.156	14762
917.268	14636
917.38	14693
917.491	14720
917.603	14686
917.715	14724
917.826	14807
917.938	14602
918.049	14564
918.161	14602
918.272	14815
918.384	14720
918.495	14735
918.606	14473
918.717	14446
918.828	14575
918.939	14507
919.05	14339
919.161	14434
919.272	14252
919.383	14278
919.494	14450
919.604	14617
919.715	14404
919.826	14358
919.936	14374
920.047	14419
920.157	14476
920.267	14583
920.378	14370
920.488	14347
920.598	14655
920.708	14636
920.818	14545
920.928	14518
921.038	14670
921.148	14693
921.258	14374
921.368	14271
921.477	14225
921.587	14149
921.697	14043
921.806	14107
921.916	14039
922.025	13841
922.134	13799
922.244	13708
922.353	13750
922.462	13791
922.571	13586
922.68	13483
922.789	13468
922.898	13449
923.007	13327
923.116	13453
923.224	13396
923.333	13312
923.442	13362
923.55	13343
923.659	13362
923.767	13354
923.876	13232
923.984	13293
924.092	13141
924.201	13187
924.309	13217
924.417	13190
924.525	13160
924.633	13080
924.741	13928
924.849	12852
924.956	13031
925.064	12894
925.172	12848
925.279	12810
925.387	12894
925.494	12837
925.602	12966
925.709	12920
925.816	12779
925.924	12833
926.031	12878
926.138	12776
926.245	12779
926.352	12749
926.459	12852
926.566	12916
926.673	12681
926.779	12616
926.886	12570
926.993	12486
927.099	12467
927.206	12395
927.312	12376
927.419	12445
927.525	12433
927.631	12521
927.737	12330
927.843	12300
927.95	12167
928.056	12277
928.162	12270
928.267	12254
928.373	12802
928.479	12346
928.585	12034
928.69	12201
928.796	12213
928.901	12060
929.007	11984
929.112	12117
929.218	12068
929.323	12053
929.428	11958
929.533	12095
929.638	11942
929.743	11923
929.848	11942
929.953	11901
930.058	11790
930.163	11592
930.267	11733
930.372	11813
930.477	11653
930.581	11832
930.685	11798
930.79	11589
930.894	11581
930.998	11558
931.103	11661
931.207	11368
931.311	11265
931.415	11185
931.519	10949
931.623	10915
