Data from test_V78500241_405.txt Node
Date: Fri Mar 25 15:12:40 CST 2022
User: usil
Spectrometer: V785-0024
Trigger mode: 0
Integration Time (sec): 4.000000E-1
Scans to average: 1
Nonlinearity correction enabled: false
Boxcar width: 0
Storing dark spectrum: false
XAxis mode: Wavelengths
Number of Pixels in Spectrum: 1024
>>>>>Begin Spectral Data<<<<<
801.071	26918
801.214	26853
801.356	26720
801.499	26651
801.641	26613
801.783	26663
801.926	26526
802.068	26568
802.211	26495
802.353	26347
802.496	26282
802.638	26088
802.78	26176
802.923	26122
803.065	26111
803.208	26103
803.35	26214
803.492	26172
803.635	26278
803.777	26278
803.919	26210
804.061	26415
804.204	26408
804.346	26206
804.488	26290
804.63	26320
804.773	26202
804.915	26298
805.057	26374
805.199	26400
805.341	26328
805.483	26393
805.626	26294
805.768	26122
805.91	26358
806.052	26313
806.194	26328
806.336	26438
806.478	26442
806.62	26305
806.762	26461
806.904	26511
807.046	26902
807.188	26686
807.33	26720
807.472	26788
807.614	26834
807.756	26708
807.898	26629
808.04	26556
808.182	26724
808.324	26613
808.465	26632
808.607	26811
808.749	26940
808.891	26994
809.033	27146
809.174	27108
809.316	27039
809.458	26933
809.6	26807
809.741	27123
809.883	27154
810.025	27252
810.166	27112
810.308	27233
810.45	27188
810.591	27184
810.733	26990
810.875	26902
811.016	26792
811.158	26838
811.299	27081
811.441	27154
811.582	27081
811.724	26979
811.865	26857
812.007	26990
812.148	26880
812.29	27001
812.431	26948
812.573	27199
812.714	27351
812.855	27542
812.997	27591
813.138	27793
813.279	27603
813.421	27454
813.562	27287
813.703	27389
813.845	27131
813.986	26864
814.127	26674
814.268	26587
814.41	26617
814.551	26438
814.692	26667
814.833	26453
814.974	26549
815.115	26495
815.256	26522
815.397	26484
815.539	26377
815.68	26305
815.821	26434
815.962	26423
816.103	26298
816.244	26328
816.385	26134
816.526	26176
816.666	25856
816.807	25921
816.948	25830
817.089	26142
817.23	25814
817.371	25906
817.512	25864
817.653	25868
817.793	25757
817.934	25719
818.075	25917
818.216	25868
818.356	25811
818.497	25681
818.638	25655
818.778	25624
818.919	25594
819.06	25700
819.2	25712
819.341	25921
819.481	25849
819.622	25986
819.762	26164
819.903	26195
820.043	26043
820.184	26001
820.324	25917
820.465	25868
820.605	26062
820.746	25947
820.886	25928
821.026	25879
821.167	25879
821.307	25932
821.447	26001
821.588	25769
821.728	25609
821.868	25460
822.008	25213
822.149	25274
822.289	25278
822.429	25000
822.569	25122
822.709	25069
822.849	24795
822.99	24772
823.13	24779
823.27	24779
823.41	24661
823.55	24654
823.69	24498
823.83	24684
823.97	24578
824.11	24346
824.25	24391
824.389	24509
824.529	24464
824.669	24410
824.809	24612
824.949	24673
825.089	24669
825.228	24570
825.368	24319
825.508	24254
825.648	24323
825.787	24213
825.927	24213
826.067	24376
826.206	24243
826.346	24433
826.485	24319
826.625	24315
826.765	24441
826.904	24422
827.044	24087
827.183	24171
827.323	24018
827.462	24140
827.601	24148
827.741	23840
827.88	24015
828.02	23954
828.159	23999
828.298	24106
828.437	24114
828.577	24022
828.716	24163
828.855	24045
828.994	23710
829.134	23790
829.273	23805
829.412	23665
829.551	23714
829.69	23786
829.829	23859
829.968	23878
830.107	23817
830.246	23646
830.385	23687
830.524	23611
830.663	23623
830.802	23608
830.941	23410
831.08	23303
831.219	23425
831.357	23433
831.496	23581
831.635	23482
831.774	23372
831.913	23330
832.051	23246
832.19	23094
832.329	23121
832.467	23124
832.606	23025
832.744	23102
832.883	23018
833.022	23014
833.16	23025
833.299	23117
833.437	23109
833.576	23197
833.714	23208
833.852	23239
833.991	23102
834.129	23318
834.267	23159
834.406	23227
834.544	23166
834.682	23067
834.821	23159
834.959	23288
835.097	23124
835.235	23200
835.373	23117
835.511	23113
835.65	23052
835.788	23090
835.926	22919
836.064	22725
836.202	22843
836.34	23010
836.478	23235
836.615	22961
836.753	23079
836.891	23044
837.029	22934
837.167	22930
837.305	22839
837.443	22934
837.58	22740
837.718	23041
837.856	22873
837.993	22786
838.131	22771
838.269	22672
838.406	22691
838.544	22786
838.681	22367
838.819	22428
838.956	22348
839.094	22299
839.231	22375
839.369	22611
839.506	22744
839.643	22645
839.781	22417
839.918	22242
840.055	22333
840.193	22333
840.33	22242
840.467	22238
840.604	22360
840.742	22599
840.879	22204
841.016	22230
841.153	22299
841.29	22367
841.427	22181
841.564	22272
841.701	22093
841.838	22265
841.975	22276
842.112	22143
842.249	22021
842.385	22158
842.522	22200
842.659	22185
842.796	21956
842.933	22120
843.069	21915
843.206	21907
843.343	22105
843.479	22021
843.616	22036
843.752	21781
843.889	21846
844.025	21903
844.162	21751
844.298	21941
844.435	21842
844.571	21770
844.708	21835
844.844	21816
844.98	21934
845.117	21895
845.253	21759
845.389	21622
845.525	21888
845.661	21644
845.798	21526
845.934	21656
846.07	21530
846.206	21576
846.342	21599
846.478	21568
846.614	21382
846.75	21218
846.886	21192
847.022	21317
847.158	21272
847.294	21245
847.429	21351
847.565	21192
847.701	21515
847.837	21077
847.972	20975
848.108	21116
848.244	21024
848.379	20914
848.515	20899
848.65	20876
848.786	20864
848.921	20906
849.057	20971
849.192	21070
849.328	20914
849.463	20807
849.598	20788
849.734	20708
849.869	20701
850.004	20613
850.14	20659
850.275	20632
850.41	20609
850.545	20579
850.68	20667
850.815	20693
850.95	20564
851.085	20872
851.22	20750
851.355	20731
851.49	20568
851.625	20602
851.76	20549
851.895	20663
852.03	20511
852.165	20659
852.299	20651
852.434	20674
852.569	20648
852.703	20769
852.838	20674
852.973	20758
853.107	20716
853.242	20495
853.376	20571
853.511	20393
853.645	20492
853.78	20575
853.914	20495
854.048	20503
854.183	20427
854.317	20556
854.451	20651
854.585	20305
854.72	20537
854.854	20442
854.988	20465
855.122	20541
855.256	20343
855.39	20476
855.524	20473
855.658	20522
855.792	20469
855.926	20499
856.06	20575
856.194	20465
856.327	20454
856.461	20404
856.595	20442
856.729	20476
856.862	20549
856.996	20469
857.13	20351
857.263	20606
857.397	20617
857.53	20454
857.664	20389
857.797	20503
857.931	20552
858.064	20480
858.197	20640
858.331	20560
858.464	20530
858.597	20469
858.731	20446
858.864	20446
858.997	20423
859.13	20476
859.263	20514
859.396	20549
859.529	20332
859.662	20446
859.795	20442
859.928	20495
860.061	20537
860.194	20701
860.327	20613
860.46	20492
860.592	20651
860.725	20659
860.858	20617
860.99	20549
861.123	20434
861.256	20537
861.388	20518
861.521	21176
861.653	20396
861.786	20305
861.918	20351
862.05	20412
862.183	20408
862.315	20370
862.447	20393
862.58	20320
862.712	20233
862.844	20168
862.976	20263
863.108	20259
863.24	20735
863.372	20130
863.504	20157
863.636	20176
863.768	20320
863.9	20351
864.032	20130
864.164	20195
864.296	20180
864.428	20317
864.559	20237
864.691	20172
864.823	20221
864.954	20237
865.086	20183
865.217	20058
865.349	19928
865.48	20073
865.612	20115
865.743	20237
865.875	20168
866.006	20069
866.137	20176
866.269	20130
866.4	19982
866.531	20043
866.662	20024
866.793	20001
866.924	20035
867.055	20096
867.186	20107
867.317	20035
867.448	19894
867.579	20020
867.71	19955
867.841	20008
867.972	20016
868.103	19928
868.233	20111
868.364	20081
868.495	20058
868.625	20210
868.756	20320
868.886	20149
869.017	20229
869.147	20393
869.278	20389
869.408	20381
869.539	20218
869.669	20412
869.799	20294
869.929	20408
870.06	20412
870.19	20629
870.32	20644
870.45	20663
870.58	20640
870.71	20712
870.84	20781
870.97	20655
871.1	20629
871.23	20861
871.36	20918
871.489	20807
871.619	20765
871.749	20876
871.879	20796
872.008	20937
872.138	20800
872.267	20876
872.397	20842
872.526	20773
872.656	20762
872.785	20708
872.915	20921
873.044	21009
873.173	20963
873.303	20883
873.432	21005
873.561	21028
873.69	20967
873.819	20963
873.948	20960
874.077	20963
874.206	20979
874.335	20948
874.464	21020
874.593	21104
874.722	21150
874.851	21230
874.979	21252
875.108	21108
875.237	21036
875.365	20998
875.494	21161
875.623	21180
875.751	21100
875.88	21112
876.008	21184
876.136	21268
876.265	21549
876.393	21641
876.521	21549
876.65	21629
876.778	21660
876.906	21466
877.034	21458
877.162	21530
877.29	21466
877.418	21580
877.546	21542
877.674	21530
877.802	21568
877.93	21481
878.058	21477
878.185	21428
878.313	21405
878.441	21553
878.568	21393
878.696	21458
878.824	21629
878.951	21656
879.079	21728
879.206	21728
879.333	21701
879.461	21485
879.588	21603
879.715	21690
879.842	21854
879.97	21538
880.097	21302
880.224	21298
880.351	21382
880.478	21344
880.605	21408
880.732	21306
880.859	21481
880.986	21294
881.112	21351
881.239	21214
881.366	21020
881.493	20925
881.619	20842
881.746	20906
881.872	20944
881.999	20891
882.125	20902
882.252	20941
882.378	20868
882.505	20937
882.631	20826
882.757	20701
882.883	20617
883.01	20568
883.136	20590
883.262	20427
883.388	20465
883.514	20606
883.64	20640
883.766	20522
883.892	20332
884.018	20446
884.143	20549
884.269	20731
884.395	20339
884.52	20294
884.646	20317
884.772	20313
884.897	20111
885.023	20195
885.148	20355
885.274	20355
885.399	20301
885.524	20336
885.65	20339
885.775	20419
885.9	20355
886.025	20317
886.15	20313
886.275	20221
886.4	20161
886.525	20301
886.65	20218
886.775	20176
886.9	20423
887.025	20473
887.149	20229
887.274	20153
887.399	20081
887.523	20031
887.648	20016
887.773	19955
887.897	20180
888.021	20134
888.146	20107
888.27	20119
888.395	20088
888.519	20016
888.643	20069
888.767	20016
888.891	19947
889.015	19887
889.139	19852
889.263	19788
889.387	19974
889.511	20134
889.635	19986
889.759	19852
889.883	19791
890.006	19811
890.13	19989
890.254	19750
890.377	19761
890.501	19643
890.624	19525
890.748	19616
890.871	19460
890.995	19301
891.118	19441
891.241	19468
891.364	19453
891.488	19514
891.611	19453
891.734	19510
891.857	19480
891.98	19464
892.103	19449
892.226	19396
892.349	19388
892.471	19335
892.594	19297
892.717	19415
892.839	19422
892.962	19350
893.085	19407
893.207	19289
893.33	19240
893.452	19285
893.575	19388
893.697	19339
893.819	19472
893.941	19559
894.064	19392
894.186	19289
894.308	19198
894.43	19381
894.552	19487
894.674	19430
894.796	19274
894.918	19247
895.04	19282
895.161	19362
895.283	19304
895.405	19426
895.526	19304
895.648	19343
895.769	19388
895.891	19373
896.012	19563
896.134	19445
896.255	19346
896.376	19441
896.498	19358
896.619	19411
896.74	19343
896.861	19400
896.982	19655
897.103	19753
897.224	19685
897.345	19601
897.466	19445
897.587	19578
897.708	19700
897.828	19620
897.949	19487
898.07	19354
898.19	19624
898.311	19803
898.431	19544
898.552	19491
898.672	19704
898.792	19639
898.913	19696
899.033	19499
899.153	19327
899.273	19320
899.393	19411
899.513	19354
899.633	19453
899.753	19331
899.873	19324
899.993	19476
900.113	19301
900.232	19316
900.352	19324
900.472	19320
900.591	19164
900.711	19122
900.83	19122
900.95	19240
901.069	19263
901.189	18996
901.308	18962
901.427	18825
901.546	18810
901.665	18745
901.784	18768
901.904	18612
902.023	18555
902.141	18292
902.26	18361
902.379	18486
902.498	18247
902.617	18171
902.735	18254
902.854	18232
902.973	18205
903.091	17939
903.21	17954
903.328	17935
903.446	17878
903.565	17783
903.683	17828
903.801	17691
903.919	17676
904.038	17596
904.156	17539
904.274	17638
904.392	17528
904.51	17459
904.627	17539
904.745	17505
904.863	17570
904.981	17280
905.098	17159
905.216	17231
905.334	17231
905.451	17189
905.569	17318
905.686	17189
905.803	17143
905.921	16991
906.038	17174
906.155	17052
906.272	16877
906.389	17022
906.506	16816
906.623	16820
906.74	16607
906.857	16634
906.974	16580
907.091	16797
907.208	16930
907.324	16748
907.441	16660
907.557	16459
907.674	16538
907.79	16500
907.907	16405
908.023	16493
908.139	16443
908.256	16360
908.372	16436
908.488	16413
908.604	16265
908.72	16207
908.836	16177
908.952	16162
909.068	16287
909.184	16360
909.3	16169
909.415	16230
909.531	16177
909.647	15934
909.762	15991
909.878	15816
909.993	15956
910.108	15983
910.224	15892
910.339	15899
910.454	15701
910.57	15762
910.685	15644
910.8	15869
910.915	15800
911.03	15766
911.145	15504
911.259	15473
911.374	15488
911.489	15359
911.604	15420
911.718	15325
911.833	15268
911.947	15184
912.062	15108
912.176	15203
912.291	15252
912.405	15203
912.519	15447
912.633	15408
912.748	15287
912.862	15287
912.976	15077
913.09	15032
913.204	15062
913.318	15058
913.431	15249
913.545	15226
913.659	15203
913.772	15036
913.886	14849
914	14902
914.113	14941
914.226	15070
914.34	14941
914.453	14887
914.566	14990
914.68	14887
914.793	14811
914.906	14697
915.019	14549
915.132	14431
915.245	14560
915.358	14492
915.47	14552
915.583	14621
915.696	14537
915.809	14568
915.921	14651
916.034	14499
916.146	14412
916.259	14400
916.371	14545
916.483	14473
916.595	14347
916.708	14343
916.82	14495
916.932	14377
917.044	14301
917.156	14252
917.268	14180
917.38	14149
917.491	14202
917.603	14191
917.715	14298
917.826	14282
917.938	14210
918.049	14088
918.161	14081
918.272	14301
918.384	14275
918.495	14195
918.606	13928
918.717	13917
918.828	14024
918.939	13997
919.05	13799
919.161	13982
919.272	13674
919.383	13856
919.494	14027
919.604	14267
919.715	13864
919.826	13841
919.936	13860
920.047	13993
920.157	13894
920.267	14187
920.378	13947
920.488	13921
920.598	14138
920.708	14263
920.818	14012
920.928	14130
921.038	14100
921.148	14130
921.258	13845
921.368	13845
921.477	13769
921.587	13700
921.697	13628
921.806	13731
921.916	13510
922.025	13373
922.134	13354
922.244	13308
922.353	13365
922.462	13202
922.571	13183
922.68	13000
922.789	12947
922.898	13053
923.007	12852
923.116	12935
923.224	13008
923.333	13012
923.442	12787
923.55	12848
923.659	12810
923.767	12897
923.876	12875
923.984	12848
924.092	12745
924.201	12726
924.309	12787
924.417	12726
924.525	12662
924.633	12711
924.741	13666
924.849	12498
924.956	12620
925.064	12490
925.172	12376
925.279	12403
925.387	12532
925.494	12502
925.602	12574
925.709	12502
925.816	12361
925.924	12414
926.031	12547
926.138	12437
926.245	12502
926.352	12308
926.459	12448
926.566	12502
926.673	12285
926.779	12224
926.886	12243
926.993	12079
927.099	12079
927.206	11969
927.312	11988
927.419	12098
927.525	12098
927.631	12053
927.737	12003
927.843	11843
927.95	11824
928.056	11893
928.162	11786
928.267	11813
928.373	12509
928.479	11950
928.585	11760
928.69	11893
928.796	11790
928.901	11771
929.007	11634
929.112	11726
929.218	11672
929.323	11608
929.428	11585
929.533	11748
929.638	11543
929.743	11566
929.848	11528
929.953	11554
930.058	11436
930.163	11280
930.267	11277
930.372	11433
930.477	11322
930.581	11463
930.685	11307
930.79	11155
930.894	11162
930.998	11185
931.103	11345
931.207	10927
931.311	10900
931.415	10725
931.519	10550
931.623	10519
