Data from test_V78500241_3348.txt Node
Date: Fri Mar 25 15:33:10 CST 2022
User: usil
Spectrometer: V785-0024
Trigger mode: 0
Integration Time (sec): 4.000000E-1
Scans to average: 1
Nonlinearity correction enabled: false
Boxcar width: 0
Storing dark spectrum: false
XAxis mode: Wavelengths
Number of Pixels in Spectrum: 1024
>>>>>Begin Spectral Data<<<<<
801.071	27176
801.214	27180
801.356	26845
801.499	26834
801.641	26674
801.783	26758
801.926	26735
802.068	26785
802.211	26651
802.353	26613
802.496	26446
802.638	26480
802.78	26362
802.923	26301
803.065	26263
803.208	26221
803.35	26263
803.492	26511
803.635	26507
803.777	26358
803.919	26423
804.061	26731
804.204	26575
804.346	26431
804.488	26355
804.63	26374
804.773	26385
804.915	26408
805.057	26526
805.199	26343
805.341	26438
805.483	26621
805.626	26507
805.768	26522
805.91	26579
806.052	26636
806.194	26450
806.336	26705
806.478	26484
806.62	26461
806.762	26598
806.904	26811
807.046	27138
807.188	27058
807.33	27005
807.472	27024
807.614	26967
807.756	27001
807.898	26937
808.04	26693
808.182	26861
808.324	26891
808.465	26842
808.607	27085
808.749	26998
808.891	27317
809.033	27310
809.174	27302
809.316	27176
809.458	27264
809.6	27180
809.741	27218
809.883	27214
810.025	27408
810.166	27355
810.308	27507
810.45	27325
810.591	27249
810.733	27233
810.875	27211
811.016	27074
811.158	27085
811.299	27157
811.441	27268
811.582	27340
811.724	27169
811.865	27180
812.007	27161
812.148	27013
812.29	27131
812.431	27378
812.573	27260
812.714	27580
812.855	27717
812.997	27804
813.138	27930
813.279	27751
813.421	27629
813.562	27644
813.703	27488
813.845	27302
813.986	27096
814.127	26819
814.268	26861
814.41	26777
814.551	26663
814.692	26883
814.833	26796
814.974	26636
815.115	26811
815.256	26488
815.397	26552
815.539	26541
815.68	26579
815.821	26438
815.962	26625
816.103	26533
816.244	26438
816.385	26343
816.526	26351
816.666	26115
816.807	25951
816.948	26153
817.089	26149
817.23	26134
817.371	26062
817.512	26012
817.653	26001
817.793	25978
817.934	26138
818.075	26168
818.216	26111
818.356	26069
818.497	25811
818.638	25761
818.778	25906
818.919	25887
819.06	25776
819.2	25883
819.341	25959
819.481	26058
819.622	26122
819.762	26412
819.903	26336
820.043	26237
820.184	26221
820.324	26157
820.465	26199
820.605	26126
820.746	26195
820.886	26130
821.026	26096
821.167	26107
821.307	26153
821.447	26024
821.588	26024
821.728	25868
821.868	25712
822.008	25590
822.149	25605
822.289	25460
822.429	25274
822.569	25213
822.709	25114
822.849	25072
822.99	25179
823.13	24920
823.27	25042
823.41	24753
823.55	24798
823.69	25019
823.83	24897
823.97	24817
824.11	24627
824.25	24585
824.389	24612
824.529	24764
824.669	24719
824.809	24745
824.949	24829
825.089	24688
825.228	24703
825.368	24475
825.508	24513
825.648	24578
825.787	24604
825.927	24498
826.067	24426
826.206	24528
826.346	24528
826.485	24669
826.625	24574
826.765	24726
826.904	24498
827.044	24414
827.183	24361
827.323	24224
827.462	24433
827.601	24372
827.741	24224
827.88	24228
828.02	24087
828.159	24186
828.298	24319
828.437	24201
828.577	24258
828.716	24338
828.855	24079
828.994	24007
829.134	23992
829.273	24053
829.412	23885
829.551	24015
829.69	23992
829.829	24057
829.968	23961
830.107	24015
830.246	24076
830.385	23901
830.524	23923
830.663	23786
830.802	23672
830.941	23680
831.08	23581
831.219	23737
831.357	23771
831.496	23824
831.635	23478
831.774	23585
831.913	23360
832.051	23372
832.19	23360
832.329	23383
832.467	23242
832.606	23235
832.744	23208
832.883	23353
833.022	23246
833.16	23379
833.299	23353
833.437	23288
833.576	23467
833.714	23406
833.852	23284
833.991	23512
834.129	23459
834.267	23444
834.406	23269
834.544	23395
834.682	23410
834.821	23455
834.959	23482
835.097	23269
835.235	23414
835.373	23353
835.511	23326
835.65	23231
835.788	23208
835.926	23060
836.064	23014
836.202	23037
836.34	23288
836.478	23364
836.615	23117
836.753	23318
836.891	23147
837.029	23143
837.167	23121
837.305	23220
837.443	23170
837.58	23041
837.718	23121
837.856	23056
837.993	23071
838.131	23060
838.269	22995
838.406	22850
838.544	22953
838.681	22767
838.819	22767
838.956	22546
839.094	22500
839.231	22538
839.369	22691
839.506	23003
839.643	22812
839.781	22516
839.918	22618
840.055	22561
840.193	22611
840.33	22421
840.467	22474
840.604	22428
840.742	22820
840.879	22432
841.016	22386
841.153	22379
841.29	22584
841.427	22455
841.564	22398
841.701	22367
841.838	22421
841.975	22291
842.112	22386
842.249	22322
842.385	22287
842.522	22386
842.659	22238
842.796	22280
842.933	22238
843.069	22150
843.206	22112
843.343	22230
843.479	22223
843.616	22272
843.752	22006
843.889	22013
844.025	22086
844.162	21972
844.298	22086
844.435	21956
844.571	21895
844.708	22002
844.844	22200
844.98	22112
845.117	22048
845.253	22006
845.389	21960
845.525	21899
845.661	21785
845.798	21778
845.934	21728
846.07	21656
846.206	21819
846.342	21732
846.478	21614
846.614	21534
846.75	21458
846.886	21447
847.022	21580
847.158	21492
847.294	21454
847.429	21492
847.565	21549
847.701	21751
847.837	21275
847.972	21310
848.108	21256
848.244	21279
848.379	21154
848.515	21032
848.65	21043
848.786	21096
848.921	21062
849.057	21077
849.192	21058
849.328	20979
849.463	21070
849.598	20971
849.734	21028
849.869	20906
850.004	20891
850.14	20914
850.275	20887
850.41	20788
850.545	20708
850.68	20891
850.815	20853
850.95	20921
851.085	20948
851.22	20990
851.355	20910
851.49	20876
851.625	20792
851.76	20842
851.895	20769
852.03	20727
852.165	20792
852.299	20731
852.434	20872
852.569	20914
852.703	20804
852.838	20902
852.973	20918
853.107	21017
853.242	20804
853.376	20640
853.511	20568
853.645	20644
853.78	20762
853.914	20533
854.048	20617
854.183	20598
854.317	20590
854.451	20876
854.585	20682
854.72	20670
854.854	20720
854.988	20663
855.122	20644
855.256	20564
855.39	20720
855.524	20663
855.658	20693
855.792	20648
855.926	20773
856.06	20758
856.194	20773
856.327	20461
856.461	20587
856.595	20552
856.729	20590
856.862	20727
856.996	20602
857.13	20762
857.263	20899
857.397	20804
857.53	20602
857.664	20640
857.797	20712
857.931	20739
858.064	20667
858.197	20674
858.331	20712
858.464	20507
858.597	20621
858.731	20701
858.864	20583
858.997	20602
859.13	20537
859.263	20693
859.396	20712
859.529	20655
859.662	20473
859.795	20571
859.928	20682
860.061	20800
860.194	20872
860.327	20648
860.46	20773
860.592	20693
860.725	20788
860.858	20754
860.99	20621
861.123	20545
861.256	20590
861.388	20758
861.521	21344
861.653	20568
861.786	20400
861.918	20533
862.05	20450
862.183	20530
862.315	20674
862.447	20644
862.58	20552
862.712	20434
862.844	20362
862.976	20545
863.108	20374
863.24	20773
863.372	20377
863.504	20465
863.636	20385
863.768	20442
863.9	20454
864.032	20385
864.164	20332
864.296	20461
864.428	20514
864.559	20473
864.691	20545
864.823	20465
864.954	20404
865.086	20256
865.217	20278
865.349	20122
865.48	20240
865.612	20313
865.743	20358
865.875	20339
866.006	20180
866.137	20225
866.269	20347
866.4	20206
866.531	20278
866.662	20282
866.793	20244
866.924	20050
867.055	20278
867.186	20134
867.317	20191
867.448	20001
867.579	20084
867.71	20058
867.841	20122
867.972	20240
868.103	20195
868.233	20282
868.364	20187
868.495	20313
868.625	20389
868.756	20537
868.886	20488
869.017	20446
869.147	20381
869.278	20594
869.408	20518
869.539	20396
869.669	20461
869.799	20556
869.929	20598
870.06	20579
870.19	20716
870.32	20727
870.45	20796
870.58	20807
870.71	20910
870.84	20800
870.97	20792
871.1	20880
871.23	20979
871.36	21157
871.489	20994
871.619	21055
871.749	21028
871.879	21116
872.008	21241
872.138	21043
872.267	21169
872.397	20891
872.526	20811
872.656	20929
872.785	20960
872.915	21116
873.044	21188
873.173	21028
873.303	21074
873.432	21119
873.561	21146
873.69	21013
873.819	21089
873.948	21093
874.077	21116
874.206	21089
874.335	21070
874.464	21237
874.593	21336
874.722	21241
874.851	21344
874.979	21317
875.108	21382
875.237	21287
875.365	21241
875.494	21306
875.623	21408
875.751	21393
875.88	21340
876.008	21515
876.136	21587
876.265	21732
876.393	21812
876.521	21785
876.65	21778
876.778	21736
876.906	21576
877.034	21599
877.162	21755
877.29	21622
877.418	21660
877.546	21781
877.674	21751
877.802	21663
877.93	21663
878.058	21580
878.185	21538
878.313	21717
878.441	21618
878.568	21485
878.696	21538
878.824	21618
878.951	21869
879.079	21850
879.206	21937
879.333	21876
879.461	21705
879.588	21831
879.715	21797
879.842	21991
879.97	21816
880.097	21530
880.224	21530
880.351	21553
880.478	21450
880.605	21454
880.732	21443
880.859	21705
880.986	21507
881.112	21397
881.239	21405
881.366	21336
881.493	21043
881.619	21142
881.746	21154
881.872	21074
881.999	21024
882.125	20944
882.252	21169
882.378	21085
882.505	21077
882.631	21039
882.757	20804
882.883	20895
883.01	20895
883.136	20788
883.262	20659
883.388	20590
883.514	20842
883.64	20842
883.766	20796
883.892	20659
884.018	20556
884.143	20750
884.269	20845
884.395	20465
884.52	20415
884.646	20621
884.772	20408
884.897	20400
885.023	20393
885.148	20503
885.274	20640
885.399	20480
885.524	20434
885.65	20415
885.775	20438
885.9	20263
886.025	20431
886.15	20492
886.275	20339
886.4	20324
886.525	20351
886.65	20412
886.775	20347
886.9	20507
887.025	20629
887.149	20507
887.274	20229
887.399	20221
887.523	20252
887.648	20176
887.773	20096
887.897	20347
888.021	20256
888.146	20145
888.27	20221
888.395	20419
888.519	20240
888.643	20259
888.767	20317
888.891	20168
889.015	20130
889.139	20084
889.263	20084
889.387	20142
889.511	20240
889.635	20206
889.759	20005
889.883	19989
890.006	20153
890.13	20122
890.254	19902
890.377	20092
890.501	19818
890.624	19674
890.748	19883
890.871	19784
890.995	19647
891.118	19521
891.241	19605
891.364	19601
891.488	19788
891.611	19506
891.734	19510
891.857	19761
891.98	19575
892.103	19609
892.226	19655
892.349	19540
892.471	19396
892.594	19537
892.717	19499
892.839	19537
892.962	19491
893.085	19529
893.207	19510
893.33	19411
893.452	19468
893.575	19559
893.697	19441
893.819	19628
893.941	19693
894.064	19704
894.186	19449
894.308	19384
894.43	19552
894.552	19704
894.674	19609
894.796	19445
894.918	19422
895.04	19457
895.161	19487
895.283	19537
895.405	19575
895.526	19506
895.648	19521
895.769	19616
895.891	19613
896.012	19563
896.134	19658
896.255	19502
896.376	19457
896.498	19468
896.619	19578
896.74	19525
896.861	19483
896.982	19932
897.103	19970
897.224	19772
897.345	19803
897.466	19696
897.587	19784
897.708	19833
897.828	19723
897.949	19742
898.07	19571
898.19	19620
898.311	19772
898.431	19723
898.552	19757
898.672	19837
898.792	19841
898.913	19845
899.033	19666
899.153	19681
899.273	19499
899.393	19529
899.513	19480
899.633	19411
899.753	19559
899.873	19407
899.993	19445
900.113	19521
900.232	19502
900.352	19514
900.472	19396
900.591	19373
900.711	19373
900.83	19221
900.95	19346
901.069	19350
901.189	19118
901.308	19084
901.427	18863
901.546	18901
901.665	18924
901.784	18905
901.904	18703
902.023	18601
902.141	18429
902.26	18437
902.379	18395
902.498	18426
902.617	18395
902.735	18437
902.854	18384
902.973	18285
903.091	18102
903.21	18140
903.328	18076
903.446	18026
903.565	17954
903.683	17965
903.801	17764
903.919	17935
904.038	17912
904.156	17680
904.274	17901
904.392	17558
904.51	17600
904.627	17623
904.745	17802
904.863	17745
904.981	17433
905.098	17334
905.216	17334
905.334	17341
905.451	17349
905.569	17315
905.686	17330
905.803	17280
905.921	17105
906.038	17288
906.155	17132
906.272	17045
906.389	17014
906.506	16911
906.623	16984
906.74	16858
906.857	16767
906.974	16812
907.091	16930
907.208	16995
907.324	16812
907.441	16812
907.557	16603
907.674	16611
907.79	16497
907.907	16599
908.023	16569
908.139	16527
908.256	16561
908.372	16466
908.488	16478
908.604	16272
908.72	16261
908.836	16390
908.952	16344
909.068	16421
909.184	16523
909.3	16344
909.415	16360
909.531	16356
909.647	15975
909.762	15930
909.878	16048
909.993	16006
910.108	15987
910.224	16051
910.339	16051
910.454	15918
910.57	15915
910.685	15789
910.8	16040
910.915	16101
911.03	15907
911.145	15606
911.259	15648
911.374	15637
911.489	15545
911.604	15572
911.718	15412
911.833	15355
911.947	15211
912.062	15321
912.176	15378
912.291	15359
912.405	15416
912.519	15557
912.633	15545
912.748	15454
912.862	15359
912.976	15260
913.09	14998
913.204	15199
913.318	15188
913.431	15283
913.545	15249
913.659	15256
913.772	15142
913.886	15070
914	15051
914.113	15154
914.226	15199
914.34	15127
914.453	14906
914.566	15039
914.68	14910
914.793	14883
914.906	14674
915.019	14644
915.132	14579
915.245	14636
915.358	14590
915.47	14583
915.583	14621
915.696	14636
915.809	14689
915.921	14716
916.034	14541
916.146	14549
916.259	14552
916.371	14625
916.483	14617
916.595	14457
916.708	14549
916.82	14488
916.932	14495
917.044	14492
917.156	14438
917.268	14301
917.38	14385
917.491	14199
917.603	14320
917.715	14343
917.826	14214
917.938	14271
918.049	14096
918.161	14240
918.272	14358
918.384	14343
918.495	14263
918.606	14134
918.717	14031
918.828	14123
918.939	14115
919.05	13993
919.161	14001
919.272	13871
919.383	13921
919.494	14100
919.604	14267
919.715	14084
919.826	13989
919.936	13978
920.047	14039
920.157	14008
920.267	14298
920.378	14008
920.488	13989
920.598	14180
920.708	14374
920.818	14130
920.928	14138
921.038	14271
921.148	14320
921.258	14012
921.368	13761
921.477	13769
921.587	13776
921.697	13628
921.806	13757
921.916	13609
922.025	13518
922.134	13441
922.244	13415
922.353	13502
922.462	13225
922.571	13255
922.68	13069
922.789	13171
922.898	13114
923.007	13095
923.116	13091
923.224	13133
923.333	13019
923.442	12844
923.55	12973
923.659	13023
923.767	13004
923.876	12901
923.984	12973
924.092	12825
924.201	12875
924.309	12821
924.417	12844
924.525	12837
924.633	12726
924.741	13738
924.849	12631
924.956	12719
925.064	12635
925.172	12422
925.279	12506
925.387	12608
925.494	12646
925.602	12612
925.709	12532
925.816	12433
925.924	12540
926.031	12536
926.138	12513
926.245	12494
926.352	12361
926.459	12483
926.566	12536
926.673	12448
926.779	12296
926.886	12266
926.993	12121
927.099	12117
927.206	12117
927.312	12087
927.419	12125
927.525	12194
927.631	12068
927.737	11935
927.843	11904
927.95	11851
928.056	11996
928.162	11973
928.267	11999
928.373	12528
928.479	12106
928.585	11821
928.69	11931
928.796	11878
928.901	11817
929.007	11688
929.112	11824
929.218	11809
929.323	11653
929.428	11638
929.533	11802
929.638	11630
929.743	11668
929.848	11638
929.953	11642
930.058	11577
930.163	11398
930.267	11402
930.372	11562
930.477	11414
930.581	11467
930.685	11433
930.79	11334
930.894	11299
930.998	11284
931.103	11425
931.207	11010
931.311	10923
931.415	10919
931.519	10679
931.623	10702
