Data from test_V78500241_2610.txt Node
Date: Fri Mar 25 15:28:02 CST 2022
User: usil
Spectrometer: V785-0024
Trigger mode: 0
Integration Time (sec): 4.000000E-1
Scans to average: 1
Nonlinearity correction enabled: false
Boxcar width: 0
Storing dark spectrum: false
XAxis mode: Wavelengths
Number of Pixels in Spectrum: 1024
>>>>>Begin Spectral Data<<<<<
801.071	27138
801.214	27104
801.356	26834
801.499	26895
801.641	26686
801.783	26701
801.926	26667
802.068	26777
802.211	26686
802.353	26518
802.496	26305
802.638	26298
802.78	26328
802.923	26180
803.065	26195
803.208	26351
803.35	26355
803.492	26488
803.635	26457
803.777	26385
803.919	26381
804.061	26754
804.204	26545
804.346	26317
804.488	26438
804.63	26503
804.773	26507
804.915	26431
805.057	26682
805.199	26461
805.341	26552
805.483	26689
805.626	26579
805.768	26560
805.91	26549
806.052	26629
806.194	26503
806.336	26804
806.478	26667
806.62	26579
806.762	26632
806.904	26880
807.046	27081
807.188	26948
807.33	26979
807.472	27104
807.614	26952
807.756	26975
807.898	26845
808.04	26811
808.182	26796
808.324	26891
808.465	26971
808.607	27070
808.749	27233
808.891	27245
809.033	27325
809.174	27424
809.316	27199
809.458	27233
809.6	27256
809.741	27112
809.883	27378
810.025	27530
810.166	27526
810.308	27485
810.45	27466
810.591	27351
810.733	27275
810.875	27157
811.016	27131
811.158	27207
811.299	27306
811.441	27382
811.582	27298
811.724	27256
811.865	27199
812.007	27154
812.148	27173
812.29	27150
812.431	27222
812.573	27469
812.714	27557
812.855	27705
812.997	27778
813.138	27873
813.279	27895
813.421	27739
813.562	27629
813.703	27568
813.845	27370
813.986	27214
814.127	26937
814.268	26769
814.41	26925
814.551	26880
814.692	26952
814.833	26933
814.974	26769
815.115	26895
815.256	26678
815.397	26750
815.539	26758
815.68	26678
815.821	26670
815.962	26678
816.103	26511
816.244	26579
816.385	26419
816.526	26427
816.666	26161
816.807	26134
816.948	26317
817.089	26202
817.23	26157
817.371	26050
817.512	26221
817.653	26058
817.793	26122
817.934	26035
818.075	26202
818.216	25993
818.356	26103
818.497	25936
818.638	25837
818.778	25822
818.919	25864
819.06	26016
819.2	25898
819.341	26096
819.481	25966
819.622	26286
819.762	26374
819.903	26431
820.043	26328
820.184	26240
820.324	26244
820.465	26294
820.605	26199
820.746	26176
820.886	26134
821.026	26195
821.167	26191
821.307	26103
821.447	26225
821.588	25997
821.728	25852
821.868	25814
822.008	25765
822.149	25601
822.289	25479
822.429	25354
822.569	25228
822.709	25339
822.849	25065
822.99	25084
823.13	25050
823.27	25061
823.41	24875
823.55	24867
823.69	24928
823.83	24829
823.97	24798
824.11	24730
824.25	24623
824.389	24848
824.529	24669
824.669	24715
824.809	24833
824.949	24825
825.089	24837
825.228	24597
825.368	24593
825.508	24422
825.648	24551
825.787	24673
825.927	24681
826.067	24513
826.206	24631
826.346	24642
826.485	24642
826.625	24456
826.765	24840
826.904	24635
827.044	24448
827.183	24505
827.323	24296
827.462	24403
827.601	24433
827.741	24235
827.88	24319
828.02	24110
828.159	24247
828.298	24289
828.437	24273
828.577	24232
828.716	24429
828.855	24178
828.994	24038
829.134	23916
829.273	24144
829.412	23920
829.551	23855
829.69	24022
829.829	24018
829.968	24057
830.107	24133
830.246	24148
830.385	23973
830.524	23916
830.663	23817
830.802	23870
830.941	23661
831.08	23554
831.219	23684
831.357	23764
831.496	23855
831.635	23524
831.774	23547
831.913	23364
832.051	23433
832.19	23368
832.329	23273
832.467	23341
832.606	23212
832.744	23296
832.883	23299
833.022	23189
833.16	23288
833.299	23353
833.437	23417
833.576	23292
833.714	23360
833.852	23349
833.991	23353
834.129	23501
834.267	23452
834.406	23368
834.544	23322
834.682	23322
834.821	23414
834.959	23497
835.097	23254
835.235	23277
835.373	23277
835.511	23353
835.65	23231
835.788	23174
835.926	23124
836.064	23014
836.202	23098
836.34	23273
836.478	23353
836.615	23193
836.753	23235
836.891	23303
837.029	23288
837.167	23151
837.305	23090
837.443	23075
837.58	23025
837.718	23140
837.856	22972
837.993	22995
838.131	22949
838.269	22877
838.406	22835
838.544	22809
838.681	22713
838.819	22793
838.956	22523
839.094	22561
839.231	22702
839.369	22790
839.506	22805
839.643	22683
839.781	22542
839.918	22531
840.055	22417
840.193	22569
840.33	22523
840.467	22554
840.604	22679
840.742	22641
840.879	22417
841.016	22478
841.153	22348
841.29	22687
841.427	22337
841.564	22504
841.701	22436
841.838	22428
841.975	22382
842.112	22440
842.249	22341
842.385	22352
842.522	22550
842.659	22367
842.796	22295
842.933	22253
843.069	22185
843.206	22162
843.343	22329
843.479	22287
843.616	22329
843.752	22013
843.889	22055
844.025	22051
844.162	21960
844.298	22021
844.435	21930
844.571	21941
844.708	22063
844.844	22196
844.98	22234
845.117	22135
845.253	21888
845.389	21770
845.525	21998
845.661	21915
845.798	21789
845.934	21766
846.07	21660
846.206	21736
846.342	21732
846.478	21667
846.614	21523
846.75	21462
846.886	21424
847.022	21610
847.158	21523
847.294	21473
847.429	21534
847.565	21515
847.701	21762
847.837	21237
847.972	21180
848.108	21378
848.244	21325
848.379	21047
848.515	21032
848.65	21119
848.786	21199
848.921	21051
849.057	21275
849.192	21226
849.328	21104
849.463	21108
849.598	21047
849.734	20849
849.869	20842
850.004	20815
850.14	20868
850.275	20906
850.41	20693
850.545	20758
850.68	20830
850.815	20880
850.95	20804
851.085	21028
851.22	20925
851.355	20762
851.49	20899
851.625	20785
851.76	20914
851.895	20739
852.03	20727
852.165	20792
852.299	20796
852.434	20910
852.569	20887
852.703	20823
852.838	20906
852.973	21020
853.107	20883
853.242	20845
853.376	20621
853.511	20609
853.645	20667
853.78	20674
853.914	20583
854.048	20716
854.183	20670
854.317	20712
854.451	20842
854.585	20632
854.72	20648
854.854	20857
854.988	20587
855.122	20598
855.256	20583
855.39	20648
855.524	20834
855.658	20720
855.792	20693
855.926	20659
856.06	20739
856.194	20834
856.327	20583
856.461	20674
856.595	20625
856.729	20648
856.862	20720
856.996	20731
857.13	20708
857.263	20792
857.397	20754
857.53	20678
857.664	20815
857.797	20727
857.931	20773
858.064	20727
858.197	20701
858.331	20609
858.464	20632
858.597	20476
858.731	20648
858.864	20701
858.997	20621
859.13	20594
859.263	20705
859.396	20701
859.529	20781
859.662	20537
859.795	20625
859.928	20678
860.061	20765
860.194	20777
860.327	20735
860.46	20674
860.592	20765
860.725	20899
860.858	20880
860.99	20670
861.123	20678
861.256	20522
861.388	20644
861.521	21351
861.653	20492
861.786	20568
861.918	20457
862.05	20488
862.183	20507
862.315	20530
862.447	20674
862.58	20651
862.712	20438
862.844	20423
862.976	20495
863.108	20427
863.24	20861
863.372	20385
863.504	20396
863.636	20237
863.768	20374
863.9	20351
864.032	20278
864.164	20339
864.296	20434
864.428	20442
864.559	20583
864.691	20404
864.823	20358
864.954	20400
865.086	20396
865.217	20358
865.349	20259
865.48	20233
865.612	20301
865.743	20450
865.875	20282
866.006	20237
866.137	20221
866.269	20362
866.4	20259
866.531	20161
866.662	20294
866.793	20263
866.924	20244
867.055	20286
867.186	20294
867.317	20210
867.448	20115
867.579	20202
867.71	20225
867.841	20195
867.972	20313
868.103	20233
868.233	20434
868.364	20206
868.495	20267
868.625	20362
868.756	20598
868.886	20332
869.017	20495
869.147	20583
869.278	20636
869.408	20636
869.539	20495
869.669	20488
869.799	20427
869.929	20545
870.06	20651
870.19	20830
870.32	20689
870.45	20731
870.58	20864
870.71	20963
870.84	20994
870.97	20811
871.1	20853
871.23	21024
871.36	21195
871.489	21055
871.619	21024
871.749	21116
871.879	21142
872.008	21226
872.138	21028
872.267	20963
872.397	20921
872.526	20842
872.656	20906
872.785	21005
872.915	21176
873.044	21096
873.173	21085
873.303	21146
873.432	21157
873.561	21180
873.69	21154
873.819	21203
873.948	21272
874.077	21066
874.206	21070
874.335	21116
874.464	21051
874.593	21287
874.722	21218
874.851	21420
874.979	21378
875.108	21382
875.237	21386
875.365	21291
875.494	21138
875.623	21370
875.751	21325
875.88	21378
876.008	21420
876.136	21515
876.265	21682
876.393	21899
876.521	21823
876.65	21808
876.778	21701
876.906	21660
877.034	21759
877.162	21660
877.29	21682
877.418	21618
877.546	21713
877.674	21751
877.802	21675
877.93	21633
878.058	21545
878.185	21545
878.313	21728
878.441	21698
878.568	21526
878.696	21709
878.824	21682
878.951	21694
879.079	21831
879.206	21922
879.333	21793
879.461	21694
879.588	21625
879.715	21808
879.842	21968
879.97	21789
880.097	21545
880.224	21561
880.351	21603
880.478	21515
880.605	21412
880.732	21545
880.859	21827
880.986	21523
881.112	21606
881.239	21462
881.366	21332
881.493	21089
881.619	21154
881.746	21108
881.872	21108
881.999	21119
882.125	21093
882.252	21066
882.378	21150
882.505	21294
882.631	21005
882.757	20796
882.883	21020
883.01	20792
883.136	20765
883.262	20670
883.388	20674
883.514	20800
883.64	20853
883.766	20743
883.892	20575
884.018	20689
884.143	20800
884.269	20720
884.395	20427
884.52	20442
884.646	20526
884.772	20568
884.897	20450
885.023	20507
885.148	20655
885.274	20670
885.399	20560
885.524	20522
885.65	20492
885.775	20473
885.9	20522
886.025	20705
886.15	20602
886.275	20495
886.4	20366
886.525	20434
886.65	20320
886.775	20427
886.9	20530
887.025	20670
887.149	20476
887.274	20244
887.399	20324
887.523	20183
887.648	20271
887.773	20187
887.897	20332
888.021	20267
888.146	20233
888.27	20278
888.395	20313
888.519	20343
888.643	20355
888.767	20317
888.891	20252
889.015	20069
889.139	20119
889.263	20130
889.387	20126
889.511	20400
889.635	20271
889.759	20046
889.883	20058
890.006	20031
890.13	20157
890.254	19974
890.377	20046
890.501	19845
890.624	19894
890.748	19833
890.871	19780
890.995	19628
891.118	19575
891.241	19712
891.364	19647
891.488	19647
891.611	19693
891.734	19590
891.857	19647
891.98	19655
892.103	19685
892.226	19696
892.349	19677
892.471	19407
892.594	19552
892.717	19616
892.839	19514
892.962	19529
893.085	19552
893.207	19483
893.33	19430
893.452	19518
893.575	19529
893.697	19506
893.819	19704
893.941	19685
894.064	19742
894.186	19578
894.308	19590
894.43	19670
894.552	19788
894.674	19628
894.796	19476
894.918	19464
895.04	19518
895.161	19624
895.283	19609
895.405	19601
895.526	19590
895.648	19590
895.769	19537
895.891	19582
896.012	19651
896.134	19578
896.255	19689
896.376	19499
896.498	19506
896.619	19632
896.74	19567
896.861	19620
896.982	19921
897.103	20069
897.224	19791
897.345	19871
897.466	19818
897.587	19837
897.708	20001
897.828	19841
897.949	19746
898.07	19712
898.19	19769
898.311	19822
898.431	19734
898.552	19925
898.672	19856
898.792	19940
898.913	19826
899.033	19609
899.153	19563
899.273	19419
899.393	19518
899.513	19586
899.633	19594
899.753	19601
899.873	19449
899.993	19514
900.113	19358
900.232	19529
900.352	19381
900.472	19320
900.591	19266
900.711	19236
900.83	19206
900.95	19384
901.069	19502
901.189	19137
901.308	18996
901.427	18897
901.546	18970
901.665	18973
901.784	18909
901.904	18745
902.023	18711
902.141	18418
902.26	18388
902.379	18528
902.498	18388
902.617	18422
902.735	18418
902.854	18467
902.973	18372
903.091	18114
903.21	18068
903.328	18205
903.446	18060
903.565	18079
903.683	17954
903.801	17756
903.919	17775
904.038	17954
904.156	17805
904.274	17756
904.392	17634
904.51	17722
904.627	17649
904.745	17779
904.863	17783
904.981	17509
905.098	17429
905.216	17471
905.334	17330
905.451	17376
905.569	17250
905.686	17383
905.803	17391
905.921	17250
906.038	17200
906.155	17162
906.272	17033
906.389	17052
906.506	16991
906.623	16869
906.74	16911
906.857	16908
906.974	16793
907.091	16934
907.208	17064
907.324	17056
907.441	16748
907.557	16672
907.674	16626
907.79	16687
907.907	16523
908.023	16584
908.139	16713
908.256	16577
908.372	16516
908.488	16542
908.604	16443
908.72	16367
908.836	16344
908.952	16352
909.068	16390
909.184	16508
909.3	16341
909.415	16314
909.531	16356
909.647	16169
909.762	16074
909.878	16006
909.993	16071
910.108	16040
910.224	16032
910.339	16006
910.454	15827
910.57	15865
910.685	15816
910.8	16162
910.915	16059
911.03	15918
911.145	15854
911.259	15747
911.374	15675
911.489	15614
911.604	15644
911.718	15439
911.833	15545
911.947	15382
912.062	15382
912.176	15610
912.291	15473
912.405	15504
912.519	15648
912.633	15682
912.748	15454
912.862	15397
912.976	15351
913.09	15119
913.204	15233
913.318	15218
913.431	15397
913.545	15370
913.659	15291
913.772	15218
913.886	15089
914	14994
914.113	15074
914.226	15112
914.34	15093
914.453	14918
914.566	15135
914.68	14921
914.793	14800
914.906	14670
915.019	14651
915.132	14560
915.245	14750
915.358	14735
915.47	14716
915.583	14617
915.696	14621
915.809	14845
915.921	14804
916.034	14610
916.146	14568
916.259	14583
916.371	14659
916.483	14560
916.595	14533
916.708	14587
916.82	14450
916.932	14370
917.044	14400
917.156	14499
917.268	14278
917.38	14385
917.491	14298
917.603	14408
917.715	14461
917.826	14484
917.938	14328
918.049	14183
918.161	14218
918.272	14427
918.384	14366
918.495	14267
918.606	14050
918.717	14001
918.828	14145
918.939	14161
919.05	14039
919.161	14054
919.272	13894
919.383	13955
919.494	14172
919.604	14309
919.715	14081
919.826	13989
919.936	13986
920.047	14107
920.157	14123
920.267	14221
920.378	14043
920.488	14077
920.598	14221
920.708	14317
920.818	14199
920.928	14168
921.038	14313
921.148	14427
921.258	14012
921.368	13906
921.477	13795
921.587	13845
921.697	13734
921.806	13761
921.916	13636
922.025	13521
922.134	13518
922.244	13506
922.353	13464
922.462	13419
922.571	13324
922.68	13175
922.789	13133
922.898	13061
923.007	13053
923.116	13149
923.224	13061
923.333	13103
923.442	12993
923.55	12951
923.659	13027
923.767	13050
923.876	12916
923.984	12951
924.092	12730
924.201	12928
924.309	12901
924.417	12920
924.525	12783
924.633	12817
924.741	13791
924.849	12673
924.956	12749
925.064	12642
925.172	12494
925.279	12570
925.387	12521
925.494	12604
925.602	12635
925.709	12585
925.816	12445
925.924	12532
926.031	12574
926.138	12574
926.245	12646
926.352	12456
926.459	12563
926.566	12494
926.673	12414
926.779	12361
926.886	12258
926.993	12194
927.099	12175
927.206	12155
927.312	12102
927.419	12220
927.525	12129
927.631	12102
927.737	11961
927.843	11977
927.95	11923
928.056	11927
928.162	12083
928.267	12053
928.373	12536
928.479	12007
928.585	11832
928.69	11889
928.796	11908
928.901	11843
929.007	11688
929.112	11790
929.218	11794
929.323	11775
929.428	11752
929.533	11752
929.638	11646
929.743	11634
929.848	11722
929.953	11646
930.058	11547
930.163	11353
930.267	11353
930.372	11516
930.477	11322
930.581	11592
930.685	11486
930.79	11216
930.894	11254
930.998	11307
931.103	11421
931.207	10984
931.311	10953
931.415	10873
931.519	10759
931.623	10664
