Data from test_V78500241_1723.txt Node
Date: Fri Mar 25 15:21:51 CST 2022
User: usil
Spectrometer: V785-0024
Trigger mode: 0
Integration Time (sec): 4.000000E-1
Scans to average: 1
Nonlinearity correction enabled: false
Boxcar width: 0
Storing dark spectrum: false
XAxis mode: Wavelengths
Number of Pixels in Spectrum: 1024
>>>>>Begin Spectral Data<<<<<
801.071	27717
801.214	27823
801.356	27591
801.499	27561
801.641	27245
801.783	27412
801.926	27450
802.068	27317
802.211	27332
802.353	27154
802.496	27058
802.638	27047
802.78	26925
802.923	26975
803.065	26967
803.208	26944
803.35	27036
803.492	27066
803.635	27173
803.777	27051
803.919	27161
804.061	27507
804.204	27397
804.346	27332
804.488	27062
804.63	27195
804.773	27138
804.915	27188
805.057	27348
805.199	27154
805.341	27386
805.483	27363
805.626	27211
805.768	27169
805.91	27329
806.052	27321
806.194	27344
806.336	27545
806.478	27302
806.62	27450
806.762	27336
806.904	27610
807.046	27842
807.188	27732
807.33	27720
807.472	27789
807.614	27717
807.756	27671
807.898	27656
808.04	27500
808.182	27507
808.324	27633
808.465	27690
808.607	27846
808.749	27918
808.891	28070
809.033	28063
809.174	27991
809.316	27937
809.458	27937
809.6	27899
809.741	27937
809.883	28128
810.025	28303
810.166	28318
810.308	28185
810.45	28158
810.591	28124
810.733	27918
810.875	27937
811.016	27793
811.158	27884
811.299	28029
811.441	28211
811.582	28090
811.724	27918
811.865	27911
812.007	27930
812.148	27835
812.29	27956
812.431	28200
812.573	28276
812.714	28291
812.855	28451
812.997	28660
813.138	28736
813.279	28504
813.421	28580
813.562	28375
813.703	28440
813.845	28204
813.986	27895
814.127	27724
814.268	27732
814.41	27732
814.551	27557
814.692	27595
814.833	27595
814.974	27690
815.115	27743
815.256	27507
815.397	27542
815.539	27538
815.68	27458
815.821	27329
815.962	27473
816.103	27401
816.244	27447
816.385	27313
816.526	27370
816.666	27074
816.807	26899
816.948	26975
817.089	27074
817.23	26887
817.371	26998
817.512	26910
817.653	26933
817.793	26937
817.934	26975
818.075	27173
818.216	26933
818.356	26895
818.497	26887
818.638	26560
818.778	26689
818.919	26758
819.06	26640
819.2	26830
819.341	26899
819.481	26982
819.622	27127
819.762	27135
819.903	27211
820.043	27203
820.184	27024
820.324	26975
820.465	27272
820.605	27013
820.746	27051
820.886	26872
821.026	26910
821.167	27032
821.307	27165
821.447	27013
821.588	26750
821.728	26727
821.868	26636
822.008	26583
822.149	26408
822.289	26522
822.429	26134
822.569	25989
822.709	26119
822.849	25955
822.99	25932
823.13	25791
823.27	25940
823.41	25704
823.55	25689
823.69	25734
823.83	25738
823.97	25677
824.11	25510
824.25	25674
824.389	25578
824.529	25746
824.669	25575
824.809	25620
824.949	25693
825.089	25616
825.228	25666
825.368	25354
825.508	25518
825.648	25384
825.787	25422
825.927	25460
826.067	25354
826.206	25312
826.346	25411
826.485	25613
826.625	25274
826.765	25464
826.904	25438
827.044	25187
827.183	25107
827.323	25080
827.462	25278
827.601	25099
827.741	25095
827.88	25091
828.02	25107
828.159	25084
828.298	25240
828.437	25244
828.577	25053
828.716	25118
828.855	25099
828.994	24829
829.134	24966
829.273	24916
829.412	24875
829.551	24897
829.69	24901
829.829	24913
829.968	24890
830.107	24829
830.246	24894
830.385	24722
830.524	24882
830.663	24639
830.802	24559
830.941	24494
831.08	24479
831.219	24593
831.357	24555
831.496	24574
831.635	24517
831.774	24365
831.913	24433
832.051	24429
832.19	24327
832.329	24292
832.467	24163
832.606	24171
832.744	24117
832.883	24201
833.022	24022
833.16	24148
833.299	24296
833.437	24194
833.576	24270
833.714	24144
833.852	24350
833.991	24414
834.129	24209
834.267	24300
834.406	24205
834.544	24197
834.682	24201
834.821	24148
834.959	24357
835.097	24285
835.235	24201
835.373	24155
835.511	24247
835.65	24171
835.788	24159
835.926	23946
836.064	23920
836.202	23828
836.34	24022
836.478	24171
836.615	24171
836.753	23996
836.891	24083
837.029	24045
837.167	23999
837.305	23889
837.443	23920
837.58	23889
837.718	23908
837.856	23882
837.993	23882
838.131	23977
838.269	23771
838.406	23752
838.544	23714
838.681	23615
838.819	23589
838.956	23436
839.094	23311
839.231	23398
839.369	23611
839.506	23764
839.643	23729
839.781	23322
839.918	23292
840.055	23364
840.193	23356
840.33	23280
840.467	23292
840.604	23170
840.742	23573
840.879	23079
841.016	23140
841.153	23223
841.29	23459
841.427	23311
841.564	23383
841.701	23296
841.838	23216
841.975	23174
842.112	23265
842.249	23033
842.385	23010
842.522	23299
842.659	23029
842.796	23041
842.933	22885
843.069	22980
843.206	23121
843.343	23208
843.479	23071
843.616	23098
843.752	22980
843.889	22733
844.025	23010
844.162	22725
844.298	22866
844.435	22733
844.571	22721
844.708	22854
844.844	23079
844.98	22934
845.117	23010
845.253	22805
845.389	22653
845.525	22664
845.661	22626
845.798	22531
845.934	22668
846.07	22500
846.206	22611
846.342	22675
846.478	22607
846.614	22405
846.75	22253
846.886	22257
847.022	22246
847.158	22333
847.294	22375
847.429	22287
847.565	22249
847.701	22447
847.837	22059
847.972	22029
848.108	22124
848.244	22067
848.379	21865
848.515	21892
848.65	21835
848.786	21991
848.921	21930
849.057	21911
849.192	22010
849.328	21797
849.463	21895
849.598	21861
849.734	21888
849.869	21637
850.004	21644
850.14	21724
850.275	21709
850.41	21606
850.545	21671
850.68	21751
850.815	21743
850.95	21778
851.085	21709
851.22	21819
851.355	21728
851.49	21682
851.625	21705
851.76	21739
851.895	21557
852.03	21534
852.165	21530
852.299	21667
852.434	21717
852.569	21785
852.703	21568
852.838	21679
852.973	21880
853.107	21682
853.242	21633
853.376	21492
853.511	21355
853.645	21454
853.78	21496
853.914	21488
854.048	21397
854.183	21431
854.317	21370
854.451	21641
854.585	21496
854.72	21473
854.854	21603
854.988	21389
855.122	21485
855.256	21344
855.39	21382
855.524	21542
855.658	21488
855.792	21507
855.926	21526
856.06	21606
856.194	21542
856.327	21458
856.461	21291
856.595	21492
856.729	21450
856.862	21492
856.996	21553
857.13	21523
857.263	21507
857.397	21576
857.53	21378
857.664	21492
857.797	21591
857.931	21564
858.064	21523
858.197	21656
858.331	21382
858.464	21439
858.597	21397
858.731	21492
858.864	21412
858.997	21359
859.13	21488
859.263	21469
859.396	21564
859.529	21416
859.662	21382
859.795	21443
859.928	21401
860.061	21492
860.194	21542
860.327	21534
860.46	21587
860.592	21644
860.725	21606
860.858	21728
860.99	21439
861.123	21351
861.256	21416
861.388	21439
861.521	22135
861.653	21321
861.786	21173
861.918	21294
862.05	21264
862.183	21317
862.315	21412
862.447	21428
862.58	21443
862.712	21146
862.844	21260
862.976	21180
863.108	21142
863.24	21660
863.372	21176
863.504	21108
863.636	21249
863.768	21272
863.9	21085
864.032	21055
864.164	21062
864.296	21226
864.428	21283
864.559	21256
864.691	21344
864.823	21100
864.954	21245
865.086	21142
865.217	21089
865.349	20899
865.48	21017
865.612	21085
865.743	21157
865.875	21001
866.006	21074
866.137	21081
866.269	21020
866.4	21043
866.531	21062
866.662	21017
866.793	20967
866.924	20998
867.055	21028
867.186	21062
867.317	20914
867.448	20906
867.579	21009
867.71	20925
867.841	20944
867.972	20902
868.103	21108
868.233	20941
868.364	20902
868.495	21070
868.625	21230
868.756	21283
868.886	21249
869.017	21283
869.147	21424
869.278	21439
869.408	21173
869.539	21176
869.669	21332
869.799	21237
869.929	21420
870.06	21325
870.19	21500
870.32	21488
870.45	21511
870.58	21614
870.71	21732
870.84	21599
870.97	21675
871.1	21778
871.23	21770
871.36	21770
871.489	21759
871.619	21732
871.749	21823
871.879	21747
872.008	21808
872.138	21835
872.267	21778
872.397	21739
872.526	21606
872.656	21622
872.785	21656
872.915	21682
873.044	21930
873.173	21869
873.303	21926
873.432	21884
873.561	21987
873.69	21968
873.819	21876
873.948	21968
874.077	21975
874.206	21899
874.335	21865
874.464	21968
874.593	22154
874.722	22090
874.851	22055
874.979	22147
875.108	22154
875.237	22135
875.365	21865
875.494	22051
875.623	22135
875.751	22093
875.88	22086
876.008	22268
876.136	22371
876.265	22557
876.393	22645
876.521	22538
876.65	22653
876.778	22569
876.906	22363
877.034	22322
877.162	22485
877.29	22512
877.418	22508
877.546	22531
877.674	22504
877.802	22440
877.93	22413
878.058	22352
878.185	22257
878.313	22379
878.441	22516
878.568	22234
878.696	22497
878.824	22443
878.951	22527
879.079	22691
879.206	22729
879.333	22592
879.461	22478
879.588	22462
879.715	22725
879.842	22752
879.97	22599
880.097	22337
880.224	22211
880.351	22348
880.478	22386
880.605	22261
880.732	22261
880.859	22596
880.986	22303
881.112	22386
881.239	22128
881.366	21991
881.493	21979
881.619	21732
881.746	21797
881.872	21873
881.999	21846
882.125	21785
882.252	21857
882.378	21812
882.505	22017
882.631	21766
882.757	21629
882.883	21637
883.01	21515
883.136	21481
883.262	21447
883.388	21310
883.514	21466
883.64	21622
883.766	21389
883.892	21351
884.018	21252
884.143	21458
884.269	21561
884.395	21226
884.52	21180
884.646	21192
884.772	21150
884.897	21146
885.023	21272
885.148	21268
885.274	21325
885.399	21173
885.524	21302
885.65	21306
885.775	21211
885.9	21116
886.025	21245
886.15	21317
886.275	21096
886.4	21150
886.525	21116
886.65	21055
886.775	21074
886.9	21264
887.025	21275
887.149	21142
887.274	21062
887.399	20967
887.523	20868
887.648	20864
887.773	20796
887.897	20967
888.021	21001
888.146	20925
888.27	21161
888.395	20944
888.519	20963
888.643	20944
888.767	21017
888.891	20899
889.015	20686
889.139	20830
889.263	20724
889.387	20887
889.511	20899
889.635	20830
889.759	20720
889.883	20762
890.006	20651
890.13	20830
890.254	20655
890.377	20716
890.501	20518
890.624	20469
890.748	20507
890.871	20446
890.995	20244
891.118	20180
891.241	20328
891.364	20328
891.488	20499
891.611	20252
891.734	20305
891.857	20313
891.98	20370
892.103	20240
892.226	20301
892.349	20282
892.471	20088
892.594	20317
892.717	20339
892.839	20187
892.962	20157
893.085	20259
893.207	20161
893.33	20054
893.452	20157
893.575	20252
893.697	20244
893.819	20408
893.941	20431
894.064	20313
894.186	20096
894.308	20107
894.43	20393
894.552	20385
894.674	20332
894.796	20035
894.918	20164
895.04	20233
895.161	20282
895.283	20240
895.405	20180
895.526	20298
895.648	20115
895.769	20267
895.891	20259
896.012	20358
896.134	20286
896.255	20176
896.376	20191
896.498	20195
896.619	20187
896.74	20282
896.861	20332
896.982	20507
897.103	20640
897.224	20492
897.345	20461
897.466	20389
897.587	20457
897.708	20648
897.828	20541
897.949	20317
898.07	20252
898.19	20351
898.311	20499
898.431	20396
898.552	20461
898.672	20488
898.792	20484
898.913	20438
899.033	20301
899.153	20317
899.273	20172
899.393	20119
899.513	20256
899.633	20218
899.753	20149
899.873	20206
899.993	20031
900.113	20103
900.232	20020
900.352	20092
900.472	20130
900.591	19906
900.711	19974
900.83	19913
900.95	19986
901.069	20088
901.189	19795
901.308	19586
901.427	19491
901.546	19502
901.665	19601
901.784	19544
901.904	19373
902.023	19335
902.141	19152
902.26	19069
902.379	19114
902.498	19050
902.617	19015
902.735	19061
902.854	18928
902.973	18951
903.091	18764
903.21	18601
903.328	18627
903.446	18589
903.565	18574
903.683	18601
903.801	18403
903.919	18498
904.038	18525
904.156	18281
904.274	18391
904.392	18281
904.51	18209
904.627	18270
904.745	18353
904.863	18308
904.981	18133
905.098	17927
905.216	17935
905.334	18026
905.451	18079
905.569	17923
905.686	17923
905.803	18011
905.921	17737
906.038	17912
906.155	17851
906.272	17714
906.389	17577
906.506	17573
906.623	17512
906.74	17551
906.857	17406
906.974	17444
907.091	17539
907.208	17619
907.324	17524
907.441	17414
907.557	17155
907.674	17277
907.79	17147
907.907	17170
908.023	17212
908.139	17284
908.256	17132
908.372	17045
908.488	17212
908.604	17006
908.72	16869
908.836	16900
908.952	16961
909.068	16965
909.184	17010
909.3	16839
909.415	16953
909.531	16908
909.647	16660
909.762	16626
909.878	16573
909.993	16771
910.108	16596
910.224	16626
910.339	16672
910.454	16615
910.57	16421
910.685	16382
910.8	16641
910.915	16512
911.03	16386
911.145	16360
911.259	16276
911.374	16143
911.489	16200
911.604	16120
911.718	15991
911.833	15991
911.947	15922
912.062	15827
912.176	15854
912.291	15987
912.405	15979
912.519	16097
912.633	16097
912.748	16013
912.862	15934
912.976	15755
913.09	15641
913.204	15717
913.318	15789
913.431	15888
913.545	15850
913.659	15892
913.772	15705
913.886	15576
914	15523
914.113	15698
914.226	15694
914.34	15644
914.453	15466
914.566	15690
914.68	15458
914.793	15428
914.906	15329
915.019	15180
915.132	15100
915.245	15214
915.358	15184
915.47	15146
915.583	15169
915.696	15093
915.809	15291
915.921	15272
916.034	15131
916.146	15116
916.259	15100
916.371	15203
916.483	15085
916.595	15047
916.708	15062
916.82	15051
916.932	15062
917.044	15081
917.156	15028
917.268	14925
917.38	14872
917.491	14933
917.603	14781
917.715	14967
917.826	14929
917.938	14739
918.049	14727
918.161	14796
918.272	14887
918.384	14902
918.495	14762
918.606	14629
918.717	14533
918.828	14610
918.939	14689
919.05	14476
919.161	14594
919.272	14389
919.383	14476
919.494	14560
919.604	14735
919.715	14606
919.826	14564
919.936	14571
920.047	14720
920.157	14537
920.267	14815
920.378	14545
920.488	14587
920.598	14663
920.708	14868
920.818	14629
920.928	14610
921.038	14819
921.148	14708
921.258	14488
921.368	14393
921.477	14336
921.587	14294
921.697	14123
921.806	14275
921.916	14183
922.025	13944
922.134	14012
922.244	13849
922.353	13974
922.462	13788
922.571	13719
922.68	13563
922.789	13540
922.898	13601
923.007	13563
923.116	13567
923.224	13601
923.333	13540
923.442	13472
923.55	13381
923.659	13472
923.767	13510
923.876	13266
923.984	13468
924.092	13293
924.201	13320
924.309	13308
924.417	13331
924.525	13301
924.633	13244
924.741	13978
924.849	13042
924.956	13145
925.064	13110
925.172	12882
925.279	12901
925.387	13053
925.494	12916
925.602	13149
925.709	13061
925.816	12932
925.924	12932
926.031	13023
926.138	12863
926.245	12947
926.352	12772
926.459	12905
926.566	12958
926.673	12779
926.779	12806
926.886	12684
926.993	12597
927.099	12483
927.206	12471
927.312	12494
927.419	12597
927.525	12551
927.631	12563
927.737	12460
927.843	12399
927.95	12334
928.056	12327
928.162	12456
928.267	12418
928.373	13031
928.479	12464
928.585	12152
928.69	12308
928.796	12365
928.901	12235
929.007	12041
929.112	12194
929.218	12155
929.323	12049
929.428	12079
929.533	12224
929.638	12106
929.743	12083
929.848	12087
929.953	12026
930.058	11935
930.163	11760
930.267	11741
930.372	11889
930.477	11718
930.581	11878
930.685	11813
930.79	11699
930.894	11676
930.998	11520
931.103	11771
931.207	11398
931.311	11425
931.415	11231
931.519	11033
931.623	11025
