Data from test_V78500241_3261.txt Node
Date: Fri Mar 25 15:32:34 CST 2022
User: usil
Spectrometer: V785-0024
Trigger mode: 0
Integration Time (sec): 4.000000E-1
Scans to average: 1
Nonlinearity correction enabled: false
Boxcar width: 0
Storing dark spectrum: false
XAxis mode: Wavelengths
Number of Pixels in Spectrum: 1024
>>>>>Begin Spectral Data<<<<<
801.071	27298
801.214	27241
801.356	27112
801.499	27039
801.641	26906
801.783	26792
801.926	26868
802.068	26845
802.211	26921
802.353	26861
802.496	26552
802.638	26549
802.78	26511
802.923	26419
803.065	26431
803.208	26377
803.35	26431
803.492	26686
803.635	26629
803.777	26511
803.919	26640
804.061	26948
804.204	26590
804.346	26651
804.488	26541
804.63	26686
804.773	26644
804.915	26613
805.057	26746
805.199	26617
805.341	26716
805.483	26804
805.626	26720
805.768	26792
805.91	26853
806.052	26682
806.194	26678
806.336	26956
806.478	26701
806.62	26731
806.762	26845
806.904	27074
807.046	27279
807.188	27237
807.33	27245
807.472	27245
807.614	27058
807.756	27093
807.898	27043
808.04	27039
808.182	26986
808.324	27066
808.465	27047
808.607	27336
808.749	27386
808.891	27294
809.033	27462
809.174	27485
809.316	27382
809.458	27313
809.6	27275
809.741	27306
809.883	27606
810.025	27625
810.166	27644
810.308	27618
810.45	27538
810.591	27648
810.733	27355
810.875	27291
811.016	27245
811.158	27237
811.299	27466
811.441	27553
811.582	27610
811.724	27416
811.865	27427
812.007	27252
812.148	27393
812.29	27408
812.431	27443
812.573	27720
812.714	27701
812.855	27781
812.997	27922
813.138	28238
813.279	28017
813.421	28029
813.562	27747
813.703	27827
813.845	27580
813.986	27279
814.127	26994
814.268	27169
814.41	27058
814.551	27039
814.692	27032
814.833	27047
814.974	26963
815.115	27047
815.256	26883
815.397	26823
815.539	26727
815.68	26682
815.821	26765
815.962	26716
816.103	26727
816.244	26648
816.385	26564
816.526	26564
816.666	26446
816.807	26161
816.948	26248
817.089	26419
817.23	26218
817.371	26320
817.512	26290
817.653	26229
817.793	26180
817.934	26206
818.075	26442
818.216	26294
818.356	26286
818.497	26107
818.638	25925
818.778	26024
818.919	26058
819.06	26111
819.2	26180
819.341	26317
819.481	26298
819.622	26393
819.762	26609
819.903	26457
820.043	26438
820.184	26351
820.324	26446
820.465	26465
820.605	26469
820.746	26431
820.886	26229
821.026	26225
821.167	26259
821.307	26457
821.447	26278
821.588	26271
821.728	26058
821.868	25932
822.008	25852
822.149	25932
822.289	25811
822.429	25499
822.569	25392
822.709	25499
822.849	25221
822.99	25202
823.13	25114
823.27	25137
823.41	25050
823.55	24859
823.69	25107
823.83	25110
823.97	25103
824.11	24856
824.25	24924
824.389	24806
824.529	24886
824.669	24878
824.809	25114
824.949	24920
825.089	25080
825.228	25034
825.368	24776
825.508	24829
825.648	24859
825.787	24757
825.927	24810
826.067	24776
826.206	24837
826.346	24844
826.485	24939
826.625	24776
826.765	24867
826.904	24844
827.044	24658
827.183	24563
827.323	24509
827.462	24505
827.601	24566
827.741	24410
827.88	24608
828.02	24365
828.159	24460
828.298	24505
828.437	24566
828.577	24418
828.716	24521
828.855	24365
828.994	24289
829.134	24190
829.273	24289
829.412	24346
829.551	24129
829.69	24243
829.829	24228
829.968	24205
830.107	24266
830.246	24209
830.385	24140
830.524	24133
830.663	23904
830.802	23980
830.941	23805
831.08	23802
831.219	23927
831.357	23912
831.496	24091
831.635	23813
831.774	23707
831.913	23665
832.051	23646
832.19	23722
832.329	23646
832.467	23562
832.606	23509
832.744	23562
832.883	23531
833.022	23440
833.16	23547
833.299	23436
833.437	23547
833.576	23615
833.714	23657
833.852	23657
833.991	23611
834.129	23707
834.267	23824
834.406	23509
834.544	23505
834.682	23573
834.821	23505
834.959	23748
835.097	23562
835.235	23627
835.373	23585
835.511	23592
835.65	23448
835.788	23368
835.926	23372
836.064	23113
836.202	23315
836.34	23471
836.478	23444
836.615	23337
836.753	23486
836.891	23478
837.029	23398
837.167	23368
837.305	23421
837.443	23326
837.58	23250
837.718	23292
837.856	23341
837.993	23220
838.131	23299
838.269	23231
838.406	23254
838.544	23124
838.681	22847
838.819	22908
838.956	22782
839.094	22755
839.231	22900
839.369	22980
839.506	23132
839.643	22957
839.781	22820
839.918	22675
840.055	22790
840.193	22660
840.33	22603
840.467	22717
840.604	22755
840.742	22927
840.879	22592
841.016	22538
841.153	22451
841.29	22698
841.427	22729
841.564	22710
841.701	22786
841.838	22797
841.975	22592
842.112	22580
842.249	22550
842.385	22489
842.522	22698
842.659	22546
842.796	22424
842.933	22405
843.069	22436
843.206	22295
843.343	22497
843.479	22352
843.616	22428
843.752	22318
843.889	22257
844.025	22428
844.162	22306
844.298	22230
844.435	22249
844.571	22135
844.708	22299
844.844	22413
844.98	22280
845.117	22295
845.253	22158
845.389	22116
845.525	22120
845.661	22207
845.798	21937
845.934	22002
846.07	21899
846.206	21987
846.342	22021
846.478	22036
846.614	21823
846.75	21682
846.886	21747
847.022	21724
847.158	21743
847.294	21690
847.429	21838
847.565	21789
847.701	21869
847.837	21435
847.972	21466
848.108	21519
848.244	21420
848.379	21367
848.515	21173
848.65	21066
848.786	21287
848.921	21310
849.057	21401
849.192	21473
849.328	21389
849.463	21260
849.598	21245
849.734	21226
849.869	21100
850.004	21001
850.14	20986
850.275	20994
850.41	21039
850.545	21127
850.68	21028
850.815	21214
850.95	20979
851.085	21245
851.22	21096
851.355	20891
851.49	21013
851.625	21017
851.76	20971
851.895	20967
852.03	20872
852.165	21036
852.299	21089
852.434	21028
852.569	21047
852.703	21085
852.838	21192
852.973	21245
853.107	21131
853.242	21066
853.376	20819
853.511	20724
853.645	20941
853.78	20925
853.914	20941
854.048	20754
854.183	20796
854.317	20853
854.451	20914
854.585	20804
854.72	20842
854.854	20986
854.988	20804
855.122	20834
855.256	20800
855.39	20880
855.524	20971
855.658	20899
855.792	20906
855.926	20948
856.06	20918
856.194	20823
856.327	20864
856.461	20708
856.595	20899
856.729	20967
856.862	20975
856.996	20948
857.13	20982
857.263	21017
857.397	20891
857.53	20891
857.664	20967
857.797	20800
857.931	20994
858.064	20910
858.197	20933
858.331	20842
858.464	20758
858.597	20682
858.731	20857
858.864	20883
858.997	20754
859.13	20891
859.263	20883
859.396	21009
859.529	20880
859.662	20838
859.795	20823
859.928	20811
860.061	21081
860.194	21058
860.327	20902
860.46	20834
860.592	21005
860.725	21066
860.858	20944
860.99	20910
861.123	20769
861.256	20769
861.388	20887
861.521	21431
861.653	20724
861.786	20651
861.918	20632
862.05	20769
862.183	20815
862.315	20773
862.447	20925
862.58	20792
862.712	20625
862.844	20514
862.976	20773
863.108	20602
863.24	21096
863.372	20568
863.504	20598
863.636	20541
863.768	20678
863.9	20613
864.032	20484
864.164	20583
864.296	20689
864.428	20636
864.559	20564
864.691	20667
864.823	20549
864.954	20495
865.086	20537
865.217	20545
865.349	20324
865.48	20427
865.612	20431
865.743	20613
865.875	20549
866.006	20469
866.137	20568
866.269	20476
866.4	20560
866.531	20495
866.662	20389
866.793	20530
866.924	20488
867.055	20526
867.186	20415
867.317	20377
867.448	20305
867.579	20434
867.71	20358
867.841	20457
867.972	20362
868.103	20400
868.233	20358
868.364	20396
868.495	20564
868.625	20682
868.756	20785
868.886	20556
869.017	20602
869.147	20769
869.278	20815
869.408	20754
869.539	20701
869.669	20754
869.799	20697
869.929	20899
870.06	20754
870.19	21001
870.32	20937
870.45	21051
870.58	21112
870.71	21226
870.84	21252
870.97	21085
871.1	21222
871.23	21230
871.36	21287
871.489	21165
871.619	21211
871.749	21325
871.879	21317
872.008	21386
872.138	21222
872.267	21138
872.397	21207
872.526	21066
872.656	21165
872.785	21062
872.915	21298
873.044	21397
873.173	21298
873.303	21298
873.432	21283
873.561	21389
873.69	21370
873.819	21252
873.948	21317
874.077	21359
874.206	21089
874.335	21359
874.464	21511
874.593	21435
874.722	21435
874.851	21405
874.979	21648
875.108	21591
875.237	21454
875.365	21431
875.494	21538
875.623	21641
875.751	21469
875.88	21629
876.008	21717
876.136	21778
876.265	21964
876.393	22188
876.521	22040
876.65	22067
876.778	21911
876.906	21949
877.034	21854
877.162	22002
877.29	21911
877.418	21956
877.546	21945
877.674	21953
877.802	21911
877.93	21838
878.058	21880
878.185	21823
878.313	21888
878.441	21979
878.568	21789
878.696	21823
878.824	21850
878.951	22090
879.079	21998
879.206	22116
879.333	22021
879.461	21842
879.588	22029
879.715	22051
879.842	22265
879.97	21941
880.097	21728
880.224	21766
880.351	21812
880.478	21728
880.605	21652
880.732	21667
880.859	22051
880.986	21698
881.112	21713
881.239	21572
881.366	21492
881.493	21397
881.619	21291
881.746	21302
881.872	21378
881.999	21344
882.125	21188
882.252	21298
882.378	21412
882.505	21325
882.631	21142
882.757	20982
882.883	21032
883.01	21032
883.136	20960
883.262	20834
883.388	20902
883.514	20937
883.64	21062
883.766	20876
883.892	20731
884.018	20849
884.143	20963
884.269	21173
884.395	20765
884.52	20735
884.646	20727
884.772	20522
884.897	20476
885.023	20743
885.148	20686
885.274	20762
885.399	20716
885.524	20674
885.65	20724
885.775	20640
885.9	20682
886.025	20815
886.15	20781
886.275	20511
886.4	20632
886.525	20590
886.65	20545
886.775	20659
886.9	20613
887.025	20876
887.149	20594
887.274	20507
887.399	20454
887.523	20355
887.648	20400
887.773	20328
887.897	20556
888.021	20385
888.146	20298
888.27	20484
888.395	20454
888.519	20366
888.643	20408
888.767	20473
888.891	20366
889.015	20328
889.139	20396
889.263	20221
889.387	20294
889.511	20408
889.635	20389
889.759	20263
889.883	20229
890.006	20298
890.13	20332
890.254	20142
890.377	20149
890.501	19997
890.624	19925
890.748	20039
890.871	19875
890.995	19826
891.118	19757
891.241	19826
891.364	19887
891.488	19944
891.611	19909
891.734	19727
891.857	19811
891.98	19803
892.103	19723
892.226	19849
892.349	19769
892.471	19567
892.594	19677
892.717	19795
892.839	19658
892.962	19639
893.085	19814
893.207	19662
893.33	19719
893.452	19605
893.575	19765
893.697	19753
893.819	19970
893.941	19898
894.064	19811
894.186	19670
894.308	19571
894.43	19765
894.552	19791
894.674	19780
894.796	19628
894.918	19643
895.04	19590
895.161	19746
895.283	19761
895.405	19616
895.526	19712
895.648	19620
895.769	19704
895.891	19674
896.012	19734
896.134	19772
896.255	19731
896.376	19582
896.498	19670
896.619	19704
896.74	19616
896.861	19643
896.982	19936
897.103	20134
897.224	20020
897.345	19955
897.466	19811
897.587	19993
897.708	20077
897.828	20035
897.949	19868
898.07	19753
898.19	19772
898.311	19932
898.431	19890
898.552	19890
898.672	19970
898.792	19936
898.913	19997
899.033	19852
899.153	19693
899.273	19685
899.393	19746
899.513	19719
899.633	19769
899.753	19822
899.873	19677
899.993	19693
900.113	19609
900.232	19658
900.352	19571
900.472	19613
900.591	19392
900.711	19460
900.83	19377
900.95	19662
901.069	19502
901.189	19293
901.308	19110
901.427	19069
901.546	19072
901.665	19019
901.784	19038
901.904	18932
902.023	18821
902.141	18673
902.26	18726
902.379	18654
902.498	18521
902.617	18604
902.735	18574
902.854	18517
902.973	18498
903.091	18228
903.21	18273
903.328	18205
903.446	18155
903.565	18140
903.683	18152
903.801	17923
903.919	17931
904.038	17958
904.156	17813
904.274	17874
904.392	17779
904.51	17805
904.627	17718
904.745	17878
904.863	17813
904.981	17672
905.098	17463
905.216	17512
905.334	17570
905.451	17528
905.569	17543
905.686	17573
905.803	17383
905.921	17242
906.038	17341
906.155	17296
906.272	17143
906.389	17170
906.506	17052
906.623	17117
906.74	16976
906.857	16949
906.974	16965
907.091	17060
907.208	17159
907.324	17010
907.441	16942
907.557	16824
907.674	16691
907.79	16649
907.907	16698
908.023	16782
908.139	16752
908.256	16698
908.372	16694
908.488	16573
908.604	16527
908.72	16405
908.836	16538
908.952	16459
909.068	16481
909.184	16607
909.3	16424
909.415	16550
909.531	16390
909.647	16337
909.762	16135
909.878	16139
909.993	16147
910.108	16124
910.224	16204
910.339	16185
910.454	16147
910.57	16055
910.685	15945
910.8	16223
910.915	16131
911.03	15899
911.145	15831
911.259	15797
911.374	15762
911.489	15812
911.604	15641
911.718	15595
911.833	15492
911.947	15466
912.062	15492
912.176	15580
912.291	15580
912.405	15553
912.519	15671
912.633	15819
912.748	15682
912.862	15492
912.976	15382
913.09	15249
913.204	15340
913.318	15355
913.431	15530
913.545	15443
913.659	15393
913.772	15367
913.886	15336
914	15169
914.113	15272
914.226	15340
914.34	15317
914.453	15077
914.566	15241
914.68	14925
914.793	15009
914.906	14815
915.019	14800
915.132	14705
915.245	14857
915.358	14819
915.47	14899
915.583	14785
915.696	14800
915.809	14880
915.921	14937
916.034	14716
916.146	14632
916.259	14533
916.371	14743
916.483	14800
916.595	14621
916.708	14651
916.82	14617
916.932	14610
917.044	14613
917.156	14610
917.268	14438
917.38	14621
917.491	14530
917.603	14488
917.715	14545
917.826	14537
917.938	14366
918.049	14259
918.161	14412
918.272	14431
918.384	14473
918.495	14438
918.606	14191
918.717	14210
918.828	14244
918.939	14237
919.05	14062
919.161	14248
919.272	13993
919.383	14084
919.494	14233
919.604	14377
919.715	14210
919.826	14145
919.936	14195
920.047	14263
920.157	14191
920.267	14343
920.378	14214
920.488	14138
920.598	14355
920.708	14431
920.818	14317
920.928	14332
921.038	14514
921.148	14415
921.258	14062
921.368	13944
921.477	13967
921.587	13909
921.697	13871
921.806	13989
921.916	13818
922.025	13708
922.134	13628
922.244	13514
922.353	13696
922.462	13396
922.571	13434
922.68	13301
922.789	13171
922.898	13324
923.007	13137
923.116	13236
923.224	13247
923.333	13266
923.442	13012
923.55	13091
923.659	13152
923.767	13156
923.876	13072
923.984	13034
924.092	12962
924.201	13000
924.309	13023
924.417	12985
924.525	12924
924.633	12928
924.741	13845
924.849	12757
924.956	12913
925.064	12711
925.172	12642
925.279	12612
925.387	12654
925.494	12604
925.602	12802
925.709	12700
925.816	12578
925.924	12631
926.031	12730
926.138	12555
926.245	12665
926.352	12498
926.459	12658
926.566	12616
926.673	12574
926.779	12426
926.886	12410
926.993	12144
927.099	12148
927.206	12194
927.312	12152
927.419	12209
927.525	12194
927.631	12285
927.737	12117
927.843	12121
927.95	11977
928.056	12022
928.162	12038
928.267	12102
928.373	12734
928.479	12091
928.585	11855
928.69	11999
928.796	12068
928.901	12015
929.007	11764
929.112	11965
929.218	11824
929.323	11836
929.428	11836
929.533	11866
929.638	11767
929.743	11775
929.848	11714
929.953	11752
930.058	11729
930.163	11493
930.267	11482
930.372	11619
930.477	11444
930.581	11627
930.685	11520
930.79	11337
930.894	11463
930.998	11372
931.103	11570
931.207	11109
931.311	11029
931.415	10991
931.519	10679
931.623	10679
