Data from test_V78500241_1907.txt Node
Date: Fri Mar 25 15:23:08 CST 2022
User: usil
Spectrometer: V785-0024
Trigger mode: 0
Integration Time (sec): 4.000000E-1
Scans to average: 1
Nonlinearity correction enabled: false
Boxcar width: 0
Storing dark spectrum: false
XAxis mode: Wavelengths
Number of Pixels in Spectrum: 1024
>>>>>Begin Spectral Data<<<<<
801.071	27264
801.214	27268
801.356	26876
801.499	26785
801.641	26807
801.783	26788
801.926	26826
802.068	26792
802.211	26636
802.353	26609
802.496	26434
802.638	26453
802.78	26419
802.923	26282
803.065	26347
803.208	26218
803.35	26374
803.492	26488
803.635	26632
803.777	26560
803.919	26518
804.061	26914
804.204	26731
804.346	26495
804.488	26606
804.63	26648
804.773	26492
804.915	26609
805.057	26739
805.199	26480
805.341	26537
805.483	26670
805.626	26750
805.768	26621
805.91	26541
806.052	26587
806.194	26678
806.336	26891
806.478	26712
806.62	26670
806.762	26815
806.904	26792
807.046	27211
807.188	27173
807.33	27264
807.472	27176
807.614	26979
807.756	27066
807.898	26910
808.04	26998
808.182	26788
808.324	27047
808.465	27028
808.607	27093
808.749	27279
808.891	27507
809.033	27389
809.174	27359
809.316	27275
809.458	27264
809.6	27321
809.741	27359
809.883	27374
810.025	27454
810.166	27538
810.308	27564
810.45	27523
810.591	27530
810.733	27389
810.875	27245
811.016	27184
811.158	27119
811.299	27310
811.441	27420
811.582	27481
811.724	27302
811.865	27302
812.007	27283
812.148	27272
812.29	27272
812.431	27393
812.573	27458
812.714	27622
812.855	27720
812.997	27838
813.138	28002
813.279	27816
813.421	27778
813.562	27515
813.703	27698
813.845	27420
813.986	27287
814.127	27119
814.268	26845
814.41	26925
814.551	26925
814.692	26982
814.833	26967
814.974	26899
815.115	26872
815.256	26792
815.397	26804
815.539	26731
815.68	26644
815.821	26727
815.962	26655
816.103	26621
816.244	26640
816.385	26590
816.526	26431
816.666	26305
816.807	26339
816.948	26244
817.089	26317
817.23	26267
817.371	26206
817.512	26263
817.653	26187
817.793	26096
817.934	26214
818.075	26221
818.216	26218
818.356	26252
818.497	26115
818.638	25894
818.778	25803
818.919	25890
819.06	26046
819.2	26153
819.341	26195
819.481	26221
819.622	26434
819.762	26533
819.903	26404
820.043	26484
820.184	26374
820.324	26191
820.465	26393
820.605	26290
820.746	26282
820.886	26103
821.026	26408
821.167	26271
821.307	26396
821.447	26248
821.588	26138
821.728	25993
821.868	25894
822.008	25620
822.149	25681
822.289	25632
822.429	25472
822.569	25339
822.709	25411
822.849	25110
822.99	25312
823.13	25209
823.27	25171
823.41	25034
823.55	24814
823.69	25164
823.83	25008
823.97	25034
824.11	24760
824.25	24757
824.389	24776
824.529	24833
824.669	24875
824.809	24935
824.949	24852
825.089	24989
825.228	24882
825.368	24802
825.508	24734
825.648	24802
825.787	24707
825.927	24696
826.067	24745
826.206	24593
826.346	24711
826.485	24665
826.625	24650
826.765	24772
826.904	24768
827.044	24532
827.183	24597
827.323	24376
827.462	24429
827.601	24365
827.741	24407
827.88	24498
828.02	24258
828.159	24448
828.298	24452
828.437	24338
828.577	24289
828.716	24448
828.855	24365
828.994	24053
829.134	24110
829.273	24114
829.412	24102
829.551	24129
829.69	24038
829.829	24155
829.968	24213
830.107	24235
830.246	24091
830.385	24060
830.524	23980
830.663	24045
830.802	23912
830.941	23847
831.08	23608
831.219	23779
831.357	23752
831.496	23988
831.635	23634
831.774	23512
831.913	23592
832.051	23478
832.19	23512
832.329	23528
832.467	23459
832.606	23284
832.744	23330
832.883	23356
833.022	23250
833.16	23376
833.299	23501
833.437	23402
833.576	23490
833.714	23433
833.852	23535
833.991	23497
834.129	23573
834.267	23509
834.406	23414
834.544	23516
834.682	23410
834.821	23410
834.959	23653
835.097	23474
835.235	23505
835.373	23463
835.511	23440
835.65	23414
835.788	23307
835.926	23128
836.064	23147
836.202	23189
836.34	23345
836.478	23497
836.615	23299
836.753	23471
836.891	23322
837.029	23353
837.167	23353
837.305	23231
837.443	23216
837.58	23132
837.718	23311
837.856	23193
837.993	23067
838.131	23128
838.269	22980
838.406	23064
838.544	22999
838.681	22774
838.819	22702
838.956	22622
839.094	22641
839.231	22660
839.369	22854
839.506	22968
839.643	22946
839.781	22683
839.918	22508
840.055	22805
840.193	22622
840.33	22653
840.467	22550
840.604	22596
840.742	22717
840.879	22462
841.016	22489
841.153	22379
841.29	22687
841.427	22580
841.564	22535
841.701	22637
841.838	22348
841.975	22478
842.112	22508
842.249	22447
842.385	22360
842.522	22596
842.659	22424
842.796	22379
842.933	22306
843.069	22287
843.206	22299
843.343	22459
843.479	22310
843.616	22333
843.752	22185
843.889	22192
844.025	22261
844.162	22029
844.298	22135
844.435	22154
844.571	21998
844.708	22128
844.844	22310
844.98	22177
845.117	22188
845.253	21953
845.389	22051
845.525	22025
845.661	21915
845.798	21869
845.934	21911
846.07	21797
846.206	21953
846.342	21964
846.478	21793
846.614	21675
846.75	21572
846.886	21538
847.022	21641
847.158	21656
847.294	21652
847.429	21629
847.565	21648
847.701	21865
847.837	21431
847.972	21260
848.108	21329
848.244	21447
848.379	21180
848.515	21192
848.65	21180
848.786	21294
848.921	21222
849.057	21298
849.192	21359
849.328	21256
849.463	21207
849.598	21108
849.734	21070
849.869	21020
850.004	21058
850.14	21051
850.275	20979
850.41	20952
850.545	21051
850.68	20906
850.815	20937
850.95	21024
851.085	21093
851.22	21074
851.355	20975
851.49	20986
851.625	20941
851.76	20990
851.895	20849
852.03	20929
852.165	20952
852.299	20925
852.434	21077
852.569	20937
852.703	21032
852.838	21066
852.973	21093
853.107	21085
853.242	20918
853.376	20941
853.511	20629
853.645	20746
853.78	20967
853.914	20796
854.048	20674
854.183	20682
854.317	20807
854.451	20963
854.585	20868
854.72	20823
854.854	20899
854.988	20743
855.122	20823
855.256	20739
855.39	20765
855.524	20788
855.658	20853
855.792	20876
855.926	20769
856.06	20861
856.194	20845
856.327	20899
856.461	20826
856.595	20769
856.729	20819
856.862	20811
856.996	20727
857.13	20906
857.263	20902
857.397	20899
857.53	20872
857.664	20986
857.797	20868
857.931	20853
858.064	20804
858.197	20857
858.331	20792
858.464	20864
858.597	20739
858.731	20781
858.864	20686
858.997	20686
859.13	20807
859.263	20823
859.396	20971
859.529	20823
859.662	20769
859.795	20617
859.928	20807
860.061	20956
860.194	21028
860.327	20838
860.46	20796
860.592	20902
860.725	20925
860.858	20982
860.99	20872
861.123	20849
861.256	20754
861.388	20735
861.521	21568
861.653	20682
861.786	20663
861.918	20754
862.05	20758
862.183	20720
862.315	20800
862.447	20845
862.58	20769
862.712	20461
862.844	20431
862.976	20609
863.108	20549
863.24	20925
863.372	20465
863.504	20568
863.636	20514
863.768	20549
863.9	20571
864.032	20412
864.164	20442
864.296	20564
864.428	20575
864.559	20617
864.691	20621
864.823	20598
864.954	20503
865.086	20613
865.217	20415
865.349	20385
865.48	20473
865.612	20385
865.743	20514
865.875	20480
866.006	20351
866.137	20404
866.269	20423
866.4	20476
866.531	20415
866.662	20320
866.793	20438
866.924	20332
867.055	20419
867.186	20400
867.317	20332
867.448	20221
867.579	20252
867.71	20229
867.841	20290
867.972	20396
868.103	20320
868.233	20278
868.364	20355
868.495	20476
868.625	20545
868.756	20670
868.886	20560
869.017	20594
869.147	20769
869.278	20720
869.408	20712
869.539	20621
869.669	20674
869.799	20606
869.929	20758
870.06	20670
870.19	20902
870.32	20788
870.45	20868
870.58	21032
870.71	21058
870.84	21150
870.97	20990
871.1	20956
871.23	21211
871.36	21195
871.489	21119
871.619	21123
871.749	21260
871.879	21252
872.008	21283
872.138	21241
872.267	21112
872.397	21055
872.526	21001
872.656	21032
872.785	21047
872.915	21336
873.044	21397
873.173	21138
873.303	21233
873.432	21260
873.561	21260
873.69	21245
873.819	21237
873.948	21264
874.077	21169
874.206	21203
874.335	21135
874.464	21363
874.593	21325
874.722	21428
874.851	21416
874.979	21530
875.108	21477
875.237	21500
875.365	21359
875.494	21294
875.623	21591
875.751	21443
875.88	21549
876.008	21599
876.136	21694
876.265	21892
876.393	21873
876.521	22002
876.65	21960
876.778	21922
876.906	21736
877.034	21747
877.162	21873
877.29	21785
877.418	21953
877.546	21850
877.674	21717
877.802	21926
877.93	21739
878.058	21717
878.185	21694
878.313	21755
878.441	21816
878.568	21587
878.696	21671
878.824	21884
878.951	21888
879.079	22006
879.206	22109
879.333	21975
879.461	21842
879.588	21705
879.715	21964
879.842	22082
879.97	21789
880.097	21595
880.224	21648
880.351	21618
880.478	21698
880.605	21713
880.732	21675
880.859	21892
880.986	21747
881.112	21671
881.239	21458
881.366	21332
881.493	21287
881.619	21180
881.746	21321
881.872	21192
881.999	21237
882.125	21180
882.252	21260
882.378	21123
882.505	21340
882.631	21081
882.757	20990
882.883	21051
883.01	20883
883.136	20895
883.262	20853
883.388	20807
883.514	20914
883.64	21055
883.766	20781
883.892	20663
884.018	20720
884.143	20921
884.269	20899
884.395	20609
884.52	20579
884.646	20583
884.772	20492
884.897	20499
885.023	20530
885.148	20697
885.274	20598
885.399	20625
885.524	20617
885.65	20575
885.775	20640
885.9	20583
886.025	20705
886.15	20674
886.275	20499
886.4	20389
886.525	20556
886.65	20560
886.775	20396
886.9	20621
887.025	20823
887.149	20594
887.274	20389
887.399	20324
887.523	20313
887.648	20275
887.773	20256
887.897	20404
888.021	20446
888.146	20263
888.27	20495
888.395	20351
888.519	20374
888.643	20404
888.767	20286
888.891	20317
889.015	20256
889.139	20233
889.263	20077
889.387	20233
889.511	20347
889.635	20259
889.759	20073
889.883	19989
890.006	20153
890.13	20199
890.254	20115
890.377	20153
890.501	19864
890.624	19906
890.748	19997
890.871	19776
890.995	19738
891.118	19632
891.241	19776
891.364	19799
891.488	19921
891.611	19731
891.734	19651
891.857	19712
891.98	19677
892.103	19887
892.226	19639
892.349	19651
892.471	19472
892.594	19594
892.717	19666
892.839	19510
892.962	19674
893.085	19696
893.207	19582
893.33	19571
893.452	19578
893.575	19666
893.697	19586
893.819	19776
893.941	19826
894.064	19803
894.186	19544
894.308	19544
894.43	19723
894.552	19772
894.674	19685
894.796	19563
894.918	19605
895.04	19670
895.161	19662
895.283	19788
895.405	19548
895.526	19742
895.648	19548
895.769	19582
895.891	19582
896.012	19750
896.134	19666
896.255	19658
896.376	19540
896.498	19582
896.619	19689
896.74	19639
896.861	19704
896.982	19871
897.103	20043
897.224	19917
897.345	19913
897.466	19845
897.587	19849
897.708	20039
897.828	19925
897.949	19906
898.07	19544
898.19	19753
898.311	19986
898.431	19826
898.552	19887
898.672	19856
898.792	19940
898.913	19913
899.033	19772
899.153	19715
899.273	19674
899.393	19674
899.513	19662
899.633	19624
899.753	19693
899.873	19518
899.993	19674
900.113	19525
900.232	19563
900.352	19559
900.472	19403
900.591	19415
900.711	19537
900.83	19285
900.95	19430
901.069	19491
901.189	19141
901.308	19126
901.427	19015
901.546	18958
901.665	18924
901.784	18996
901.904	18928
902.023	18719
902.141	18623
902.26	18566
902.379	18582
902.498	18532
902.617	18608
902.735	18486
902.854	18517
902.973	18479
903.091	18205
903.21	18251
903.328	18163
903.446	18114
903.565	18034
903.683	17965
903.801	17927
903.919	17893
904.038	17999
904.156	17863
904.274	17870
904.392	17764
904.51	17798
904.627	17760
904.745	17817
904.863	17748
904.981	17570
905.098	17490
905.216	17493
905.334	17368
905.451	17486
905.569	17433
905.686	17505
905.803	17543
905.921	17303
906.038	17406
906.155	17326
906.272	17102
906.389	17155
906.506	17060
906.623	17094
906.74	16957
906.857	16843
906.974	16858
907.091	16908
907.208	17041
907.324	17006
907.441	16847
907.557	16717
907.674	16782
907.79	16546
907.907	16748
908.023	16588
908.139	16660
908.256	16558
908.372	16691
908.488	16641
908.604	16367
908.72	16462
908.836	16485
908.952	16344
909.068	16455
909.184	16535
909.3	16405
909.415	16417
909.531	16440
909.647	16147
909.762	16059
909.878	16124
909.993	16109
910.108	16093
910.224	16147
910.339	16139
910.454	16021
910.57	15884
910.685	15949
910.8	16120
910.915	15979
911.03	15975
911.145	15739
911.259	15755
911.374	15827
911.489	15690
911.604	15671
911.718	15401
911.833	15492
911.947	15367
912.062	15275
912.176	15439
912.291	15469
912.405	15507
912.519	15660
912.633	15675
912.748	15595
912.862	15458
912.976	15370
913.09	15218
913.204	15180
913.318	15264
913.431	15294
913.545	15313
913.659	15340
913.772	15260
913.886	15260
914	15074
914.113	15230
914.226	15214
914.34	15165
914.453	14971
914.566	15192
914.68	15047
914.793	14979
914.906	14754
915.019	14758
915.132	14686
915.245	14667
915.358	14769
915.47	14716
915.583	14701
915.696	14804
915.809	15020
915.921	14948
916.034	14708
916.146	14663
916.259	14640
916.371	14804
916.483	14663
916.595	14556
916.708	14560
916.82	14564
916.932	14511
917.044	14587
917.156	14530
917.268	14499
917.38	14533
917.491	14480
917.603	14389
917.715	14503
917.826	14590
917.938	14282
918.049	14351
918.161	14362
918.272	14568
918.384	14579
918.495	14385
918.606	14248
918.717	14229
918.828	14271
918.939	14206
919.05	14115
919.161	14092
919.272	13959
919.383	14088
919.494	14248
919.604	14358
919.715	14191
919.826	14084
919.936	14233
920.047	14286
920.157	14115
920.267	14305
920.378	14119
920.488	14126
920.598	14324
920.708	14522
920.818	14229
920.928	14275
921.038	14415
921.148	14454
921.258	14195
921.368	14100
921.477	13887
921.587	13913
921.697	13791
921.806	13902
921.916	13765
922.025	13685
922.134	13613
922.244	13491
922.353	13662
922.462	13464
922.571	13362
922.68	13304
922.789	13152
922.898	13240
923.007	13168
923.116	13263
923.224	13160
923.333	13168
923.442	13012
923.55	12928
923.659	13114
923.767	13171
923.876	12894
923.984	13114
924.092	12932
924.201	12993
924.309	12924
924.417	12928
924.525	12859
924.633	12859
924.741	13772
924.849	12719
924.956	12863
925.064	12681
925.172	12597
925.279	12639
925.387	12669
925.494	12578
925.602	12745
925.709	12665
925.816	12574
925.924	12589
926.031	12654
926.138	12559
926.245	12635
926.352	12433
926.459	12650
926.566	12700
926.673	12597
926.779	12433
926.886	12410
926.993	12311
927.099	12258
927.206	12201
927.312	12110
927.419	12220
927.525	12155
927.631	12178
927.737	12152
927.843	12064
927.95	11912
928.056	12133
928.162	12186
928.267	12019
928.373	12544
928.479	12095
928.585	11874
928.69	12041
928.796	12091
928.901	11973
929.007	11821
929.112	11783
929.218	11828
929.323	11798
929.428	11779
929.533	11927
929.638	11767
929.743	11775
929.848	11771
929.953	11668
930.058	11566
930.163	11410
930.267	11440
930.372	11570
930.477	11474
930.581	11638
930.685	11493
930.79	11425
930.894	11402
930.998	11387
931.103	11455
931.207	11124
931.311	11006
931.415	10881
931.519	10748
931.623	10805
