Data from test_V78500241_3150.txt Node
Date: Fri Mar 25 15:31:47 CST 2022
User: usil
Spectrometer: V785-0024
Trigger mode: 0
Integration Time (sec): 4.000000E-1
Scans to average: 1
Nonlinearity correction enabled: false
Boxcar width: 0
Storing dark spectrum: false
XAxis mode: Wavelengths
Number of Pixels in Spectrum: 1024
>>>>>Begin Spectral Data<<<<<
801.071	27173
801.214	27096
801.356	26963
801.499	26891
801.641	26682
801.783	26762
801.926	26849
802.068	26735
802.211	26788
802.353	26705
802.496	26465
802.638	26431
802.78	26495
802.923	26370
803.065	26305
803.208	26320
803.35	26492
803.492	26602
803.635	26602
803.777	26625
803.919	26556
804.061	27024
804.204	26617
804.346	26625
804.488	26499
804.63	26530
804.773	26473
804.915	26568
805.057	26568
805.199	26522
805.341	26552
805.483	26720
805.626	26625
805.768	26545
805.91	26640
806.052	26750
806.194	26640
806.336	26826
806.478	26621
806.62	26773
806.762	26899
806.904	26906
807.046	27138
807.188	27150
807.33	27169
807.472	27199
807.614	27100
807.756	27135
807.898	26960
808.04	26906
808.182	26796
808.324	26971
808.465	27047
808.607	27116
808.749	27222
808.891	27374
809.033	27557
809.174	27481
809.316	27260
809.458	27469
809.6	27374
809.741	27237
809.883	27469
810.025	27549
810.166	27644
810.308	27504
810.45	27466
810.591	27564
810.733	27348
810.875	27256
811.016	27237
811.158	27207
811.299	27450
811.441	27359
811.582	27374
811.724	27264
811.865	27298
812.007	27294
812.148	27203
812.29	27287
812.431	27424
812.573	27625
812.714	27663
812.855	27728
812.997	27778
813.138	28002
813.279	27835
813.421	27724
813.562	27770
813.703	27599
813.845	27466
813.986	27195
814.127	27081
814.268	26990
814.41	27039
814.551	26838
814.692	26975
814.833	26944
814.974	26849
815.115	26925
815.256	26765
815.397	26796
815.539	26963
815.68	26670
815.821	26552
815.962	26819
816.103	26708
816.244	26499
816.385	26457
816.526	26309
816.666	26138
816.807	26168
816.948	26244
817.089	26309
817.23	26248
817.371	26221
817.512	26320
817.653	26259
817.793	26195
817.934	26199
818.075	26130
818.216	26191
818.356	26111
818.497	26138
818.638	25871
818.778	25951
818.919	25909
819.06	26077
819.2	26126
819.341	26168
819.481	26122
819.622	26305
819.762	26446
819.903	26480
820.043	26450
820.184	26301
820.324	26263
820.465	26366
820.605	26313
820.746	26278
820.886	26210
821.026	26275
821.167	26191
821.307	26278
821.447	26164
821.588	26092
821.728	26001
821.868	25917
822.008	25685
822.149	25746
822.289	25689
822.429	25297
822.569	25270
822.709	25362
822.849	25213
822.99	25152
823.13	25187
823.27	25141
823.41	25027
823.55	24875
823.69	25061
823.83	24840
823.97	24867
824.11	24863
824.25	24730
824.389	24677
824.529	24817
824.669	24741
824.809	24878
824.949	24894
825.089	24890
825.228	24825
825.368	24559
825.508	24604
825.648	24642
825.787	24707
825.927	24719
826.067	24658
826.206	24650
826.346	24821
826.485	24722
826.625	24661
826.765	24825
826.904	24688
827.044	24486
827.183	24429
827.323	24308
827.462	24513
827.601	24292
827.741	24391
827.88	24445
828.02	24232
828.159	24353
828.298	24391
828.437	24380
828.577	24372
828.716	24479
828.855	24338
828.994	24022
829.134	24106
829.273	24079
829.412	24041
829.551	24091
829.69	24030
829.829	24201
829.968	24148
830.107	24190
830.246	24140
830.385	23920
830.524	24057
830.663	23855
830.802	23794
830.941	23764
831.08	23695
831.219	23691
831.357	23889
831.496	23954
831.635	23767
831.774	23737
831.913	23623
832.051	23528
832.19	23429
832.329	23448
832.467	23315
832.606	23208
832.744	23303
832.883	23402
833.022	23311
833.16	23440
833.299	23391
833.437	23311
833.576	23448
833.714	23261
833.852	23448
833.991	23353
834.129	23455
834.267	23463
834.406	23353
834.544	23429
834.682	23444
834.821	23471
834.959	23653
835.097	23406
835.235	23421
835.373	23436
835.511	23459
835.65	23337
835.788	23223
835.926	23132
836.064	23010
836.202	23185
836.34	23296
836.478	23337
836.615	23284
836.753	23189
836.891	23303
837.029	23376
837.167	23193
837.305	23159
837.443	23151
837.58	23132
837.718	23113
837.856	23086
837.993	22995
838.131	23212
838.269	23056
838.406	23075
838.544	22858
838.681	22816
838.819	22801
838.956	22645
839.094	22580
839.231	22588
839.369	22706
839.506	23033
839.643	22873
839.781	22531
839.918	22596
840.055	22527
840.193	22603
840.33	22554
840.467	22527
840.604	22550
840.742	22869
840.879	22310
841.016	22599
841.153	22390
841.29	22698
841.427	22538
841.564	22500
841.701	22493
841.838	22497
841.975	22409
842.112	22474
842.249	22348
842.385	22322
842.522	22569
842.659	22523
842.796	22253
842.933	22356
843.069	22242
843.206	22268
843.343	22371
843.479	22295
843.616	22268
843.752	22040
843.889	22200
844.025	22200
844.162	22006
844.298	22162
844.435	22040
844.571	22013
844.708	22116
844.844	22280
844.98	22116
845.117	22192
845.253	22040
845.389	21987
845.525	21991
845.661	21983
845.798	21816
845.934	21934
846.07	21835
846.206	21739
846.342	21907
846.478	21827
846.614	21717
846.75	21519
846.886	21591
847.022	21557
847.158	21549
847.294	21572
847.429	21618
847.565	21488
847.701	21736
847.837	21275
847.972	21291
848.108	21367
848.244	21439
848.379	21256
848.515	21070
848.65	21096
848.786	21135
848.921	21176
849.057	21332
849.192	21302
849.328	21081
849.463	21108
849.598	21104
849.734	20956
849.869	20948
850.004	20861
850.14	20937
850.275	20941
850.41	20781
850.545	20906
850.68	20933
850.815	20914
850.95	20891
851.085	21055
851.22	21070
851.355	20933
851.49	20914
851.625	20895
851.76	20849
851.895	20781
852.03	20929
852.165	20872
852.299	20880
852.434	20994
852.569	20990
852.703	20834
852.838	20982
852.973	20998
853.107	21066
853.242	20788
853.376	20720
853.511	20644
853.645	20762
853.78	20826
853.914	20735
854.048	20606
854.183	20731
854.317	20697
854.451	20929
854.585	20731
854.72	20663
854.854	20853
854.988	20670
855.122	20754
855.256	20594
855.39	20754
855.524	20788
855.658	20693
855.792	20838
855.926	20712
856.06	20724
856.194	20720
856.327	20659
856.461	20705
856.595	20743
856.729	20686
856.862	20769
856.996	20701
857.13	20842
857.263	20842
857.397	20918
857.53	20667
857.664	20857
857.797	20826
857.931	20720
858.064	20754
858.197	20800
858.331	20579
858.464	20697
858.597	20568
858.731	20625
858.864	20575
858.997	20697
859.13	20826
859.263	20800
859.396	20800
859.529	20564
859.662	20800
859.795	20682
859.928	20667
860.061	20826
860.194	20921
860.327	20864
860.46	20697
860.592	20864
860.725	20815
860.858	20788
860.99	20792
861.123	20594
861.256	20655
861.388	20731
861.521	21355
861.653	20659
861.786	20408
861.918	20564
862.05	20727
862.183	20609
862.315	20716
862.447	20823
862.58	20598
862.712	20495
862.844	20393
862.976	20648
863.108	20492
863.24	20746
863.372	20282
863.504	20442
863.636	20393
863.768	20480
863.9	20511
864.032	20415
864.164	20282
864.296	20499
864.428	20507
864.559	20613
864.691	20587
864.823	20488
864.954	20442
865.086	20389
865.217	20366
865.349	20294
865.48	20290
865.612	20446
865.743	20442
865.875	20389
866.006	20389
866.137	20377
866.269	20374
866.4	20415
866.531	20282
866.662	20263
866.793	20324
866.924	20355
867.055	20294
867.186	20415
867.317	20317
867.448	20100
867.579	20336
867.71	20332
867.841	20199
867.972	20290
868.103	20324
868.233	20244
868.364	20278
868.495	20385
868.625	20545
868.756	20556
868.886	20454
869.017	20427
869.147	20579
869.278	20678
869.408	20583
869.539	20419
869.669	20533
869.799	20587
869.929	20724
870.06	20609
870.19	20731
870.32	20689
870.45	20941
870.58	21005
870.71	21100
870.84	21070
870.97	20861
871.1	20944
871.23	21142
871.36	21112
871.489	21123
871.619	21085
871.749	21138
871.879	21256
872.008	21192
872.138	21138
872.267	21184
872.397	20963
872.526	21085
872.656	20941
872.785	21001
872.915	21116
873.044	21332
873.173	21131
873.303	21226
873.432	21230
873.561	21249
873.69	21180
873.819	21058
873.948	21233
874.077	21127
874.206	21123
874.335	21116
874.464	21298
874.593	21321
874.722	21287
874.851	21348
874.979	21443
875.108	21378
875.237	21302
875.365	21355
875.494	21397
875.623	21443
875.751	21313
875.88	21386
876.008	21591
876.136	21587
876.265	21884
876.393	21934
876.521	21907
876.65	21831
876.778	21778
876.906	21778
877.034	21739
877.162	21812
877.29	21762
877.418	21804
877.546	21774
877.674	21804
877.802	21778
877.93	21622
878.058	21629
878.185	21656
878.313	21732
878.441	21690
878.568	21583
878.696	21717
878.824	21808
878.951	21781
879.079	21823
879.206	22086
879.333	21835
879.461	21762
879.588	21827
879.715	21903
879.842	22147
879.97	21759
880.097	21663
880.224	21576
880.351	21663
880.478	21663
880.605	21507
880.732	21595
880.859	21800
880.986	21583
881.112	21641
881.239	21481
881.366	21393
881.493	21287
881.619	21184
881.746	21291
881.872	21340
881.999	21154
882.125	21135
882.252	21203
882.378	21062
882.505	21264
882.631	21104
882.757	20895
882.883	20918
883.01	20849
883.136	20842
883.262	20655
883.388	20617
883.514	20842
883.64	20895
883.766	20762
883.892	20636
884.018	20651
884.143	20891
884.269	20948
884.395	20537
884.52	20587
884.646	20587
884.772	20434
884.897	20526
885.023	20617
885.148	20659
885.274	20716
885.399	20632
885.524	20537
885.65	20629
885.775	20431
885.9	20541
886.025	20705
886.15	20712
886.275	20533
886.4	20415
886.525	20621
886.65	20366
886.775	20396
886.9	20522
887.025	20758
887.149	20488
887.274	20286
887.399	20313
887.523	20324
887.648	20100
887.773	20202
887.897	20396
888.021	20305
888.146	20286
888.27	20328
888.395	20457
888.519	20317
888.643	20240
888.767	20438
888.891	20145
889.015	20153
889.139	20157
889.263	19970
889.387	20183
889.511	20313
889.635	20180
889.759	20043
889.883	19944
890.006	20218
890.13	20134
890.254	20111
890.377	20084
890.501	19814
890.624	19993
890.748	19864
890.871	19753
890.995	19681
891.118	19609
891.241	19715
891.364	19639
891.488	19860
891.611	19696
891.734	19750
891.857	19597
891.98	19639
892.103	19655
892.226	19655
892.349	19632
892.471	19422
892.594	19651
892.717	19540
892.839	19582
892.962	19552
893.085	19632
893.207	19559
893.33	19407
893.452	19556
893.575	19586
893.697	19491
893.819	19696
893.941	19761
894.064	19689
894.186	19552
894.308	19506
894.43	19662
894.552	19803
894.674	19689
894.796	19556
894.918	19525
895.04	19567
895.161	19655
895.283	19655
895.405	19430
895.526	19639
895.648	19594
895.769	19533
895.891	19662
896.012	19734
896.134	19693
896.255	19616
896.376	19540
896.498	19578
896.619	19651
896.74	19666
896.861	19670
896.982	19967
897.103	20084
897.224	19864
897.345	19852
897.466	19719
897.587	19841
897.708	19841
897.828	19860
897.949	19860
898.07	19628
898.19	19700
898.311	19830
898.431	19757
898.552	19704
898.672	19822
898.792	19822
898.913	19776
899.033	19704
899.153	19578
899.273	19426
899.393	19586
899.513	19594
899.633	19559
899.753	19643
899.873	19670
899.993	19674
900.113	19597
900.232	19616
900.352	19502
900.472	19377
900.591	19251
900.711	19381
900.83	19396
900.95	19384
901.069	19480
901.189	19293
901.308	19107
901.427	18985
901.546	19023
901.665	19015
901.784	18863
901.904	18852
902.023	18726
902.141	18578
902.26	18555
902.379	18448
902.498	18574
902.617	18441
902.735	18391
902.854	18471
902.973	18315
903.091	18144
903.21	18251
903.328	18194
903.446	18079
903.565	17996
903.683	17977
903.801	17843
903.919	17893
904.038	17977
904.156	17756
904.274	17714
904.392	17661
904.51	17737
904.627	17691
904.745	17805
904.863	17718
904.981	17539
905.098	17360
905.216	17490
905.334	17436
905.451	17467
905.569	17368
905.686	17421
905.803	17421
905.921	17147
906.038	17254
906.155	17216
906.272	17155
906.389	17197
906.506	16961
906.623	16976
906.74	17003
906.857	16828
906.974	16866
907.091	17014
907.208	16976
907.324	16961
907.441	16771
907.557	16740
907.674	16656
907.79	16649
907.907	16577
908.023	16683
908.139	16630
908.256	16561
908.372	16622
908.488	16592
908.604	16459
908.72	16356
908.836	16428
908.952	16478
909.068	16424
909.184	16554
909.3	16424
909.415	16519
909.531	16306
909.647	16025
909.762	15930
909.878	16074
909.993	16040
910.108	15991
910.224	16120
910.339	16002
910.454	16044
910.57	15915
910.685	15869
910.8	16150
910.915	16078
911.03	15854
911.145	15831
911.259	15698
911.374	15717
911.489	15637
911.604	15580
911.718	15481
911.833	15477
911.947	15564
912.062	15332
912.176	15523
912.291	15538
912.405	15469
912.519	15587
912.633	15625
912.748	15466
912.862	15447
912.976	15291
913.09	15188
913.204	15180
913.318	15252
913.431	15393
913.545	15317
913.659	15389
913.772	15382
913.886	15176
914	15058
914.113	15211
914.226	15146
914.34	15173
914.453	15020
914.566	15150
914.68	14944
914.793	14918
914.906	14746
915.019	14670
915.132	14602
915.245	14686
915.358	14762
915.47	14636
915.583	14663
915.696	14689
915.809	14807
915.921	14834
916.034	14507
916.146	14705
916.259	14514
916.371	14594
916.483	14587
916.595	14476
916.708	14568
916.82	14518
916.932	14499
917.044	14404
917.156	14503
917.268	14358
917.38	14381
917.491	14393
917.603	14385
917.715	14446
917.826	14457
917.938	14358
918.049	14195
918.161	14358
918.272	14450
918.384	14454
918.495	14229
918.606	14199
918.717	13951
918.828	14065
918.939	14187
919.05	14027
919.161	14081
919.272	13955
919.383	13986
919.494	14115
919.604	14347
919.715	14142
919.826	14050
919.936	14123
920.047	14214
920.157	14077
920.267	14214
920.378	13986
920.488	14138
920.598	14233
920.708	14362
920.818	14161
920.928	14343
921.038	14294
921.148	14320
921.258	14058
921.368	13986
921.477	13871
921.587	13818
921.697	13727
921.806	13841
921.916	13750
922.025	13556
922.134	13571
922.244	13514
922.353	13563
922.462	13460
922.571	13354
922.68	13152
922.789	13217
922.898	13091
923.007	13110
923.116	13198
923.224	13141
923.333	13164
923.442	13034
923.55	12973
923.659	13042
923.767	13061
923.876	12962
923.984	13023
924.092	12951
924.201	12810
924.309	12924
924.417	12909
924.525	12802
924.633	12825
924.741	13803
924.849	12528
924.956	12665
925.064	12677
925.172	12589
925.279	12578
925.387	12650
925.494	12623
925.602	12768
925.709	12612
925.816	12532
925.924	12601
926.031	12677
926.138	12585
926.245	12555
926.352	12403
926.459	12517
926.566	12665
926.673	12467
926.779	12289
926.886	12315
926.993	12216
927.099	12152
927.206	12175
927.312	12098
927.419	12251
927.525	12186
927.631	12197
927.737	12133
927.843	11958
927.95	11931
928.056	11973
928.162	11939
928.267	12114
928.373	12585
928.479	12083
928.585	11874
928.69	11904
928.796	12030
928.901	11813
929.007	11691
929.112	11882
929.218	11821
929.323	11764
929.428	11729
929.533	11946
929.638	11665
929.743	11661
929.848	11710
929.953	11665
930.058	11528
930.163	11452
930.267	11448
930.372	11551
930.477	11372
930.581	11634
930.685	11512
930.79	11284
930.894	11292
930.998	11326
931.103	11387
931.207	11064
931.311	11003
931.415	10908
931.519	10778
931.623	10691
