Data from test_V78500241_1642.txt Node
Date: Fri Mar 25 15:21:17 CST 2022
User: usil
Spectrometer: V785-0024
Trigger mode: 0
Integration Time (sec): 4.000000E-1
Scans to average: 1
Nonlinearity correction enabled: false
Boxcar width: 0
Storing dark spectrum: false
XAxis mode: Wavelengths
Number of Pixels in Spectrum: 1024
>>>>>Begin Spectral Data<<<<<
801.071	27610
801.214	27561
801.356	27363
801.499	27211
801.641	27218
801.783	27173
801.926	27336
802.068	27176
802.211	27074
802.353	27013
802.496	26982
802.638	26815
802.78	26746
802.923	26762
803.065	26781
803.208	26785
803.35	26693
803.492	26956
803.635	27036
803.777	26834
803.919	26857
804.061	27291
804.204	27108
804.346	26864
804.488	26963
804.63	27047
804.773	26864
804.915	26933
805.057	27028
805.199	27001
805.341	27032
805.483	27157
805.626	27055
805.768	26876
805.91	27081
806.052	27203
806.194	27116
806.336	27325
806.478	27176
806.62	27108
806.762	27252
806.904	27454
807.046	27553
807.188	27473
807.33	27549
807.472	27648
807.614	27431
807.756	27420
807.898	27359
808.04	27275
808.182	27405
808.324	27462
808.465	27515
808.607	27720
808.749	27641
808.891	27800
809.033	27953
809.174	27808
809.316	27698
809.458	27720
809.6	27838
809.741	27850
809.883	27759
810.025	27945
810.166	27968
810.308	27972
810.45	27892
810.591	27842
810.733	27793
810.875	27698
811.016	27595
811.158	27625
811.299	27629
811.441	27751
811.582	27774
811.724	27732
811.865	27656
812.007	27629
812.148	27755
812.29	27656
812.431	27937
812.573	28051
812.714	28234
812.855	28306
812.997	28314
813.138	28348
813.279	28287
813.421	28086
813.562	27987
813.703	28143
813.845	27945
813.986	27656
814.127	27458
814.268	27252
814.41	27427
814.551	27313
814.692	27485
814.833	27416
814.974	27374
815.115	27435
815.256	27298
815.397	27218
815.539	27325
815.68	27230
815.821	27119
815.962	27020
816.103	27028
816.244	27089
816.385	27036
816.526	26956
816.666	26792
816.807	26765
816.948	26830
817.089	26857
817.23	26800
817.371	26720
817.512	26686
817.653	26648
817.793	26537
817.934	26689
818.075	26693
818.216	26617
818.356	26701
818.497	26453
818.638	26469
818.778	26389
818.919	26415
819.06	26625
819.2	26568
819.341	26564
819.481	26663
819.622	26781
819.762	27089
819.903	26960
820.043	26830
820.184	26838
820.324	26636
820.465	26857
820.605	26899
820.746	26678
820.886	26644
821.026	26758
821.167	26674
821.307	26811
821.447	26663
821.588	26495
821.728	26450
821.868	26355
822.008	26244
822.149	26259
822.289	26107
822.429	25875
822.569	25940
822.709	25928
822.849	25594
822.99	25605
823.13	25544
823.27	25582
823.41	25632
823.55	25396
823.69	25525
823.83	25468
823.97	25381
824.11	25350
824.25	25362
824.389	25225
824.529	25274
824.669	25304
824.809	25354
824.949	25449
825.089	25411
825.228	25308
825.368	25042
825.508	25187
825.648	25065
825.787	25266
825.927	25179
826.067	25190
826.206	25061
826.346	25175
826.485	25095
826.625	25137
826.765	25304
826.904	25198
827.044	24871
827.183	25004
827.323	24700
827.462	24901
827.601	24962
827.741	24890
827.88	24909
828.02	24817
828.159	24757
828.298	24871
828.437	24966
828.577	24817
828.716	24962
828.855	24837
828.994	24646
829.134	24589
829.273	24635
829.412	24639
829.551	24475
829.69	24528
829.829	24616
829.968	24681
830.107	24589
830.246	24593
830.385	24407
830.524	24486
830.663	24311
830.802	24273
830.941	24262
831.08	24201
831.219	24311
831.357	24205
831.496	24407
831.635	24182
831.774	24167
831.913	24076
832.051	23965
832.19	23946
832.329	24030
832.467	23828
832.606	23847
832.744	23779
832.883	24015
833.022	23821
833.16	23885
833.299	23927
833.437	23939
833.576	23836
833.714	23912
833.852	23958
833.991	24045
834.129	24018
834.267	23961
834.406	23999
834.544	23904
834.682	23969
834.821	23828
834.959	24018
835.097	23805
835.235	23882
835.373	23843
835.511	23885
835.65	23931
835.788	23817
835.926	23745
836.064	23627
836.202	23687
836.34	23771
836.478	23813
836.615	23684
836.753	23824
836.891	23729
837.029	23802
837.167	23752
837.305	23668
837.443	23642
837.58	23600
837.718	23760
837.856	23604
837.993	23573
838.131	23531
838.269	23455
838.406	23512
838.544	23493
838.681	23258
838.819	23227
838.956	23185
839.094	23037
839.231	23102
839.369	23258
839.506	23391
839.643	23258
839.781	23079
839.918	23109
840.055	23060
840.193	22980
840.33	23025
840.467	22987
840.604	22957
840.742	23212
840.879	22805
841.016	22927
841.153	22892
841.29	23105
841.427	23018
841.564	22869
841.701	23010
841.838	22957
841.975	22946
842.112	22877
842.249	22892
842.385	22637
842.522	22968
842.659	22797
842.796	22771
842.933	22793
843.069	22664
843.206	22630
843.343	22866
843.479	22729
843.616	22824
843.752	22573
843.889	22466
844.025	22809
844.162	22500
844.298	22691
844.435	22565
844.571	22561
844.708	22679
844.844	22759
844.98	22679
845.117	22645
845.253	22459
845.389	22497
845.525	22493
845.661	22367
845.798	22265
845.934	22230
846.07	22265
846.206	22230
846.342	22424
846.478	22238
846.614	22063
846.75	21915
846.886	22029
847.022	22173
847.158	22029
847.294	22006
847.429	22105
847.565	22097
847.701	22253
847.837	21736
847.972	21812
848.108	21816
848.244	21808
848.379	21622
848.515	21663
848.65	21720
848.786	21644
848.921	21656
849.057	21705
849.192	21606
849.328	21747
849.463	21572
849.598	21583
849.734	21568
849.869	21443
850.004	21488
850.14	21382
850.275	21329
850.41	21294
850.545	21192
850.68	21306
850.815	21348
850.95	21401
851.085	21644
851.22	21447
851.355	21447
851.49	21325
851.625	21207
851.76	21279
851.895	21157
852.03	21332
852.165	21363
852.299	21462
852.434	21435
852.569	21344
852.703	21374
852.838	21367
852.973	21504
853.107	21485
853.242	21283
853.376	21230
853.511	21199
853.645	21146
853.78	21336
853.914	21214
854.048	21104
854.183	21173
854.317	21173
854.451	21405
854.585	21169
854.72	21249
854.854	21275
854.988	21241
855.122	21180
855.256	21013
855.39	21176
855.524	21279
855.658	21245
855.792	21043
855.926	21249
856.06	21211
856.194	21336
856.327	21237
856.461	21047
856.595	21222
856.729	21066
856.862	21268
856.996	21252
857.13	21173
857.263	21294
857.397	21363
857.53	21131
857.664	21184
857.797	21237
857.931	21233
858.064	21154
858.197	21264
858.331	21222
858.464	21142
858.597	21104
858.731	21180
858.864	21192
858.997	21245
859.13	21058
859.263	21245
859.396	21154
859.529	21096
859.662	21157
859.795	21157
859.928	21214
860.061	21374
860.194	21329
860.327	21226
860.46	21237
860.592	21329
860.725	21367
860.858	21252
860.99	21142
861.123	21039
861.256	21104
861.388	21203
861.521	21781
861.653	21131
861.786	20872
861.918	21051
862.05	21077
862.183	21085
862.315	21142
862.447	21131
862.58	21051
862.712	20929
862.844	20807
862.976	21043
863.108	20998
863.24	21275
863.372	20929
863.504	20826
863.636	20842
863.768	20960
863.9	20941
864.032	20861
864.164	20853
864.296	20868
864.428	20990
864.559	21005
864.691	20910
864.823	20849
864.954	20769
865.086	20845
865.217	20845
865.349	20743
865.48	20785
865.612	20750
865.743	20944
865.875	20773
866.006	20804
866.137	20895
866.269	20727
866.4	20804
866.531	20773
866.662	20663
866.793	20651
866.924	20667
867.055	20686
867.186	20712
867.317	20792
867.448	20682
867.579	20712
867.71	20636
867.841	20571
867.972	20781
868.103	20712
868.233	20724
868.364	20731
868.495	20716
868.625	20956
868.756	21085
868.886	20944
869.017	21005
869.147	21077
869.278	21028
869.408	20921
869.539	21009
869.669	20937
869.799	21013
869.929	21119
870.06	21127
870.19	21245
870.32	21397
870.45	21325
870.58	21397
870.71	21378
870.84	21389
870.97	21340
871.1	21336
871.23	21450
871.36	21534
871.489	21603
871.619	21618
871.749	21519
871.879	21629
872.008	21713
872.138	21591
872.267	21629
872.397	21382
872.526	21386
872.656	21488
872.785	21355
872.915	21515
873.044	21644
873.173	21568
873.303	21720
873.432	21545
873.561	21652
873.69	21732
873.819	21572
873.948	21648
874.077	21587
874.206	21523
874.335	21587
874.464	21686
874.593	21778
874.722	21747
874.851	21842
874.979	21827
875.108	21842
875.237	21751
875.365	21633
875.494	21747
875.623	21918
875.751	21709
875.88	21842
876.008	22013
876.136	22044
876.265	22238
876.393	22333
876.521	22299
876.65	22242
876.778	22226
876.906	22048
877.034	22196
877.162	22249
877.29	22128
877.418	22093
877.546	22131
877.674	22196
877.802	22135
877.93	22230
878.058	22010
878.185	22139
878.313	22067
878.441	22291
878.568	22021
878.696	22131
878.824	22234
878.951	22082
879.079	22375
879.206	22550
879.333	22398
879.461	22181
879.588	22356
879.715	22352
879.842	22379
879.97	22207
880.097	22025
880.224	21956
880.351	22063
880.478	21998
880.605	21975
880.732	21918
880.859	22135
880.986	21956
881.112	21911
881.239	21835
881.366	21671
881.493	21583
881.619	21625
881.746	21660
881.872	21538
881.999	21466
882.125	21466
882.252	21599
882.378	21504
882.505	21644
882.631	21393
882.757	21279
882.883	21355
883.01	21184
883.136	21222
883.262	21188
883.388	21142
883.514	21306
883.64	21378
883.766	21245
883.892	21093
884.018	21062
884.143	21070
884.269	21336
884.395	20948
884.52	20929
884.646	20849
884.772	20781
884.897	20868
885.023	20880
885.148	21055
885.274	20960
885.399	20849
885.524	20944
885.65	20910
885.775	20864
885.9	20807
886.025	20986
886.15	20967
886.275	20800
886.4	20781
886.525	20895
886.65	20800
886.775	20754
886.9	20864
887.025	21176
887.149	20872
887.274	20750
887.399	20678
887.523	20590
887.648	20511
887.773	20560
887.897	20712
888.021	20682
888.146	20560
888.27	20712
888.395	20720
888.519	20636
888.643	20743
888.767	20686
888.891	20629
889.015	20450
889.139	20686
889.263	20545
889.387	20545
889.511	20632
889.635	20613
889.759	20389
889.883	20480
890.006	20469
890.13	20693
890.254	20469
890.377	20442
890.501	20313
890.624	20149
890.748	20294
890.871	20138
890.995	20157
891.118	19978
891.241	20008
891.364	19993
891.488	20164
891.611	19986
891.734	20054
891.857	20157
891.98	19963
892.103	20031
892.226	20115
892.349	19955
892.471	19780
892.594	19894
892.717	19947
892.839	20016
892.962	20012
893.085	20069
893.207	19845
893.33	19772
893.452	19974
893.575	19955
893.697	19921
893.819	20107
893.941	20111
894.064	20012
894.186	19807
894.308	19913
894.43	20035
894.552	20062
894.674	20035
894.796	19784
894.918	19818
895.04	19864
895.161	19986
895.283	19936
895.405	19974
895.526	19959
895.648	19967
895.769	19921
895.891	19989
896.012	19845
896.134	19997
896.255	19982
896.376	19906
896.498	19818
896.619	20054
896.74	19936
896.861	20024
896.982	20221
897.103	20377
897.224	20317
897.345	20187
897.466	20073
897.587	20191
897.708	20301
897.828	20244
897.949	20126
898.07	20073
898.19	20122
898.311	20252
898.431	20039
898.552	20043
898.672	20298
898.792	20191
898.913	20161
899.033	20005
899.153	20020
899.273	19890
899.393	19898
899.513	19989
899.633	19913
899.753	19906
899.873	19761
899.993	19978
900.113	19791
900.232	19890
900.352	19784
900.472	19700
900.591	19670
900.711	19681
900.83	19666
900.95	19845
901.069	19883
901.189	19601
901.308	19247
901.427	19118
901.546	19225
901.665	19221
901.784	19365
901.904	19046
902.023	19046
902.141	18878
902.26	18825
902.379	18973
902.498	18772
902.617	18749
902.735	18749
902.854	18783
902.973	18658
903.091	18471
903.21	18570
903.328	18441
903.446	18494
903.565	18213
903.683	18319
903.801	18129
903.919	18155
904.038	18277
904.156	17996
904.274	18159
904.392	18007
904.51	17965
904.627	17897
904.745	18011
904.863	18030
904.981	17832
905.098	17729
905.216	17611
905.334	17707
905.451	17668
905.569	17676
905.686	17771
905.803	17707
905.921	17448
906.038	17630
906.155	17509
906.272	17444
906.389	17490
906.506	17372
906.623	17261
906.74	17181
906.857	17128
906.974	17254
907.091	17299
907.208	17436
907.324	17246
907.441	17223
907.557	17048
907.674	16934
907.79	16869
907.907	16980
908.023	17022
908.139	16942
908.256	16854
908.372	16843
908.488	16843
908.604	16744
908.72	16679
908.836	16618
908.952	16675
909.068	16786
909.184	16843
909.3	16672
909.415	16691
909.531	16713
909.647	16485
909.762	16455
909.878	16371
909.993	16481
910.108	16329
910.224	16329
910.339	16367
910.454	16188
910.57	16166
910.685	16143
910.8	16459
910.915	16314
911.03	16303
911.145	16032
911.259	16013
911.374	15979
911.489	15953
911.604	15880
911.718	15747
911.833	15739
911.947	15633
912.062	15595
912.176	15694
912.291	15724
912.405	15785
912.519	15918
912.633	15953
912.748	15774
912.862	15671
912.976	15675
913.09	15454
913.204	15477
913.318	15603
913.431	15622
913.545	15633
913.659	15724
913.772	15545
913.886	15485
914	15435
914.113	15408
914.226	15466
914.34	15458
914.453	15329
914.566	15481
914.68	15275
914.793	15321
914.906	15062
915.019	15081
915.132	15009
915.245	15093
915.358	15039
915.47	14979
915.583	14990
915.696	14982
915.809	15169
915.921	15093
916.034	14982
916.146	14990
916.259	14967
916.371	15028
916.483	14956
916.595	14891
916.708	14785
916.82	14914
916.932	14727
917.044	14758
917.156	14765
917.268	14682
917.38	14648
917.491	14621
917.603	14621
917.715	14724
917.826	14705
917.938	14583
918.049	14511
918.161	14602
918.272	14777
918.384	14765
918.495	14682
918.606	14488
918.717	14431
918.828	14442
918.939	14484
919.05	14347
919.161	14408
919.272	14282
919.383	14313
919.494	14473
919.604	14613
919.715	14507
919.826	14256
919.936	14366
920.047	14473
920.157	14358
920.267	14568
920.378	14400
920.488	14412
920.598	14571
920.708	14735
920.818	14552
920.928	14511
921.038	14667
921.148	14674
921.258	14404
921.368	14267
921.477	14195
921.587	14149
921.697	13978
921.806	14088
921.916	14005
922.025	13871
922.134	13818
922.244	13738
922.353	13742
922.462	13674
922.571	13594
922.68	13480
922.789	13392
922.898	13411
923.007	13381
923.116	13480
923.224	13464
923.333	13381
923.442	13362
923.55	13217
923.659	13266
923.767	13297
923.876	13145
923.984	13339
924.092	13156
924.201	13149
924.309	13152
924.417	13175
924.525	12973
924.633	13046
924.741	13993
924.849	12897
924.956	13053
925.064	12852
925.172	12817
925.279	12821
925.387	12821
925.494	12909
925.602	12970
925.709	12947
925.816	12715
925.924	12734
926.031	12817
926.138	12772
926.245	12897
926.352	12745
926.459	12825
926.566	12833
926.673	12665
926.779	12563
926.886	12570
926.993	12506
927.099	12464
927.206	12395
927.312	12311
927.419	12441
927.525	12403
927.631	12422
927.737	12315
927.843	12300
927.95	12205
928.056	12190
928.162	12319
928.267	12262
928.373	12829
928.479	12292
928.585	12125
928.69	12186
928.796	12247
928.901	12026
929.007	12038
929.112	12102
929.218	12133
929.323	12057
929.428	12053
929.533	12064
929.638	11847
929.743	11988
929.848	11992
929.953	11923
930.058	11775
930.163	11638
930.267	11718
930.372	11729
930.477	11600
930.581	11828
930.685	11714
930.79	11539
930.894	11524
930.998	11455
931.103	11668
931.207	11318
931.311	11292
931.415	11178
931.519	10968
931.623	10869
