Data from test_V78500241_1213.txt Node
Date: Fri Mar 25 15:18:18 CST 2022
User: usil
Spectrometer: V785-0024
Trigger mode: 0
Integration Time (sec): 4.000000E-1
Scans to average: 1
Nonlinearity correction enabled: false
Boxcar width: 0
Storing dark spectrum: false
XAxis mode: Wavelengths
Number of Pixels in Spectrum: 1024
>>>>>Begin Spectral Data<<<<<
801.071	28249
801.214	28128
801.356	27785
801.499	27899
801.641	27705
801.783	27701
801.926	27614
802.068	27732
802.211	27690
802.353	27633
802.496	27408
802.638	27340
802.78	27416
802.923	27279
803.065	27226
803.208	27192
803.35	27397
803.492	27427
803.635	27583
803.777	27488
803.919	27633
804.061	27972
804.204	27633
804.346	27549
804.488	27500
804.63	27545
804.773	27496
804.915	27690
805.057	27736
805.199	27576
805.341	27728
805.483	27816
805.626	27728
805.768	27785
805.91	27701
806.052	27755
806.194	27648
806.336	27998
806.478	27747
806.62	27827
806.762	27907
806.904	27983
807.046	28230
807.188	28101
807.33	28204
807.472	28268
807.614	28105
807.756	27994
807.898	27964
808.04	27892
808.182	27979
808.324	28150
808.465	28116
808.607	28516
808.749	28341
808.891	28421
809.033	28512
809.174	28497
809.316	28428
809.458	28337
809.6	28413
809.741	28538
809.883	28561
810.025	28664
810.166	28683
810.308	28584
810.45	28634
810.591	28649
810.733	28531
810.875	28367
811.016	28333
811.158	28386
811.299	28531
811.441	28637
811.582	28489
811.724	28413
811.865	28379
812.007	28390
812.148	28398
812.29	28329
812.431	28569
812.573	28767
812.714	28755
812.855	28968
812.997	28965
813.138	29136
813.279	29033
813.421	29010
813.562	29018
813.703	28744
813.845	28675
813.986	28386
814.127	28036
814.268	28116
814.41	28097
814.551	27956
814.692	28242
814.833	28002
814.974	28128
815.115	28135
815.256	27918
815.397	27895
815.539	27994
815.68	27884
815.821	27736
815.962	27953
816.103	27880
816.244	27766
816.385	27660
816.526	27595
816.666	27542
816.807	27348
816.948	27614
817.089	27526
817.23	27500
817.371	27405
817.512	27405
817.653	27534
817.793	27287
817.934	27367
818.075	27466
818.216	27439
818.356	27454
818.497	27207
818.638	27119
818.778	27184
818.919	27119
819.06	27157
819.2	27336
819.341	27367
819.481	27469
819.622	27538
819.762	27732
819.903	27762
820.043	27561
820.184	27583
820.324	27431
820.465	27572
820.605	27515
820.746	27580
820.886	27416
821.026	27473
821.167	27538
821.307	27450
821.447	27439
821.588	27332
821.728	27123
821.868	27123
822.008	26948
822.149	26902
822.289	26872
822.429	26629
822.569	26560
822.709	26552
822.849	26446
822.99	26294
823.13	26351
823.27	26377
823.41	26248
823.55	26069
823.69	26282
823.83	26271
823.97	26107
824.11	26035
824.25	26073
824.389	25963
824.529	26176
824.669	25997
824.809	26092
824.949	26214
825.089	26206
825.228	26088
825.368	25928
825.508	25849
825.648	25925
825.787	25978
825.927	26138
826.067	25902
826.206	25932
826.346	26031
826.485	25860
826.625	25989
826.765	25795
826.904	26058
827.044	25761
827.183	25780
827.323	25662
827.462	25708
827.601	25655
827.741	25700
827.88	25719
828.02	25502
828.159	25521
828.298	25681
828.437	25731
828.577	25567
828.716	25776
828.855	25567
828.994	25301
829.134	25392
829.273	25232
829.412	25324
829.551	25400
829.69	25274
829.829	25381
829.968	25312
830.107	25419
830.246	25415
830.385	25381
830.524	25285
830.663	25145
830.802	25175
830.941	25084
831.08	24909
831.219	25110
831.357	25126
831.496	25175
831.635	25126
831.774	24878
831.913	24878
832.051	24768
832.19	24753
832.329	24787
832.467	24627
832.606	24578
832.744	24601
832.883	24673
833.022	24639
833.16	24787
833.299	24837
833.437	24669
833.576	24825
833.714	24749
833.852	24776
833.991	24798
834.129	24856
834.267	24806
834.406	24810
834.544	24745
834.682	24764
834.821	24688
834.959	24947
835.097	24741
835.235	24719
835.373	24856
835.511	24745
835.65	24715
835.788	24604
835.926	24513
836.064	24342
836.202	24414
836.34	24540
836.478	24669
836.615	24627
836.753	24574
836.891	24658
837.029	24551
837.167	24551
837.305	24540
837.443	24505
837.58	24547
837.718	24528
837.856	24399
837.993	24505
838.131	24361
838.269	24391
838.406	24464
838.544	24190
838.681	24057
838.819	24159
838.956	23931
839.094	23828
839.231	23931
839.369	24140
839.506	24247
839.643	24201
839.781	23885
839.918	23813
840.055	23863
840.193	23836
840.33	23779
840.467	23885
840.604	23745
840.742	24087
840.879	23699
841.016	23775
841.153	23699
841.29	23802
841.427	23824
841.564	23840
841.701	23999
841.838	23695
841.975	23752
842.112	23691
842.249	23634
842.385	23619
842.522	23737
842.659	23634
842.796	23570
842.933	23573
843.069	23570
843.206	23467
843.343	23699
843.479	23611
843.616	23467
843.752	23406
843.889	23471
844.025	23520
844.162	23242
844.298	23425
844.435	23311
844.571	23265
844.708	23292
844.844	23299
844.98	23459
845.117	23467
845.253	23277
845.389	23273
845.525	23102
845.661	23170
845.798	23090
845.934	23044
846.07	23014
846.206	23022
846.342	23189
846.478	23048
846.614	22919
846.75	22672
846.886	22835
847.022	22949
847.158	22889
847.294	22706
847.429	22919
847.565	22900
847.701	23113
847.837	22599
847.972	22531
848.108	22546
848.244	22557
848.379	22417
848.515	22402
848.65	22405
848.786	22421
848.921	22451
849.057	22500
849.192	22474
849.328	22516
849.463	22432
849.598	22265
849.734	22371
849.869	22318
850.004	22253
850.14	22196
850.275	22177
850.41	22116
850.545	22055
850.68	22040
850.815	22196
850.95	22257
851.085	22173
851.22	22272
851.355	22337
851.49	22204
851.625	22070
851.76	22147
851.895	22002
852.03	21983
852.165	22150
852.299	22070
852.434	22310
852.569	22226
852.703	22166
852.838	22295
852.973	22291
853.107	22188
853.242	22040
853.376	21979
853.511	21854
853.645	21922
853.78	22067
853.914	22048
854.048	21865
854.183	21918
854.317	21964
854.451	22093
854.585	21831
854.72	21865
854.854	22029
854.988	21861
855.122	21998
855.256	21884
855.39	21899
855.524	21972
855.658	21865
855.792	22021
855.926	22082
856.06	21937
856.194	22040
856.327	21964
856.461	21838
856.595	21892
856.729	21968
856.862	22116
856.996	21922
857.13	22044
857.263	22086
857.397	22063
857.53	21873
857.664	21987
857.797	21979
857.931	22090
858.064	21850
858.197	22032
858.331	22067
858.464	21983
858.597	21907
858.731	21895
858.864	21937
858.997	21998
859.13	22070
859.263	21934
859.396	22093
859.529	22051
859.662	21915
859.795	21876
859.928	22006
860.061	22120
860.194	22139
860.327	21953
860.46	22036
860.592	22097
860.725	22185
860.858	22139
860.99	21926
861.123	21949
861.256	21850
861.388	21922
861.521	22660
861.653	21835
861.786	21736
861.918	21694
862.05	21808
862.183	21934
862.315	21941
862.447	21968
862.58	21789
862.712	21713
862.844	21781
862.976	21819
863.108	21816
863.24	22010
863.372	21572
863.504	21660
863.636	21682
863.768	21641
863.9	21538
864.032	21720
864.164	21690
864.296	21819
864.428	21724
864.559	21785
864.691	21720
864.823	21717
864.954	21576
865.086	21717
865.217	21542
865.349	21405
865.48	21606
865.612	21549
865.743	21587
865.875	21504
866.006	21576
866.137	21610
866.269	21477
866.4	21488
866.531	21401
866.662	21504
866.793	21435
866.924	21576
867.055	21580
867.186	21504
867.317	21519
867.448	21363
867.579	21428
867.71	21386
867.841	21382
867.972	21519
868.103	21500
868.233	21488
868.364	21431
868.495	21587
868.625	21648
868.756	21762
868.886	21641
869.017	21686
869.147	21789
869.278	21800
869.408	21663
869.539	21720
869.669	21759
869.799	21781
869.929	21755
870.06	21808
870.19	22010
870.32	22010
870.45	22131
870.58	22006
870.71	22185
870.84	22070
870.97	21945
871.1	22120
871.23	22306
871.36	22303
871.489	22337
871.619	22253
871.749	22386
871.879	22402
872.008	22451
872.138	22371
872.267	22390
872.397	22177
872.526	22158
872.656	22101
872.785	22093
872.915	22329
873.044	22413
873.173	22265
873.303	22363
873.432	22421
873.561	22382
873.69	22295
873.819	22379
873.948	22470
874.077	22360
874.206	22215
874.335	22402
874.464	22405
874.593	22588
874.722	22489
874.851	22523
874.979	22599
875.108	22592
875.237	22413
875.365	22352
875.494	22542
875.623	22569
875.751	22516
875.88	22519
876.008	22656
876.136	22649
876.265	22930
876.393	23140
876.521	22965
876.65	22915
876.778	22866
876.906	22862
877.034	22919
877.162	23033
877.29	22892
877.418	22919
877.546	22858
877.674	22850
877.802	22885
877.93	22919
878.058	22721
878.185	22717
878.313	22816
878.441	22797
878.568	22774
878.696	22839
878.824	22892
878.951	23003
879.079	23033
879.206	23094
879.333	23029
879.461	22953
879.588	23018
879.715	23056
879.842	23235
879.97	22987
880.097	22668
880.224	22687
880.351	22736
880.478	22683
880.605	22656
880.732	22740
880.859	22942
880.986	22729
881.112	22771
881.239	22504
881.366	22508
881.493	22455
881.619	22265
881.746	22261
881.872	22265
881.999	22226
882.125	22185
882.252	22280
882.378	22230
882.505	22322
882.631	22226
882.757	22109
882.883	22021
883.01	21979
883.136	21918
883.262	21854
883.388	21846
883.514	21865
883.64	21861
883.766	21930
883.892	21736
884.018	21656
884.143	21945
884.269	21968
884.395	21663
884.52	21637
884.646	21625
884.772	21523
884.897	21473
885.023	21583
885.148	21751
885.274	21789
885.399	21679
885.524	21591
885.65	21599
885.775	21614
885.9	21587
886.025	21751
886.15	21618
886.275	21477
886.4	21397
886.525	21637
886.65	21561
886.775	21473
886.9	21720
887.025	21724
887.149	21530
887.274	21401
887.399	21431
887.523	21370
887.648	21355
887.773	21188
887.897	21507
888.021	21397
888.146	21325
888.27	21283
888.395	21481
888.519	21332
888.643	21450
888.767	21420
888.891	21283
889.015	21214
889.139	21363
889.263	21195
889.387	21302
889.511	21351
889.635	21214
889.759	21096
889.883	21165
890.006	21169
890.13	21294
890.254	21051
890.377	21112
890.501	20792
890.624	20929
890.748	20975
890.871	20716
890.995	20667
891.118	20693
891.241	20708
891.364	20762
891.488	20883
891.611	20724
891.734	20777
891.857	20705
891.98	20750
892.103	20815
892.226	20735
892.349	20514
892.471	20522
892.594	20579
892.717	20724
892.839	20473
892.962	20735
893.085	20750
893.207	20640
893.33	20598
893.452	20571
893.575	20602
893.697	20613
893.819	20800
893.941	20667
894.064	20693
894.186	20644
894.308	20549
894.43	20705
894.552	20826
894.674	20549
894.796	20461
894.918	20667
895.04	20621
895.161	20640
895.283	20667
895.405	20511
895.526	20522
895.648	20556
895.769	20537
895.891	20507
896.012	20648
896.134	20705
896.255	20629
896.376	20564
896.498	20537
896.619	20609
896.74	20606
896.861	20617
896.982	20845
897.103	21047
897.224	20708
897.345	20754
897.466	20720
897.587	20777
897.708	21005
897.828	20853
897.949	20769
898.07	20552
898.19	20750
898.311	20861
898.431	20788
898.552	20743
898.672	20845
898.792	20769
898.913	20876
899.033	20724
899.153	20678
899.273	20480
899.393	20530
899.513	20583
899.633	20537
899.753	20476
899.873	20404
899.993	20564
900.113	20492
900.232	20469
900.352	20446
900.472	20294
900.591	20164
900.711	20328
900.83	20164
900.95	20358
901.069	20263
901.189	20077
901.308	19936
901.427	19906
901.546	19864
901.665	19928
901.784	19852
901.904	19696
902.023	19655
902.141	19472
902.26	19537
902.379	19495
902.498	19304
902.617	19324
902.735	19324
902.854	19343
902.973	19206
903.091	19091
903.21	19057
903.328	19061
903.446	19008
903.565	18787
903.683	18810
903.801	18719
903.919	18715
904.038	18738
904.156	18608
904.274	18703
904.392	18612
904.51	18601
904.627	18669
904.745	18681
904.863	18585
904.981	18376
905.098	18205
905.216	18220
905.334	18327
905.451	18327
905.569	18239
905.686	18361
905.803	18292
905.921	18015
906.038	18095
906.155	18171
906.272	17984
906.389	18011
906.506	17855
906.623	17901
906.74	17836
906.857	17661
906.974	17718
907.091	17935
907.208	17901
907.324	17840
907.441	17756
907.557	17573
907.674	17512
907.79	17433
907.907	17566
908.023	17627
908.139	17471
908.256	17391
908.372	17448
908.488	17395
908.604	17345
908.72	17231
908.836	17223
908.952	17299
909.068	17254
909.184	17337
909.3	17258
909.415	17292
909.531	17254
909.647	16927
909.762	17014
909.878	16957
909.993	16976
910.108	17003
910.224	16889
910.339	16847
910.454	16820
910.57	16805
910.685	16767
910.8	16919
910.915	16850
911.03	16778
911.145	16649
911.259	16489
911.374	16493
911.489	16497
911.604	16360
911.718	16257
911.833	16303
911.947	16249
912.062	16120
912.176	16230
912.291	16280
912.405	16192
912.519	16504
912.633	16417
912.748	16318
912.862	16265
912.976	16135
913.09	16025
913.204	16059
913.318	16048
913.431	16166
913.545	16131
913.659	16067
913.772	16090
913.886	16086
914	15850
914.113	15987
914.226	15994
914.34	15964
914.453	15644
914.566	15884
914.68	15774
914.793	15720
914.906	15511
915.019	15351
915.132	15401
915.245	15492
915.358	15454
915.47	15545
915.583	15416
915.696	15561
915.809	15625
915.921	15675
916.034	15450
916.146	15428
916.259	15272
916.371	15469
916.483	15454
916.595	15351
916.708	15310
916.82	15245
916.932	15275
917.044	15188
917.156	15336
917.268	15116
917.38	15169
917.491	15119
917.603	15157
917.715	15097
917.826	15203
917.938	15112
918.049	14902
918.161	15108
918.272	15173
918.384	15173
918.495	15085
918.606	14952
918.717	14804
918.828	14971
918.939	14849
919.05	14842
919.161	14918
919.272	14712
919.383	14682
919.494	14902
919.604	15017
919.715	14842
919.826	14735
919.936	14781
920.047	14864
920.157	14785
920.267	15070
920.378	14876
920.488	14758
920.598	14914
920.708	15020
920.818	14933
920.928	14986
921.038	15058
921.148	15127
921.258	14785
921.368	14640
921.477	14511
921.587	14632
921.697	14385
921.806	14560
921.916	14408
922.025	14237
922.134	14142
922.244	14100
922.353	14180
922.462	14073
922.571	13921
922.68	13856
922.789	13906
922.898	13830
923.007	13788
923.116	13879
923.224	13807
923.333	13791
923.442	13586
923.55	13597
923.659	13723
923.767	13761
923.876	13632
923.984	13719
924.092	13506
924.201	13559
924.309	13514
924.417	13597
924.525	13491
924.633	13460
924.741	14073
924.849	13388
924.956	13384
925.064	13270
925.172	13164
925.279	13232
925.387	13183
925.494	13171
925.602	13400
925.709	13255
925.816	13122
925.924	13183
926.031	13365
926.138	13080
926.245	13190
926.352	13084
926.459	13099
926.566	13274
926.673	13088
926.779	13000
926.886	12920
926.993	12753
927.099	12745
927.206	12787
927.312	12726
927.419	12810
927.525	12798
927.631	12806
927.737	12616
927.843	12654
927.95	12513
928.056	12574
928.162	12532
928.267	12620
928.373	13076
928.479	12646
928.585	12475
928.69	12570
928.796	12627
928.901	12525
929.007	12300
929.112	12509
929.218	12410
929.323	12296
929.428	12251
929.533	12486
929.638	12209
929.743	12277
929.848	12213
929.953	12277
930.058	12076
930.163	11980
930.267	11969
930.372	12148
930.477	11961
930.581	12228
930.685	12011
930.79	11897
930.894	11935
930.998	11821
931.103	12041
931.207	11623
931.311	11535
931.415	11395
931.519	11334
931.623	11284
