Data from test_V78500241_3047.txt Node
Date: Fri Mar 25 15:31:04 CST 2022
User: usil
Spectrometer: V785-0024
Trigger mode: 0
Integration Time (sec): 4.000000E-1
Scans to average: 1
Nonlinearity correction enabled: false
Boxcar width: 0
Storing dark spectrum: false
XAxis mode: Wavelengths
Number of Pixels in Spectrum: 1024
>>>>>Begin Spectral Data<<<<<
801.071	27131
801.214	27226
801.356	27009
801.499	26811
801.641	26762
801.783	26811
801.926	26853
802.068	26739
802.211	26708
802.353	26727
802.496	26488
802.638	26533
802.78	26507
802.923	26187
803.065	26313
803.208	26187
803.35	26328
803.492	26632
803.635	26621
803.777	26507
803.919	26537
804.061	26918
804.204	26651
804.346	26393
804.488	26434
804.63	26583
804.773	26492
804.915	26537
805.057	26735
805.199	26564
805.341	26617
805.483	26785
805.626	26568
805.768	26655
805.91	26663
806.052	26739
806.194	26648
806.336	26838
806.478	26765
806.62	26609
806.762	26758
806.904	27001
807.046	27112
807.188	27127
807.33	27089
807.472	27112
807.614	26914
807.756	27074
807.898	26925
808.04	26887
808.182	26891
808.324	26880
808.465	26910
808.607	27009
808.749	27367
808.891	27336
809.033	27397
809.174	27237
809.316	27195
809.458	27272
809.6	27154
809.741	27317
809.883	27431
810.025	27477
810.166	27583
810.308	27462
810.45	27515
810.591	27405
810.733	27218
810.875	27268
811.016	27165
811.158	27173
811.299	27355
811.441	27439
811.582	27500
811.724	27359
811.865	27218
812.007	27188
812.148	27249
812.29	27329
812.431	27443
812.573	27542
812.714	27473
812.855	27736
812.997	27964
813.138	28010
813.279	27850
813.421	27766
813.562	27720
813.703	27507
813.845	27469
813.986	27081
814.127	26910
814.268	26899
814.41	26910
814.551	26963
814.692	26872
814.833	26868
814.974	26762
815.115	26849
815.256	26845
815.397	26868
815.539	26712
815.68	26739
815.821	26598
815.962	26659
816.103	26609
816.244	26507
816.385	26526
816.526	26290
816.666	26092
816.807	25951
816.948	26191
817.089	26252
817.23	26187
817.371	25982
817.512	26054
817.653	26111
817.793	26195
817.934	26122
818.075	26176
818.216	26180
818.356	26107
818.497	26218
818.638	25890
818.778	25868
818.919	25879
819.06	26164
819.2	26069
819.341	26195
819.481	26046
819.622	26355
819.762	26381
819.903	26396
820.043	26370
820.184	26210
820.324	26157
820.465	26347
820.605	26275
820.746	26100
820.886	26161
821.026	26305
821.167	26176
821.307	26153
821.447	26145
821.588	26016
821.728	25822
821.868	25826
822.008	25590
822.149	25681
822.289	25624
822.429	25327
822.569	25293
822.709	25240
822.849	25194
822.99	25145
823.13	25129
823.27	25099
823.41	24966
823.55	24882
823.69	25004
823.83	24939
823.97	24833
824.11	24730
824.25	24730
824.389	24791
824.529	24726
824.669	24753
824.809	24840
824.949	24848
825.089	24821
825.228	24821
825.368	24597
825.508	24627
825.648	24582
825.787	24604
825.927	24604
826.067	24627
826.206	24681
826.346	24661
826.485	24585
826.625	24547
826.765	24772
826.904	24589
827.044	24407
827.183	24338
827.323	24296
827.462	24194
827.601	24384
827.741	24247
827.88	24266
828.02	24209
828.159	24209
828.298	24323
828.437	24273
828.577	24216
828.716	24471
828.855	24281
828.994	23988
829.134	23969
829.273	24041
829.412	23931
829.551	23980
829.69	24030
829.829	23973
829.968	24041
830.107	24083
830.246	24057
830.385	24106
830.524	23992
830.663	23756
830.802	23771
830.941	23589
831.08	23524
831.219	23646
831.357	23566
831.496	23874
831.635	23638
831.774	23417
831.913	23398
832.051	23368
832.19	23410
832.329	23345
832.467	23372
832.606	23204
832.744	23242
832.883	23227
833.022	23174
833.16	23307
833.299	23288
833.437	23208
833.576	23208
833.714	23341
833.852	23459
833.991	23452
834.129	23421
834.267	23459
834.406	23307
834.544	23372
834.682	23349
834.821	23204
834.959	23455
835.097	23292
835.235	23239
835.373	23299
835.511	23341
835.65	23212
835.788	23265
835.926	23056
836.064	22972
836.202	23098
836.34	23258
836.478	23364
836.615	23216
836.753	23200
836.891	23280
837.029	23208
837.167	23143
837.305	23029
837.443	23086
837.58	23083
837.718	23109
837.856	23105
837.993	22923
838.131	22923
838.269	22991
838.406	23006
838.544	22831
838.681	22683
838.819	22653
838.956	22561
839.094	22489
839.231	22660
839.369	22630
839.506	22881
839.643	22759
839.781	22550
839.918	22424
840.055	22470
840.193	22451
840.33	22504
840.467	22440
840.604	22535
840.742	22672
840.879	22310
841.016	22344
841.153	22322
841.29	22527
841.427	22405
841.564	22333
841.701	22363
841.838	22295
841.975	22375
842.112	22371
842.249	22337
842.385	22143
842.522	22424
842.659	22341
842.796	22162
842.933	22265
843.069	22147
843.206	22200
843.343	22147
843.479	22162
843.616	22078
843.752	21953
843.889	21994
844.025	22154
844.162	21838
844.298	21991
844.435	21964
844.571	21903
844.708	21998
844.844	22116
844.98	22070
845.117	22036
845.253	21994
845.389	21819
845.525	21911
845.661	21899
845.798	21728
845.934	21713
846.07	21599
846.206	21751
846.342	21781
846.478	21656
846.614	21572
846.75	21454
846.886	21473
847.022	21557
847.158	21530
847.294	21496
847.429	21492
847.565	21397
847.701	21644
847.837	21279
847.972	21161
848.108	21268
848.244	21222
848.379	21093
848.515	21039
848.65	21066
848.786	21017
848.921	21089
849.057	21195
849.192	21188
849.328	21161
849.463	20975
849.598	21047
849.734	20937
849.869	20838
850.004	20758
850.14	20842
850.275	20807
850.41	20682
850.545	20819
850.68	20739
850.815	20731
850.95	20864
851.085	20906
851.22	20921
851.355	20724
851.49	20777
851.625	20838
851.76	20762
851.895	20762
852.03	20727
852.165	20739
852.299	20792
852.434	20845
852.569	20804
852.703	20746
852.838	20899
852.973	20925
853.107	20815
853.242	20727
853.376	20727
853.511	20537
853.645	20587
853.78	20724
853.914	20697
854.048	20644
854.183	20602
854.317	20579
854.451	20857
854.585	20617
854.72	20598
854.854	20705
854.988	20484
855.122	20533
855.256	20571
855.39	20621
855.524	20693
855.658	20609
855.792	20583
855.926	20674
856.06	20648
856.194	20765
856.327	20530
856.461	20602
856.595	20549
856.729	20583
856.862	20682
856.996	20758
857.13	20724
857.263	20716
857.397	20727
857.53	20492
857.664	20743
857.797	20648
857.931	20712
858.064	20693
858.197	20613
858.331	20575
858.464	20530
858.597	20499
858.731	20629
858.864	20499
858.997	20552
859.13	20571
859.263	20720
859.396	20777
859.529	20632
859.662	20640
859.795	20579
859.928	20670
860.061	20750
860.194	20842
860.327	20693
860.46	20663
860.592	20842
860.725	20754
860.858	20682
860.99	20674
861.123	20461
861.256	20537
861.388	20739
861.521	21268
861.653	20431
861.786	20286
861.918	20461
862.05	20617
862.183	20412
862.315	20537
862.447	20629
862.58	20625
862.712	20229
862.844	20450
862.976	20396
863.108	20484
863.24	20773
863.372	20309
863.504	20305
863.636	20358
863.768	20412
863.9	20419
864.032	20210
864.164	20347
864.296	20351
864.428	20393
864.559	20362
864.691	20358
864.823	20336
864.954	20305
865.086	20339
865.217	20214
865.349	20157
865.48	20164
865.612	20210
865.743	20324
865.875	20183
866.006	20214
866.137	20267
866.269	20248
866.4	20214
866.531	20081
866.662	20138
866.793	20244
866.924	20218
867.055	20271
867.186	20172
867.317	20088
867.448	20149
867.579	20248
867.71	20077
867.841	20225
867.972	20050
868.103	20062
868.233	20161
868.364	20199
868.495	20225
868.625	20423
868.756	20431
868.886	20332
869.017	20377
869.147	20473
869.278	20609
869.408	20465
869.539	20461
869.669	20503
869.799	20492
869.929	20598
870.06	20575
870.19	20876
870.32	20765
870.45	20712
870.58	20838
870.71	20880
870.84	20979
870.97	20785
871.1	20857
871.23	20952
871.36	20967
871.489	20979
871.619	20975
871.749	20982
871.879	20956
872.008	21089
872.138	21081
872.267	21081
872.397	20796
872.526	20838
872.656	20845
872.785	20925
872.915	21043
873.044	21085
873.173	21192
873.303	21165
873.432	21020
873.561	21169
873.69	20990
873.819	21070
873.948	21112
874.077	21028
874.206	21001
874.335	20998
874.464	21058
874.593	21340
874.722	21192
874.851	21245
874.979	21313
875.108	21313
875.237	21317
875.365	21226
875.494	21260
875.623	21313
875.751	21218
875.88	21351
876.008	21450
876.136	21466
876.265	21637
876.393	21717
876.521	21701
876.65	21789
876.778	21675
876.906	21523
877.034	21580
877.162	21667
877.29	21576
877.418	21675
877.546	21656
877.674	21698
877.802	21606
877.93	21637
878.058	21671
878.185	21488
878.313	21523
878.441	21587
878.568	21466
878.696	21477
878.824	21648
878.951	21694
879.079	21876
879.206	21968
879.333	21899
879.461	21606
879.588	21641
879.715	21857
879.842	21865
879.97	21629
880.097	21481
880.224	21492
880.351	21553
880.478	21580
880.605	21496
880.732	21450
880.859	21648
880.986	21485
881.112	21610
881.239	21291
881.366	21161
881.493	21169
881.619	21085
881.746	21123
881.872	21013
881.999	20948
882.125	20952
882.252	21036
882.378	21005
882.505	21085
882.631	20800
882.757	20883
882.883	20834
883.01	20678
883.136	20746
883.262	20609
883.388	20632
883.514	20788
883.64	20883
883.766	20724
883.892	20530
884.018	20636
884.143	20659
884.269	20819
884.395	20461
884.52	20377
884.646	20400
884.772	20476
884.897	20256
885.023	20480
885.148	20427
885.274	20541
885.399	20415
885.524	20469
885.65	20393
885.775	20442
885.9	20214
886.025	20575
886.15	20465
886.275	20336
886.4	20278
886.525	20396
886.65	20385
886.775	20393
886.9	20457
887.025	20689
887.149	20503
887.274	20187
887.399	20062
887.523	20172
887.648	20145
887.773	20092
887.897	20259
888.021	20149
888.146	20138
888.27	20286
888.395	20351
888.519	20115
888.643	20244
888.767	20111
888.891	20031
889.015	20031
889.139	20024
889.263	20020
889.387	20027
889.511	20145
889.635	20122
889.759	19989
889.883	19932
890.006	20069
890.13	20012
890.254	19811
890.377	19856
890.501	19700
890.624	19803
890.748	19791
890.871	19632
890.995	19597
891.118	19563
891.241	19643
891.364	19457
891.488	19655
891.611	19582
891.734	19540
891.857	19510
891.98	19529
892.103	19674
892.226	19628
892.349	19487
892.471	19419
892.594	19556
892.717	19563
892.839	19441
892.962	19445
893.085	19563
893.207	19605
893.33	19400
893.452	19449
893.575	19521
893.697	19483
893.819	19582
893.941	19662
894.064	19624
894.186	19480
894.308	19381
894.43	19559
894.552	19628
894.674	19567
894.796	19495
894.918	19438
895.04	19483
895.161	19540
895.283	19510
895.405	19365
895.526	19571
895.648	19426
895.769	19499
895.891	19403
896.012	19518
896.134	19567
896.255	19518
896.376	19502
896.498	19525
896.619	19529
896.74	19422
896.861	19483
896.982	19898
897.103	20138
897.224	19715
897.345	19795
897.466	19681
897.587	19719
897.708	19822
897.828	19681
897.949	19685
898.07	19514
898.19	19643
898.311	19864
898.431	19791
898.552	19795
898.672	19742
898.792	19822
898.913	19765
899.033	19605
899.153	19518
899.273	19464
899.393	19483
899.513	19388
899.633	19476
899.753	19529
899.873	19445
899.993	19369
900.113	19407
900.232	19529
900.352	19384
900.472	19316
900.591	19236
900.711	19301
900.83	19228
900.95	19373
901.069	19396
901.189	19175
901.308	19015
901.427	18856
901.546	18897
901.665	18890
901.784	18924
901.904	18715
902.023	18677
902.141	18429
902.26	18448
902.379	18585
902.498	18467
902.617	18353
902.735	18509
902.854	18357
902.973	18281
903.091	17965
903.21	18155
903.328	18057
903.446	18091
903.565	17866
903.683	17908
903.801	17760
903.919	17870
904.038	17748
904.156	17653
904.274	17726
904.392	17707
904.51	17630
904.627	17657
904.745	17722
904.863	17646
904.981	17349
905.098	17334
905.216	17273
905.334	17296
905.451	17303
905.569	17250
905.686	17395
905.803	17318
905.921	17212
906.038	17162
906.155	17162
906.272	16961
906.389	16991
906.506	16820
906.623	16835
906.74	16911
906.857	16805
906.974	16809
907.091	16885
907.208	16953
907.324	16927
907.441	16790
907.557	16626
907.674	16489
907.79	16459
907.907	16573
908.023	16618
908.139	16489
908.256	16599
908.372	16382
908.488	16325
908.604	16295
908.72	16211
908.836	16337
908.952	16207
909.068	16238
909.184	16375
909.3	16284
909.415	16318
909.531	16276
909.647	16029
909.762	15983
909.878	15949
909.993	16006
910.108	16051
910.224	15994
910.339	16055
910.454	15869
910.57	15778
910.685	15736
910.8	15930
910.915	15979
911.03	15755
911.145	15667
911.259	15553
911.374	15606
911.489	15485
911.604	15549
911.718	15416
911.833	15424
911.947	15176
912.062	15218
912.176	15412
912.291	15485
912.405	15401
912.519	15584
912.633	15584
912.748	15344
912.862	15325
912.976	15157
913.09	15066
913.204	15028
913.318	15108
913.431	15233
913.545	15264
913.659	15306
913.772	15157
913.886	14986
914	14963
914.113	15081
914.226	15070
914.34	15047
914.453	14895
914.566	15058
914.68	14857
914.793	14861
914.906	14697
915.019	14602
915.132	14503
915.245	14602
915.358	14625
915.47	14583
915.583	14659
915.696	14678
915.809	14678
915.921	14743
916.034	14587
916.146	14549
916.259	14450
916.371	14625
916.483	14621
916.595	14450
916.708	14507
916.82	14518
916.932	14339
917.044	14465
917.156	14419
917.268	14298
917.38	14324
917.491	14229
917.603	14317
917.715	14377
917.826	14370
917.938	14210
918.049	14100
918.161	14252
918.272	14328
918.384	14332
918.495	14199
918.606	14012
918.717	14084
918.828	14130
918.939	14077
919.05	13868
919.161	13989
919.272	13890
919.383	13982
919.494	14088
919.604	14252
919.715	14016
919.826	13959
919.936	13989
920.047	14062
920.157	14134
920.267	14191
920.378	13967
920.488	14096
920.598	14168
920.708	14309
920.818	14123
920.928	14164
921.038	14248
921.148	14248
921.258	14012
921.368	13921
921.477	13784
921.587	13788
921.697	13609
921.806	13772
921.916	13632
922.025	13514
922.134	13472
922.244	13441
922.353	13518
922.462	13304
922.571	13312
922.68	13110
922.789	13065
922.898	13156
923.007	12958
923.116	13156
923.224	13038
923.333	13088
923.442	12935
923.55	12837
923.659	12939
923.767	13046
923.876	12852
923.984	12897
924.092	12810
924.201	12848
924.309	12871
924.417	12909
924.525	12783
924.633	12684
924.741	13723
924.849	12570
924.956	12688
925.064	12502
925.172	12452
925.279	12521
925.387	12517
925.494	12471
925.602	12650
925.709	12555
925.816	12471
925.924	12483
926.031	12479
926.138	12407
926.245	12559
926.352	12319
926.459	12418
926.566	12506
926.673	12410
926.779	12342
926.886	12327
926.993	12117
927.099	12049
927.206	12076
927.312	12007
927.419	12140
927.525	12076
927.631	12068
927.737	11950
927.843	11950
927.95	11885
928.056	11958
928.162	11969
928.267	12053
928.373	12479
928.479	11977
928.585	11798
928.69	11878
928.796	11840
928.901	11893
929.007	11707
929.112	11748
929.218	11752
929.323	11642
929.428	11649
929.533	11783
929.638	11604
929.743	11581
929.848	11596
929.953	11672
930.058	11482
930.163	11398
930.267	11277
930.372	11570
930.477	11334
930.581	11562
930.685	11448
930.79	11147
930.894	11193
930.998	11273
931.103	11387
931.207	11014
931.311	10980
931.415	10824
931.519	10698
931.623	10641
