Data from test_V78500241_1360.txt Node
Date: Fri Mar 25 15:19:19 CST 2022
User: usil
Spectrometer: V785-0024
Trigger mode: 0
Integration Time (sec): 4.000000E-1
Scans to average: 1
Nonlinearity correction enabled: false
Boxcar width: 0
Storing dark spectrum: false
XAxis mode: Wavelengths
Number of Pixels in Spectrum: 1024
>>>>>Begin Spectral Data<<<<<
801.071	28109
801.214	27956
801.356	27808
801.499	27644
801.641	27660
801.783	27660
801.926	27648
802.068	27595
802.211	27606
802.353	27439
802.496	27329
802.638	27237
802.78	27241
802.923	27252
803.065	27214
803.208	27123
803.35	27336
803.492	27363
803.635	27572
803.777	27279
803.919	27466
804.061	27698
804.204	27473
804.346	27401
804.488	27268
804.63	27412
804.773	27329
804.915	27523
805.057	27530
805.199	27576
805.341	27473
805.483	27637
805.626	27641
805.768	27469
805.91	27652
806.052	27690
806.194	27599
806.336	27838
806.478	27648
806.62	27663
806.762	27842
806.904	27892
807.046	28135
807.188	27911
807.33	28105
807.472	28112
807.614	27964
807.756	27975
807.898	27945
808.04	27808
808.182	27987
808.324	27945
808.465	27854
808.607	28226
808.749	28325
808.891	28223
809.033	28379
809.174	28265
809.316	28135
809.458	28223
809.6	28226
809.741	28409
809.883	28322
810.025	28702
810.166	28535
810.308	28390
810.45	28443
810.591	28424
810.733	28284
810.875	28325
811.016	27979
811.158	28344
811.299	28398
811.441	28344
811.582	28379
811.724	28322
811.865	28204
812.007	28280
812.148	28185
812.29	28329
812.431	28516
812.573	28618
812.714	28622
812.855	28824
812.997	28828
813.138	29098
813.279	28816
813.421	28778
813.562	28687
813.703	28596
813.845	28451
813.986	28128
814.127	28086
814.268	28013
814.41	28032
814.551	27831
814.692	28147
814.833	27869
814.974	27934
815.115	28074
815.256	27713
815.397	28032
815.539	27835
815.68	27667
815.821	27519
815.962	27785
816.103	27918
816.244	27778
816.385	27690
816.526	27405
816.666	27298
816.807	27260
816.948	27374
817.089	27393
817.23	27344
817.371	27237
817.512	27279
817.653	27211
817.793	27150
817.934	27275
818.075	27321
818.216	27325
818.356	27116
818.497	27180
818.638	27077
818.778	27032
818.919	27001
819.06	27119
819.2	27161
819.341	27336
819.481	27237
819.622	27336
819.762	27667
819.903	27542
820.043	27431
820.184	27511
820.324	27439
820.465	27408
820.605	27359
820.746	27348
820.886	27348
821.026	27378
821.167	27252
821.307	27386
821.447	27355
821.588	27188
821.728	27157
821.868	26853
822.008	26758
822.149	26678
822.289	26629
822.429	26556
822.569	26393
822.709	26423
822.849	26339
822.99	26214
823.13	26126
823.27	26218
823.41	26039
823.55	25970
823.69	26084
823.83	26062
823.97	26054
824.11	25917
824.25	25799
824.389	25822
824.529	25993
824.669	25909
824.809	25936
824.949	26065
825.089	25944
825.228	25932
825.368	25761
825.508	25814
825.648	25807
825.787	25776
825.927	25772
826.067	25746
826.206	25731
826.346	25849
826.485	25712
826.625	25814
826.765	25765
826.904	25841
827.044	25563
827.183	25594
827.323	25381
827.462	25426
827.601	25434
827.741	25441
827.88	25472
828.02	25403
828.159	25495
828.298	25502
828.437	25521
828.577	25384
828.716	25537
828.855	25384
828.994	25187
829.134	25160
829.273	25168
829.412	25061
829.551	25171
829.69	25110
829.829	25095
829.968	25266
830.107	25202
830.246	25244
830.385	25236
830.524	24966
830.663	25042
830.802	24901
830.941	24768
831.08	24760
831.219	24825
831.357	24783
831.496	24932
831.635	24817
831.774	24589
831.913	24738
832.051	24734
832.19	24532
832.329	24642
832.467	24471
832.606	24429
832.744	24334
832.883	24475
833.022	24490
833.16	24532
833.299	24479
833.437	24471
833.576	24483
833.714	24578
833.852	24578
833.991	24582
834.129	24486
834.267	24646
834.406	24521
834.544	24521
834.682	24479
834.821	24532
834.959	24639
835.097	24494
835.235	24460
835.373	24475
835.511	24559
835.65	24308
835.788	24369
835.926	24239
836.064	24167
836.202	24171
836.34	24391
836.478	24452
836.615	24399
836.753	24232
836.891	24551
837.029	24544
837.167	24289
837.305	24338
837.443	24323
837.58	24220
837.718	24254
837.856	24205
837.993	24095
838.131	24171
838.269	24018
838.406	24213
838.544	24018
838.681	23752
838.819	23790
838.956	23649
839.094	23783
839.231	23676
839.369	23745
839.506	23999
839.643	23901
839.781	23619
839.918	23554
840.055	23665
840.193	23676
840.33	23486
840.467	23562
840.604	23707
840.742	23954
840.879	23356
841.016	23551
841.153	23406
841.29	23623
841.427	23596
841.564	23600
841.701	23573
841.838	23406
841.975	23410
842.112	23440
842.249	23368
842.385	23265
842.522	23467
842.659	23265
842.796	23288
842.933	23284
843.069	23345
843.206	23280
843.343	23334
843.479	23254
843.616	23288
843.752	23098
843.889	23216
844.025	23239
844.162	23060
844.298	23166
844.435	23025
844.571	22942
844.708	23117
844.844	23296
844.98	23231
845.117	23155
845.253	23037
845.389	22938
845.525	23132
845.661	23105
845.798	22790
845.934	22873
846.07	22801
846.206	22778
846.342	22976
846.478	22752
846.614	22649
846.75	22504
846.886	22588
847.022	22630
847.158	22607
847.294	22584
847.429	22599
847.565	22599
847.701	22713
847.837	22310
847.972	22402
848.108	22565
848.244	22489
848.379	22101
848.515	22128
848.65	22021
848.786	22093
848.921	22188
849.057	22154
849.192	22226
849.328	22215
849.463	22242
849.598	22082
849.734	22143
849.869	22021
850.004	21800
850.14	21892
850.275	21918
850.41	21679
850.545	21831
850.68	21857
850.815	22006
850.95	21808
851.085	22040
851.22	22021
851.355	21838
851.49	21930
851.625	21865
851.76	21884
851.895	21766
852.03	21774
852.165	21846
852.299	21876
852.434	21994
852.569	21983
852.703	21865
852.838	21941
852.973	21937
853.107	21892
853.242	21926
853.376	21641
853.511	21557
853.645	21694
853.78	21880
853.914	21854
854.048	21732
854.183	21755
854.317	21759
854.451	21880
854.585	21705
854.72	21705
854.854	21766
854.988	21667
855.122	21720
855.256	21553
855.39	21637
855.524	21781
855.658	21819
855.792	21759
855.926	21766
856.06	21785
856.194	21846
856.327	21724
856.461	21736
856.595	21694
856.729	21591
856.862	21778
856.996	21762
857.13	21694
857.263	21880
857.397	21854
857.53	21568
857.664	21698
857.797	21819
857.931	21797
858.064	21747
858.197	21835
858.331	21720
858.464	21644
858.597	21629
858.731	21603
858.864	21759
858.997	21717
859.13	21736
859.263	21686
859.396	21838
859.529	21709
859.662	21717
859.795	21618
859.928	21728
860.061	21823
860.194	21899
860.327	21732
860.46	21618
860.592	21838
860.725	21922
860.858	21865
860.99	21831
861.123	21648
861.256	21606
861.388	21629
861.521	22310
861.653	21454
861.786	21561
861.918	21561
862.05	21622
862.183	21625
862.315	21667
862.447	21762
862.58	21652
862.712	21469
862.844	21351
862.976	21641
863.108	21393
863.24	21759
863.372	21241
863.504	21374
863.636	21382
863.768	21477
863.9	21416
864.032	21363
864.164	21378
864.296	21595
864.428	21473
864.559	21534
864.691	21428
864.823	21405
864.954	21420
865.086	21408
865.217	21363
865.349	21138
865.48	21332
865.612	21241
865.743	21428
865.875	21363
866.006	21237
866.137	21420
866.269	21256
866.4	21313
866.531	21313
866.662	21176
866.793	21192
866.924	21317
867.055	21283
867.186	21233
867.317	21116
867.448	21176
867.579	21173
867.71	21081
867.841	21176
867.972	21302
868.103	21264
868.233	21173
868.364	21435
868.495	21443
868.625	21443
868.756	21504
868.886	21408
869.017	21386
869.147	21515
869.278	21519
869.408	21591
869.539	21424
869.669	21557
869.799	21492
869.929	21534
870.06	21583
870.19	21823
870.32	21850
870.45	21846
870.58	21895
870.71	21975
870.84	22029
870.97	21953
871.1	21781
871.23	21991
871.36	22029
871.489	21956
871.619	22105
871.749	22112
871.879	22051
872.008	22059
872.138	22036
872.267	22051
872.397	21975
872.526	21922
872.656	21892
872.785	21937
872.915	22181
873.044	22249
873.173	22090
873.303	22051
873.432	22124
873.561	22177
873.69	21926
873.819	22048
873.948	22105
874.077	22112
874.206	22013
874.335	22188
874.464	22341
874.593	22257
874.722	22284
874.851	22432
874.979	22348
875.108	22284
875.237	22310
875.365	22211
875.494	22280
875.623	22287
875.751	22226
875.88	22375
876.008	22508
876.136	22500
876.265	22592
876.393	22778
876.521	22656
876.65	22759
876.778	22744
876.906	22698
877.034	22557
877.162	22694
877.29	22588
877.418	22824
877.546	22527
877.674	22630
877.802	22592
877.93	22508
878.058	22759
878.185	22542
878.313	22565
878.441	22702
878.568	22516
878.696	22588
878.824	22733
878.951	22687
879.079	22847
879.206	23006
879.333	22706
879.461	22641
879.588	22816
879.715	22839
879.842	22889
879.97	22615
880.097	22626
880.224	22299
880.351	22497
880.478	22512
880.605	22386
880.732	22527
880.859	22733
880.986	22440
881.112	22497
881.239	22455
881.366	22318
881.493	22181
881.619	22021
881.746	22143
881.872	22055
881.999	22025
882.125	21998
882.252	22032
882.378	21975
882.505	22181
882.631	21937
882.757	21861
882.883	21804
883.01	21838
883.136	21603
883.262	21568
883.388	21576
883.514	21686
883.64	21724
883.766	21736
883.892	21545
884.018	21519
884.143	21724
884.269	21728
884.395	21637
884.52	21405
884.646	21355
884.772	21268
884.897	21317
885.023	21485
885.148	21477
885.274	21466
885.399	21397
885.524	21367
885.65	21458
885.775	21488
885.9	21325
886.025	21435
886.15	21431
886.275	21302
886.4	21412
886.525	21408
886.65	21207
886.775	21279
886.9	21462
887.025	21648
887.149	21264
887.274	21154
887.399	21184
887.523	20998
887.648	21104
887.773	21062
887.897	21283
888.021	21214
888.146	21116
888.27	21256
888.395	21211
888.519	21112
888.643	21058
888.767	21150
888.891	21108
889.015	21009
889.139	21070
889.263	20899
889.387	21096
889.511	21123
889.635	21074
889.759	21032
889.883	20914
890.006	20842
890.13	21013
890.254	20819
890.377	20857
890.501	20777
890.624	20708
890.748	20750
890.871	20632
890.995	20598
891.118	20381
891.241	20606
891.364	20488
891.488	20549
891.611	20526
891.734	20488
891.857	20632
891.98	20454
892.103	20590
892.226	20511
892.349	20343
892.471	20320
892.594	20347
892.717	20366
892.839	20339
892.962	20389
893.085	20537
893.207	20530
893.33	20252
893.452	20305
893.575	20480
893.697	20469
893.819	20522
893.941	20602
894.064	20537
894.186	20362
894.308	20351
894.43	20484
894.552	20507
894.674	20537
894.796	20317
894.918	20336
895.04	20320
895.161	20469
895.283	20484
895.405	20252
895.526	20393
895.648	20351
895.769	20396
895.891	20484
896.012	20511
896.134	20488
896.255	20454
896.376	20336
896.498	20343
896.619	20404
896.74	20461
896.861	20355
896.982	20712
897.103	20792
897.224	20743
897.345	20621
897.466	20530
897.587	20507
897.708	20769
897.828	20697
897.949	20495
898.07	20507
898.19	20533
898.311	20708
898.431	20556
898.552	20632
898.672	20686
898.792	20659
898.913	20602
899.033	20370
899.153	20385
899.273	20271
899.393	20400
899.513	20412
899.633	20396
899.753	20434
899.873	20195
899.993	20385
900.113	20202
900.232	20336
900.352	20290
900.472	20195
900.591	20126
900.711	20149
900.83	20191
900.95	20252
901.069	20244
901.189	19955
901.308	19814
901.427	19681
901.546	19708
901.665	19681
901.784	19750
901.904	19426
902.023	19453
902.141	19270
902.26	19293
902.379	19358
902.498	19187
902.617	19069
902.735	19285
902.854	19137
902.973	19046
903.091	18882
903.21	18886
903.328	18856
903.446	18745
903.565	18719
903.683	18661
903.801	18620
903.919	18604
904.038	18551
904.156	18388
904.274	18570
904.392	18388
904.51	18528
904.627	18353
904.745	18585
904.863	18445
904.981	18350
905.098	18174
905.216	18209
905.334	18209
905.451	18125
905.569	18098
905.686	18117
905.803	18102
905.921	17939
906.038	18106
906.155	17965
906.272	17710
906.389	17794
906.506	17695
906.623	17585
906.74	17615
906.857	17539
906.974	17524
907.091	17687
907.208	17745
907.324	17710
907.441	17585
907.557	17395
907.674	17330
907.79	17296
907.907	17330
908.023	17505
908.139	17433
908.256	17322
908.372	17368
908.488	17311
908.604	17094
908.72	17056
908.836	17041
908.952	17060
909.068	17071
909.184	17124
909.3	17048
909.415	17098
909.531	17105
909.647	16930
909.762	16778
909.878	16771
909.993	16710
910.108	16679
910.224	16809
910.339	16759
910.454	16698
910.57	16508
910.685	16569
910.8	16816
910.915	16710
911.03	16462
911.145	16500
911.259	16382
911.374	16356
911.489	16284
911.604	16242
911.718	16124
911.833	16063
911.947	16017
912.062	15926
912.176	16048
912.291	16124
912.405	16040
912.519	16352
912.633	16196
912.748	16135
912.862	16078
912.976	15934
913.09	15876
913.204	15876
913.318	15922
913.431	16025
913.545	15998
913.659	16074
913.772	15823
913.886	15816
914	15690
914.113	15774
914.226	15808
914.34	15797
914.453	15667
914.566	15713
914.68	15622
914.793	15622
914.906	15355
915.019	15408
915.132	15329
915.245	15389
915.358	15340
915.47	15287
915.583	15355
915.696	15370
915.809	15378
915.921	15450
916.034	15260
916.146	15195
916.259	15237
916.371	15252
916.483	15302
916.595	15131
916.708	15184
916.82	15176
916.932	15093
917.044	15081
917.156	15062
917.268	15024
917.38	15032
917.491	14891
917.603	14952
917.715	15074
917.826	15005
917.938	14914
918.049	14758
918.161	14906
918.272	15032
918.384	15028
918.495	14880
918.606	14708
918.717	14701
918.828	14682
918.939	14724
919.05	14636
919.161	14849
919.272	14560
919.383	14598
919.494	14777
919.604	14902
919.715	14716
919.826	14636
919.936	14610
920.047	14785
920.157	14655
920.267	14918
920.378	14743
920.488	14606
920.598	14868
920.708	14880
920.818	14762
920.928	14762
921.038	14952
921.148	14906
921.258	14511
921.368	14549
921.477	14415
921.587	14404
921.697	14259
921.806	14492
921.916	14214
922.025	14103
922.134	14145
922.244	14001
922.353	14126
922.462	13841
922.571	13849
922.68	13776
922.789	13685
922.898	13712
923.007	13670
923.116	13708
923.224	13609
923.333	13666
923.442	13578
923.55	13518
923.659	13483
923.767	13575
923.876	13502
923.984	13502
924.092	13381
924.201	13445
924.309	13422
924.417	13419
924.525	13320
924.633	13468
924.741	14233
924.849	13156
924.956	13274
925.064	13046
925.172	13042
925.279	13095
925.387	13126
925.494	13141
925.602	13202
925.709	13110
925.816	12943
925.924	13080
926.031	13209
926.138	13027
926.245	13019
926.352	12981
926.459	13091
926.566	13145
926.673	12920
926.779	12798
926.886	12878
926.993	12734
927.099	12650
927.206	12673
927.312	12547
927.419	12681
927.525	12646
927.631	12589
927.737	12574
927.843	12521
927.95	12429
928.056	12490
928.162	12452
928.267	12582
928.373	13133
928.479	12502
928.585	12342
928.69	12399
928.796	12536
928.901	12357
929.007	12190
929.112	12380
929.218	12369
929.323	12213
929.428	12205
929.533	12338
929.638	12148
929.743	12129
929.848	12209
929.953	12155
930.058	12053
930.163	11897
930.267	11901
930.372	12034
930.477	11809
930.581	12091
930.685	11984
930.79	11809
930.894	11821
930.998	11680
931.103	11870
931.207	11520
931.311	11490
931.415	11322
931.519	11185
931.623	11147
