Data from test_V78500241_690.txt Node
Date: Fri Mar 25 15:14:39 CST 2022
User: usil
Spectrometer: V785-0024
Trigger mode: 0
Integration Time (sec): 4.000000E-1
Scans to average: 1
Nonlinearity correction enabled: false
Boxcar width: 0
Storing dark spectrum: false
XAxis mode: Wavelengths
Number of Pixels in Spectrum: 1024
>>>>>Begin Spectral Data<<<<<
801.071	27949
801.214	28128
801.356	27774
801.499	27831
801.641	27679
801.783	27496
801.926	27648
802.068	27762
802.211	27610
802.353	27542
802.496	27298
802.638	27393
802.78	27351
802.923	27355
803.065	27355
803.208	27355
803.35	27370
803.492	27408
803.635	27351
803.777	27355
803.919	27507
804.061	27732
804.204	27553
804.346	27466
804.488	27450
804.63	27538
804.773	27519
804.915	27614
805.057	27599
805.199	27504
805.341	27564
805.483	27736
805.626	27595
805.768	27496
805.91	27667
806.052	27583
806.194	27576
806.336	27835
806.478	27770
806.62	27652
806.762	27880
806.904	27968
807.046	28135
807.188	27987
807.33	28044
807.472	28188
807.614	28093
807.756	28090
807.898	27975
808.04	27789
808.182	27865
808.324	28059
808.465	28082
808.607	28280
808.749	28242
808.891	28284
809.033	28481
809.174	28466
809.316	28246
809.458	28295
809.6	28348
809.741	28493
809.883	28398
810.025	28675
810.166	28725
810.308	28580
810.45	28615
810.591	28531
810.733	28462
810.875	28432
811.016	28200
811.158	28192
811.299	28348
811.441	28550
811.582	28569
811.724	28226
811.865	28344
812.007	28299
812.148	28211
812.29	28287
812.431	28546
812.573	28702
812.714	28866
812.855	28892
812.997	29109
813.138	29155
813.279	29090
813.421	28915
813.562	28911
813.703	28736
813.845	28565
813.986	28306
814.127	28154
814.268	28109
814.41	28093
814.551	28166
814.692	28226
814.833	27949
814.974	28017
815.115	28032
815.256	27911
815.397	27953
815.539	27979
815.68	27865
815.821	27819
815.962	27819
816.103	27785
816.244	27713
816.385	27720
816.526	27637
816.666	27504
816.807	27424
816.948	27450
817.089	27542
817.23	27382
817.371	27298
817.512	27340
817.653	27302
817.793	27165
817.934	27310
818.075	27325
818.216	27283
818.356	27237
818.497	27317
818.638	27009
818.778	27100
818.919	27188
819.06	27214
819.2	27310
819.341	27469
819.481	27367
819.622	27534
819.762	27667
819.903	27553
820.043	27523
820.184	27580
820.324	27412
820.465	27481
820.605	27530
820.746	27523
820.886	27348
821.026	27443
821.167	27572
821.307	27496
821.447	27252
821.588	27325
821.728	27131
821.868	27020
822.008	26819
822.149	26861
822.289	26781
822.429	26453
822.569	26503
822.709	26469
822.849	26282
822.99	26381
823.13	26453
823.27	26362
823.41	26252
823.55	26050
823.69	26130
823.83	26172
823.97	25986
824.11	25925
824.25	25982
824.389	25871
824.529	26039
824.669	26035
824.809	26187
824.949	26138
825.089	26069
825.228	25993
825.368	25875
825.508	25887
825.648	25925
825.787	25925
825.927	25799
826.067	25723
826.206	25818
826.346	25822
826.485	25803
826.625	25868
826.765	25849
826.904	25902
827.044	25575
827.183	25571
827.323	25491
827.462	25537
827.601	25525
827.741	25373
827.88	25628
828.02	25343
828.159	25537
828.298	25487
828.437	25445
828.577	25457
828.716	25597
828.855	25487
828.994	25285
829.134	25278
829.273	25316
829.412	25236
829.551	25057
829.69	25346
829.829	25129
829.968	25373
830.107	25419
830.246	25346
830.385	25274
830.524	25171
830.663	25061
830.802	25129
830.941	24905
831.08	24848
831.219	24966
831.357	24913
831.496	25031
831.635	24787
831.774	24764
831.913	24760
832.051	24707
832.19	24635
832.329	24627
832.467	24551
832.606	24566
832.744	24330
832.883	24532
833.022	24448
833.16	24578
833.299	24563
833.437	24642
833.576	24646
833.714	24513
833.852	24627
833.991	24684
834.129	24681
834.267	24658
834.406	24738
834.544	24589
834.682	24547
834.821	24642
834.959	24783
835.097	24551
835.235	24753
835.373	24528
835.511	24597
835.65	24486
835.788	24289
835.926	24414
836.064	24319
836.202	24376
836.34	24498
836.478	24544
836.615	24380
836.753	24494
836.891	24467
837.029	24464
837.167	24391
837.305	24300
837.443	24311
837.58	24152
837.718	24232
837.856	24194
837.993	24182
838.131	24285
838.269	24224
838.406	24121
838.544	23931
838.681	23851
838.819	23996
838.956	23695
839.094	23790
839.231	23870
839.369	23843
839.506	24079
839.643	23882
839.781	23649
839.918	23604
840.055	23764
840.193	23786
840.33	23619
840.467	23748
840.604	23687
840.742	23939
840.879	23642
841.016	23649
841.153	23505
841.29	23741
841.427	23630
841.564	23805
841.701	23623
841.838	23676
841.975	23543
842.112	23566
842.249	23440
842.385	23250
842.522	23573
842.659	23398
842.796	23444
842.933	23391
843.069	23277
843.206	23360
843.343	23402
843.479	23387
843.616	23551
843.752	23090
843.889	23223
844.025	23288
844.162	23246
844.298	23231
844.435	23041
844.571	23147
844.708	23231
844.844	23280
844.98	23414
845.117	23307
845.253	23140
845.389	23048
845.525	23033
845.661	23174
845.798	22999
845.934	22854
846.07	22869
846.206	22968
846.342	23048
846.478	22847
846.614	22675
846.75	22615
846.886	22554
847.022	22637
847.158	22744
847.294	22710
847.429	22508
847.565	22637
847.701	22748
847.837	22333
847.972	22314
848.108	22394
848.244	22462
848.379	22253
848.515	22234
848.65	22261
848.786	22188
848.921	22204
849.057	22299
849.192	22379
849.328	22246
849.463	22181
849.598	22207
849.734	21994
849.869	22101
850.004	22128
850.14	21979
850.275	21983
850.41	21953
850.545	21975
850.68	21953
850.815	22032
850.95	22010
851.085	22204
851.22	22063
851.355	21903
851.49	21880
851.625	21778
851.76	21975
851.895	21854
852.03	21918
852.165	22093
852.299	22051
852.434	22055
852.569	21998
852.703	22025
852.838	22200
852.973	22090
853.107	22196
853.242	21850
853.376	21819
853.511	21743
853.645	21800
853.78	21994
853.914	21819
854.048	21755
854.183	21812
854.317	21827
854.451	21960
854.585	21838
854.72	21781
854.854	21884
854.988	21778
855.122	21888
855.256	21728
855.39	21842
855.524	21941
855.658	21865
855.792	21797
855.926	21979
856.06	21728
856.194	21831
856.327	21804
856.461	21637
856.595	21694
856.729	21755
856.862	21915
856.996	21831
857.13	21934
857.263	21884
857.397	21880
857.53	21679
857.664	21918
857.797	21838
857.931	21918
858.064	21850
858.197	21880
858.331	21850
858.464	21679
858.597	21728
858.731	21728
858.864	21713
858.997	21812
859.13	21835
859.263	21865
859.396	21759
859.529	21793
859.662	21759
859.795	21641
859.928	21770
860.061	21953
860.194	21945
860.327	21831
860.46	21842
860.592	21930
860.725	21861
860.858	22013
860.99	21865
861.123	21652
861.256	21762
861.388	21793
861.521	22637
861.653	21591
861.786	21629
861.918	21701
862.05	21694
862.183	21736
862.315	21663
862.447	21869
862.58	21755
862.712	21519
862.844	21488
862.976	21561
863.108	21500
863.24	21751
863.372	21298
863.504	21587
863.636	21473
863.768	21553
863.9	21511
864.032	21523
864.164	21443
864.296	21538
864.428	21599
864.559	21610
864.691	21595
864.823	21534
864.954	21526
865.086	21466
865.217	21416
865.349	21363
865.48	21431
865.612	21428
865.743	21504
865.875	21523
866.006	21370
866.137	21321
866.269	21355
866.4	21325
866.531	21291
866.662	21344
866.793	21469
866.924	21431
867.055	21363
867.186	21336
867.317	21386
867.448	21207
867.579	21329
867.71	21245
867.841	21230
867.972	21306
868.103	21260
868.233	21382
868.364	21329
868.495	21431
868.625	21511
868.756	21629
868.886	21481
869.017	21572
869.147	21603
869.278	21667
869.408	21507
869.539	21648
869.669	21641
869.799	21660
869.929	21599
870.06	21561
870.19	21884
870.32	21827
870.45	21998
870.58	22017
870.71	22002
870.84	21991
870.97	21926
871.1	21945
871.23	22196
871.36	22173
871.489	22032
871.619	22196
871.749	22234
871.879	22158
872.008	22268
872.138	22131
872.267	22188
872.397	22051
872.526	21968
872.656	22029
872.785	21975
872.915	22192
873.044	22287
873.173	22150
873.303	22166
873.432	22215
873.561	22230
873.69	22185
873.819	22078
873.948	22181
874.077	22154
874.206	22128
874.335	22196
874.464	22295
874.593	22478
874.722	22424
874.851	22390
874.979	22470
875.108	22413
875.237	22333
875.365	22303
875.494	22371
875.623	22470
875.751	22451
875.88	22371
876.008	22394
876.136	22573
876.265	22759
876.393	22934
876.521	22713
876.65	22930
876.778	22850
876.906	22740
877.034	22717
877.162	22683
877.29	22664
877.418	22729
877.546	22725
877.674	22774
877.802	22694
877.93	22740
878.058	22580
878.185	22626
878.313	22736
878.441	22721
878.568	22615
878.696	22740
878.824	22801
878.951	22816
879.079	22835
879.206	23083
879.333	22904
879.461	22755
879.588	22866
879.715	22927
879.842	23044
879.97	22820
880.097	22474
880.224	22580
880.351	22592
880.478	22512
880.605	22481
880.732	22493
880.859	22866
880.986	22466
881.112	22569
881.239	22451
881.366	22306
881.493	22166
881.619	22143
881.746	22124
881.872	22090
881.999	21979
882.125	21953
882.252	22185
882.378	22093
882.505	22230
882.631	22059
882.757	21842
882.883	22032
883.01	21816
883.136	21739
883.262	21766
883.388	21583
883.514	21857
883.64	21781
883.766	21736
883.892	21583
884.018	21629
884.143	21709
884.269	21838
884.395	21561
884.52	21485
884.646	21504
884.772	21340
884.897	21348
885.023	21458
885.148	21526
885.274	21515
885.399	21618
885.524	21428
885.65	21481
885.775	21496
885.9	21336
886.025	21542
886.15	21538
886.275	21332
886.4	21389
886.525	21374
886.65	21405
886.775	21348
886.9	21549
887.025	21686
887.149	21496
887.274	21260
887.399	21218
887.523	21363
887.648	21199
887.773	21127
887.897	21199
888.021	21252
888.146	21233
888.27	21279
888.395	21268
888.519	21241
888.643	21085
888.767	21275
888.891	21150
889.015	21077
889.139	21051
889.263	21051
889.387	21150
889.511	21138
889.635	21195
889.759	20967
889.883	21081
890.006	20982
890.13	20998
890.254	20933
890.377	21039
890.501	20910
890.624	20716
890.748	20815
890.871	20720
890.995	20556
891.118	20667
891.241	20594
891.364	20556
891.488	20594
891.611	20571
891.734	20545
891.857	20648
891.98	20644
892.103	20598
892.226	20640
892.349	20484
892.471	20320
892.594	20511
892.717	20457
892.839	20446
892.962	20526
893.085	20484
893.207	20450
893.33	20214
893.452	20442
893.575	20492
893.697	20298
893.819	20606
893.941	20590
894.064	20602
894.186	20415
894.308	20469
894.43	20587
894.552	20579
894.674	20434
894.796	20442
894.918	20423
895.04	20450
895.161	20446
895.283	20473
895.405	20366
895.526	20503
895.648	20404
895.769	20454
895.891	20469
896.012	20442
896.134	20545
896.255	20606
896.376	20423
896.498	20419
896.619	20457
896.74	20541
896.861	20541
896.982	20727
897.103	20899
897.224	20788
897.345	20724
897.466	20583
897.587	20655
897.708	20773
897.828	20731
897.949	20651
898.07	20480
898.19	20568
898.311	20872
898.431	20583
898.552	20602
898.672	20769
898.792	20625
898.913	20754
899.033	20564
899.153	20374
899.273	20480
899.393	20358
899.513	20457
899.633	20488
899.753	20461
899.873	20393
899.993	20492
900.113	20434
900.232	20320
900.352	20248
900.472	20149
900.591	20180
900.711	20164
900.83	20237
900.95	20362
901.069	20263
901.189	20062
901.308	19928
901.427	19632
901.546	19849
901.665	19719
901.784	19776
901.904	19685
902.023	19495
902.141	19392
902.26	19377
902.379	19384
902.498	19247
902.617	19145
902.735	19179
902.854	19312
902.973	19053
903.091	19015
903.21	18951
903.328	18913
903.446	18844
903.565	18806
903.683	18707
903.801	18692
903.919	18741
904.038	18639
904.156	18540
904.274	18582
904.392	18532
904.51	18536
904.627	18502
904.745	18574
904.863	18528
904.981	18281
905.098	18144
905.216	18243
905.334	18197
905.451	18087
905.569	18091
905.686	18182
905.803	18152
905.921	17973
906.038	18003
906.155	17939
906.272	17992
906.389	17885
906.506	17752
906.623	17710
906.74	17661
906.857	17627
906.974	17608
907.091	17726
907.208	17779
907.324	17771
907.441	17661
907.557	17501
907.674	17520
907.79	17379
907.907	17410
908.023	17497
908.139	17429
908.256	17429
908.372	17326
908.488	17216
908.604	17174
908.72	17094
908.836	17216
908.952	17060
909.068	17109
909.184	17220
909.3	17102
909.415	17124
909.531	17121
909.647	16869
909.762	16866
909.878	16698
909.993	16934
910.108	16713
910.224	16793
910.339	16843
910.454	16729
910.57	16645
910.685	16531
910.8	16866
910.915	16793
911.03	16675
911.145	16459
911.259	16451
911.374	16485
911.489	16455
911.604	16310
911.718	16158
911.833	16162
911.947	16067
912.062	15983
912.176	16074
912.291	16249
912.405	16082
912.519	16287
912.633	16185
912.748	16257
912.862	16150
912.976	16090
913.09	15903
913.204	15975
913.318	15960
913.431	16131
913.545	16074
913.659	16063
913.772	15899
913.886	15755
914	15797
914.113	15903
914.226	15857
914.34	15827
914.453	15713
914.566	15709
914.68	15785
914.793	15591
914.906	15416
915.019	15397
915.132	15256
915.245	15378
915.358	15420
915.47	15435
915.583	15321
915.696	15351
915.809	15515
915.921	15496
916.034	15363
916.146	15237
916.259	15218
916.371	15306
916.483	15321
916.595	15192
916.708	15214
916.82	15294
916.932	15123
917.044	15207
917.156	15184
917.268	14986
917.38	15085
917.491	15097
917.603	15013
917.715	15081
917.826	15138
917.938	14956
918.049	14883
918.161	15039
918.272	15077
918.384	15066
918.495	14990
918.606	14880
918.717	14697
918.828	14883
918.939	14769
919.05	14659
919.161	14731
919.272	14579
919.383	14678
919.494	14796
919.604	14967
919.715	14724
919.826	14712
919.936	14670
920.047	14792
920.157	14682
920.267	14960
920.378	14773
920.488	14682
920.598	14960
920.708	15146
920.818	14956
920.928	14952
921.038	15036
921.148	15074
921.258	14735
921.368	14583
921.477	14514
921.587	14450
921.697	14442
921.806	14446
921.916	14358
922.025	14206
922.134	14119
922.244	14031
922.353	14259
922.462	13978
922.571	14005
922.68	13871
922.789	13818
922.898	13814
923.007	13712
923.116	13864
923.224	13696
923.333	13772
923.442	13685
923.55	13506
923.659	13670
923.767	13731
923.876	13582
923.984	13670
924.092	13491
924.201	13537
924.309	13499
924.417	13616
924.525	13422
924.633	13407
924.741	14138
924.849	13331
924.956	13316
925.064	13274
925.172	13171
925.279	13175
925.387	13179
925.494	13171
925.602	13373
925.709	13232
925.816	13137
925.924	13110
926.031	13213
926.138	13179
926.245	13160
926.352	12977
926.459	13175
926.566	13232
926.673	13072
926.779	12932
926.886	12932
926.993	12840
927.099	12840
927.206	12726
927.312	12703
927.419	12821
927.525	12665
927.631	12642
927.737	12589
927.843	12536
927.95	12441
928.056	12563
928.162	12608
928.267	12585
928.373	13190
928.479	12681
928.585	12475
928.69	12540
928.796	12604
928.901	12494
929.007	12319
929.112	12407
929.218	12380
929.323	12216
929.428	12281
929.533	12361
929.638	12251
929.743	12209
929.848	12243
929.953	12239
930.058	12175
930.163	11908
930.267	12030
930.372	12076
930.477	11851
930.581	12148
930.685	12034
930.79	11954
930.894	11885
930.998	11809
931.103	11870
931.207	11615
931.311	11474
931.415	11406
931.519	11212
931.623	11280
