Data from test_V78500241_88.txt Node
Date: Fri Mar 25 15:10:28 CST 2022
User: usil
Spectrometer: V785-0024
Trigger mode: 0
Integration Time (sec): 4.000000E-1
Scans to average: 1
Nonlinearity correction enabled: false
Boxcar width: 0
Storing dark spectrum: false
XAxis mode: Wavelengths
Number of Pixels in Spectrum: 1024
>>>>>Begin Spectral Data<<<<<
801.071	28550
801.214	28470
801.356	28401
801.499	28177
801.641	28253
801.783	28166
801.926	28192
802.068	28200
802.211	28044
802.353	27899
802.496	27770
802.638	27774
802.78	27618
802.923	27690
803.065	27606
803.208	27667
803.35	27857
803.492	27994
803.635	27861
803.777	27816
803.919	27827
804.061	28173
804.204	27857
804.346	27713
804.488	27603
804.63	27770
804.773	27724
804.915	27812
805.057	27964
805.199	27755
805.341	27846
805.483	28013
805.626	27823
805.768	27781
805.91	27930
806.052	27941
806.194	27762
806.336	28048
806.478	27854
806.62	27880
806.762	27911
806.904	28010
807.046	28375
807.188	28162
807.33	28310
807.472	28352
807.614	28112
807.756	28211
807.898	28116
808.04	28116
808.182	28032
808.324	28169
808.465	28036
808.607	28169
808.749	28329
808.891	28428
809.033	28592
809.174	28432
809.316	28401
809.458	28455
809.6	28417
809.741	28466
809.883	28367
810.025	28599
810.166	28489
810.308	28641
810.45	28535
810.591	28481
810.733	28360
810.875	28310
811.016	28440
811.158	28093
811.299	28314
811.441	28428
811.582	28367
811.724	28379
811.865	28386
812.007	28284
812.148	28398
812.29	28401
812.431	28493
812.573	28516
812.714	28786
812.855	28885
812.997	28850
813.138	28968
813.279	28991
813.421	28774
813.562	28771
813.703	28645
813.845	28637
813.986	28192
814.127	28192
814.268	27945
814.41	27983
814.551	27972
814.692	27941
814.833	27934
814.974	27926
815.115	28010
815.256	27804
815.397	27827
815.539	27576
815.68	27724
815.821	27443
815.962	27736
816.103	27663
816.244	27447
816.385	27443
816.526	27435
816.666	27233
816.807	27009
816.948	27184
817.089	27245
817.23	27207
817.371	27157
817.512	27062
817.653	27047
817.793	27032
817.934	27077
818.075	27043
818.216	27096
818.356	27017
818.497	26971
818.638	26815
818.778	26891
818.919	26807
819.06	26739
819.2	27020
819.341	27062
819.481	26971
819.622	27237
819.762	27237
819.903	27268
820.043	27093
820.184	27096
820.324	27108
820.465	27192
820.605	26944
820.746	27268
820.886	26804
821.026	26982
821.167	26990
821.307	27005
821.447	27096
821.588	26807
821.728	26777
821.868	26549
822.008	26492
822.149	26453
822.289	26465
822.429	26336
822.569	26191
822.709	26145
822.849	25947
822.99	25989
823.13	25989
823.27	25849
823.41	25753
823.55	25620
823.69	25647
823.83	25750
823.97	25628
824.11	25460
824.25	25464
824.389	25514
824.529	25613
824.669	25533
824.809	25571
824.949	25430
825.089	25586
825.228	25407
825.368	25449
825.508	25236
825.648	25369
825.787	25377
825.927	25304
826.067	25088
826.206	25278
826.346	25400
826.485	25441
826.625	25411
826.765	25388
826.904	25411
827.044	25076
827.183	25152
827.323	24958
827.462	25046
827.601	24951
827.741	24989
827.88	24947
828.02	24905
828.159	24901
828.298	24890
828.437	24875
828.577	24875
828.716	25019
828.855	24848
828.994	24661
829.134	24764
829.273	24738
829.412	24711
829.551	24623
829.69	24654
829.829	24627
829.968	24722
830.107	24612
830.246	24555
830.385	24513
830.524	24460
830.663	24369
830.802	24296
830.941	24346
831.08	24292
831.219	24152
831.357	24209
831.496	24391
831.635	24171
831.774	24045
831.913	24106
832.051	23946
832.19	23855
832.329	24015
832.467	23863
832.606	23760
832.744	23710
832.883	23729
833.022	23805
833.16	23707
833.299	23863
833.437	23866
833.576	23859
833.714	23771
833.852	23897
833.991	23851
834.129	23935
834.267	23836
834.406	23779
834.544	23748
834.682	23824
834.821	23889
834.959	23931
835.097	23885
835.235	23828
835.373	23885
835.511	23912
835.65	23699
835.788	23592
835.926	23490
836.064	23455
836.202	23539
836.34	23501
836.478	23657
836.615	23653
836.753	23714
836.891	23646
837.029	23547
837.167	23524
837.305	23414
837.443	23600
837.58	23467
837.718	23516
837.856	23562
837.993	23387
838.131	23471
838.269	23349
838.406	23337
838.544	23277
838.681	22999
838.819	23060
838.956	23003
839.094	22790
839.231	22934
839.369	22984
839.506	23280
839.643	23124
839.781	22949
839.918	22908
840.055	22793
840.193	22786
840.33	22763
840.467	22664
840.604	22831
840.742	23075
840.879	22725
841.016	22767
841.153	22630
841.29	22824
841.427	22729
841.564	22904
841.701	22622
841.838	22668
841.975	22656
842.112	22584
842.249	22550
842.385	22451
842.522	22672
842.659	22390
842.796	22542
842.933	22382
843.069	22310
843.206	22325
843.343	22459
843.479	22493
843.616	22481
843.752	22181
843.889	22253
844.025	22257
844.162	22154
844.298	22173
844.435	22181
844.571	22249
844.708	22211
844.844	22402
844.98	22246
845.117	22223
845.253	22177
845.389	22120
845.525	22082
845.661	21930
845.798	21922
845.934	22017
846.07	21899
846.206	21994
846.342	22036
846.478	21892
846.614	21812
846.75	21568
846.886	21667
847.022	21778
847.158	21572
847.294	21614
847.429	21667
847.565	21553
847.701	21770
847.837	21272
847.972	21420
848.108	21526
848.244	21458
848.379	21294
848.515	21218
848.65	21062
848.786	21230
848.921	21100
849.057	21382
849.192	21230
849.328	21302
849.463	21184
849.598	21218
849.734	21096
849.869	21047
850.004	21100
850.14	20906
850.275	20990
850.41	20902
850.545	20883
850.68	20982
850.815	20933
850.95	20937
851.085	21218
851.22	20994
851.355	20823
851.49	20838
851.625	20861
851.76	20804
851.895	20849
852.03	20765
852.165	20967
852.299	20895
852.434	20941
852.569	20998
852.703	20857
852.838	20880
852.973	21047
853.107	20979
853.242	20769
853.376	20849
853.511	20492
853.645	20579
853.78	20845
853.914	20716
854.048	20598
854.183	20693
854.317	20537
854.451	20937
854.585	20667
854.72	20693
854.854	20659
854.988	20754
855.122	20651
855.256	20469
855.39	20617
855.524	20731
855.658	20769
855.792	20773
855.926	20693
856.06	20644
856.194	20754
856.327	20659
856.461	20629
856.595	20564
856.729	20739
856.862	20823
856.996	20651
857.13	20632
857.263	20807
857.397	20811
857.53	20670
857.664	20773
857.797	20765
857.931	20754
858.064	20644
858.197	20735
858.331	20686
858.464	20629
858.597	20594
858.731	20568
858.864	20674
858.997	20712
859.13	20686
859.263	20682
859.396	20781
859.529	20674
859.662	20625
859.795	20511
859.928	20651
860.061	20746
860.194	20861
860.327	20632
860.46	20602
860.592	20758
860.725	20804
860.858	20811
860.99	20590
861.123	20507
861.256	20583
861.388	20629
861.521	21310
861.653	20556
861.786	20427
861.918	20602
862.05	20651
862.183	20686
862.315	20735
862.447	20716
862.58	20632
862.712	20526
862.844	20404
862.976	20377
863.108	20438
863.24	20781
863.372	20282
863.504	20294
863.636	20267
863.768	20389
863.9	20511
864.032	20263
864.164	20202
864.296	20339
864.428	20374
864.559	20385
864.691	20419
864.823	20336
864.954	20385
865.086	20358
865.217	20278
865.349	20069
865.48	20267
865.612	20286
865.743	20389
865.875	20404
866.006	20172
866.137	20282
866.269	20389
866.4	20366
866.531	20199
866.662	20240
866.793	20119
866.924	20191
867.055	20206
867.186	20134
867.317	20088
867.448	20187
867.579	20065
867.71	20027
867.841	20020
867.972	20267
868.103	20145
868.233	20374
868.364	20130
868.495	20324
868.625	20404
868.756	20427
868.886	20317
869.017	20351
869.147	20541
869.278	20602
869.408	20503
869.539	20370
869.669	20571
869.799	20492
869.929	20560
870.06	20571
870.19	20826
870.32	20830
870.45	20739
870.58	20785
870.71	20910
870.84	20876
870.97	20872
871.1	20792
871.23	20960
871.36	21028
871.489	20876
871.619	20986
871.749	20906
871.879	21074
872.008	21226
872.138	20967
872.267	20967
872.397	20891
872.526	20773
872.656	20883
872.785	20834
872.915	21112
873.044	21154
873.173	21020
873.303	21127
873.432	20963
873.561	21081
873.69	20956
873.819	20921
873.948	21074
874.077	20971
874.206	21032
874.335	20994
874.464	21203
874.593	21218
874.722	21188
874.851	21279
874.979	21298
875.108	21279
875.237	21207
875.365	21249
875.494	21279
875.623	21237
875.751	21233
875.88	21222
876.008	21477
876.136	21504
876.265	21701
876.393	21850
876.521	21781
876.65	21747
876.778	21770
876.906	21587
877.034	21466
877.162	21717
877.29	21507
877.418	21625
877.546	21679
877.674	21538
877.802	21736
877.93	21603
878.058	21629
878.185	21466
878.313	21644
878.441	21553
878.568	21530
878.696	21473
878.824	21549
878.951	21755
879.079	21762
879.206	21892
879.333	21751
879.461	21713
879.588	21766
879.715	21838
879.842	22044
879.97	21694
880.097	21469
880.224	21485
880.351	21431
880.478	21466
880.605	21450
880.732	21504
880.859	21576
880.986	21466
881.112	21523
881.239	21420
881.366	21310
881.493	21211
881.619	20990
881.746	20941
881.872	21005
881.999	21024
882.125	21119
882.252	21055
882.378	21070
882.505	21062
882.631	20956
882.757	20815
882.883	20868
883.01	20724
883.136	20686
883.262	20621
883.388	20648
883.514	20868
883.64	20804
883.766	20785
883.892	20594
884.018	20705
884.143	20720
884.269	20845
884.395	20374
884.52	20465
884.646	20374
884.772	20275
884.897	20355
885.023	20370
885.148	20370
885.274	20552
885.399	20499
885.524	20389
885.65	20374
885.775	20450
885.9	20412
886.025	20499
886.15	20476
886.275	20374
886.4	20301
886.525	20336
886.65	20339
886.775	20396
886.9	20465
887.025	20613
887.149	20438
887.274	20290
887.399	20176
887.523	20252
887.648	20138
887.773	20039
887.897	20244
888.021	20248
888.146	20088
888.27	20244
888.395	20267
888.519	20020
888.643	20278
888.767	20225
888.891	20027
889.015	19894
889.139	20103
889.263	19898
889.387	20050
889.511	20218
889.635	20058
889.759	19986
889.883	19906
890.006	19940
890.13	20054
890.254	19856
890.377	19982
890.501	19681
890.624	19715
890.748	19826
890.871	19624
890.995	19483
891.118	19422
891.241	19594
891.364	19552
891.488	19571
891.611	19502
891.734	19601
891.857	19624
891.98	19582
892.103	19563
892.226	19597
892.349	19499
892.471	19335
892.594	19449
892.717	19525
892.839	19518
892.962	19495
893.085	19597
893.207	19502
893.33	19308
893.452	19377
893.575	19548
893.697	19453
893.819	19575
893.941	19704
894.064	19620
894.186	19396
894.308	19422
894.43	19533
894.552	19590
894.674	19502
894.796	19346
894.918	19472
895.04	19518
895.161	19499
895.283	19506
895.405	19407
895.526	19540
895.648	19544
895.769	19407
895.891	19407
896.012	19544
896.134	19594
896.255	19499
896.376	19457
896.498	19491
896.619	19533
896.74	19544
896.861	19582
896.982	19742
897.103	19894
897.224	19734
897.345	19780
897.466	19689
897.587	19826
897.708	19841
897.828	19750
897.949	19613
898.07	19548
898.19	19666
898.311	19738
898.431	19635
898.552	19700
898.672	19715
898.792	19628
898.913	19578
899.033	19533
899.153	19392
899.273	19259
899.393	19381
899.513	19411
899.633	19415
899.753	19388
899.873	19293
899.993	19335
900.113	19373
900.232	19369
900.352	19293
900.472	19278
900.591	19198
900.711	19145
900.83	19270
900.95	19335
901.069	19419
901.189	19050
901.308	18993
901.427	18795
901.546	18894
901.665	18833
901.784	18810
901.904	18665
902.023	18620
902.141	18414
902.26	18323
902.379	18433
902.498	18342
902.617	18209
902.735	18365
902.854	18311
902.973	18186
903.091	17980
903.21	17980
903.328	17961
903.446	17866
903.565	17745
903.683	17878
903.801	17870
903.919	17805
904.038	17771
904.156	17482
904.274	17726
904.392	17474
904.51	17627
904.627	17543
904.745	17604
904.863	17577
904.981	17383
905.098	17242
905.216	17204
905.334	17269
905.451	17307
905.569	17197
905.686	17288
905.803	17189
905.921	16999
906.038	17128
906.155	17079
906.272	16919
906.389	16866
906.506	16759
906.623	16767
906.74	16736
906.857	16584
906.974	16698
907.091	16733
907.208	16869
907.324	16691
907.441	16599
907.557	16424
907.674	16440
907.79	16424
907.907	16344
908.023	16443
908.139	16489
908.256	16462
908.372	16322
908.488	16360
908.604	16211
908.72	16135
908.836	16139
908.952	16120
909.068	16105
909.184	16158
909.3	16185
909.415	16299
909.531	16044
909.647	15994
909.762	15797
909.878	15911
909.993	15823
910.108	15789
910.224	15827
910.339	15800
910.454	15618
910.57	15656
910.685	15610
910.8	15861
910.915	15774
911.03	15675
911.145	15363
911.259	15325
911.374	15420
911.489	15370
911.604	15351
911.718	15135
911.833	15112
911.947	15085
912.062	14963
912.176	15112
912.291	15241
912.405	15077
912.519	15370
912.633	15325
912.748	15207
912.862	15127
912.976	14956
913.09	15001
913.204	14967
913.318	14967
913.431	15093
913.545	15028
913.659	15074
913.772	14925
913.886	14830
914	14720
914.113	14971
914.226	14906
914.34	14876
914.453	14762
914.566	14853
914.68	14667
914.793	14716
914.906	14629
915.019	14404
915.132	14351
915.245	14438
915.358	14541
915.47	14488
915.583	14495
915.696	14408
915.809	14564
915.921	14526
916.034	14377
916.146	14347
916.259	14278
916.371	14313
916.483	14377
916.595	14252
916.708	14282
916.82	14320
916.932	14351
917.044	14183
917.156	14286
917.268	14157
917.38	14153
917.491	14073
917.603	14153
917.715	14153
917.826	14252
917.938	14058
918.049	13955
918.161	14031
918.272	14092
918.384	14168
918.495	14012
918.606	13894
918.717	13875
918.828	13822
918.939	13902
919.05	13753
919.161	13765
919.272	13677
919.383	13753
919.494	13849
919.604	13997
919.715	13963
919.826	13731
919.936	13776
920.047	13928
920.157	13807
920.267	13925
920.378	13852
920.488	13852
920.598	14065
920.708	14096
920.818	13989
920.928	13967
921.038	14115
921.148	14107
921.258	13757
921.368	13624
921.477	13620
921.587	13525
921.697	13491
921.806	13544
921.916	13403
922.025	13251
922.134	13293
922.244	13221
922.353	13236
922.462	13061
922.571	12977
922.68	13004
922.789	12722
922.898	12829
923.007	12844
923.116	12871
923.224	12787
923.333	12734
923.442	12753
923.55	12642
923.659	12722
923.767	12764
923.876	12654
923.984	12696
924.092	12627
924.201	12700
924.309	12585
924.417	12589
924.525	12521
924.633	12566
924.741	13251
924.849	12296
924.956	12525
925.064	12357
925.172	12243
925.279	12239
925.387	12330
925.494	12342
925.602	12429
925.709	12353
925.816	12251
925.924	12262
926.031	12350
926.138	12285
926.245	12281
926.352	12197
926.459	12197
926.566	12357
926.673	12186
926.779	12060
926.886	12015
926.993	11828
927.099	11908
927.206	11836
927.312	11832
927.419	11984
927.525	11878
927.631	11851
927.737	11794
927.843	11718
927.95	11604
928.056	11726
928.162	11779
928.267	11809
928.373	12342
928.479	11870
928.585	11551
928.69	11611
928.796	11695
928.901	11535
929.007	11459
929.112	11596
929.218	11490
929.323	11406
929.428	11433
929.533	11615
929.638	11341
929.743	11406
929.848	11417
929.953	11448
930.058	11334
930.163	11151
930.267	11147
930.372	11284
930.477	11067
930.581	11368
930.685	11185
930.79	11102
930.894	11136
930.998	10987
931.103	11178
931.207	10767
931.311	10714
931.415	10622
931.519	10382
931.623	10402
