Data from test_V78500241_1955.txt Node
Date: Fri Mar 25 15:23:28 CST 2022
User: usil
Spectrometer: V785-0024
Trigger mode: 0
Integration Time (sec): 4.000000E-1
Scans to average: 1
Nonlinearity correction enabled: false
Boxcar width: 0
Storing dark spectrum: false
XAxis mode: Wavelengths
Number of Pixels in Spectrum: 1024
>>>>>Begin Spectral Data<<<<<
801.071	27545
801.214	27519
801.356	27165
801.499	27226
801.641	27135
801.783	27176
801.926	27127
802.068	27089
802.211	26975
802.353	26921
802.496	26849
802.638	26746
802.78	26819
802.923	26648
803.065	26499
803.208	26556
803.35	26701
803.492	26823
803.635	26902
803.777	26853
803.919	26800
804.061	27123
804.204	26960
804.346	26819
804.488	26830
804.63	27020
804.773	26891
804.915	26853
805.057	26963
805.199	26880
805.341	27017
805.483	27077
805.626	27070
805.768	26918
805.91	27036
806.052	27142
806.194	26944
806.336	27138
806.478	27017
806.62	27055
806.762	27089
806.904	27287
807.046	27500
807.188	27408
807.33	27481
807.472	27523
807.614	27291
807.756	27507
807.898	27351
808.04	27450
808.182	27294
808.324	27272
808.465	27272
808.607	27466
808.749	27717
808.891	27648
809.033	27918
809.174	27835
809.316	27557
809.458	27641
809.6	27641
809.741	27770
809.883	27770
810.025	27964
810.166	27945
810.308	27979
810.45	27926
810.591	27743
810.733	27603
810.875	27644
811.016	27523
811.158	27534
811.299	27534
811.441	27713
811.582	27770
811.724	27614
811.865	27690
812.007	27652
812.148	27606
812.29	27736
812.431	27838
812.573	27998
812.714	28154
812.855	28200
812.997	28181
813.138	28318
813.279	28166
813.421	28181
813.562	28029
813.703	28025
813.845	27846
813.986	27591
814.127	27412
814.268	27401
814.41	27397
814.551	27283
814.692	27443
814.833	27340
814.974	27367
815.115	27420
815.256	27123
815.397	27222
815.539	27108
815.68	26994
815.821	27020
815.962	27074
816.103	27089
816.244	27032
816.385	26861
816.526	26830
816.666	26724
816.807	26617
816.948	26644
817.089	26762
817.23	26648
817.371	26549
817.512	26556
817.653	26571
817.793	26594
817.934	26511
818.075	26644
818.216	26602
818.356	26564
818.497	26431
818.638	26187
818.778	26237
818.919	26465
819.06	26389
819.2	26427
819.341	26663
819.481	26606
819.622	26777
819.762	26963
819.903	26861
820.043	26769
820.184	26689
820.324	26590
820.465	26731
820.605	26781
820.746	26590
820.886	26640
821.026	26708
821.167	26701
821.307	26697
821.447	26518
821.588	26446
821.728	26294
821.868	26332
822.008	26122
822.149	26138
822.289	26001
822.429	25887
822.569	25788
822.709	25704
822.849	25578
822.99	25666
823.13	25506
823.27	25594
823.41	25316
823.55	25422
823.69	25457
823.83	25285
823.97	25487
824.11	25091
824.25	25297
824.389	25282
824.529	25285
824.669	25225
824.809	25259
824.949	25324
825.089	25274
825.228	25274
825.368	25038
825.508	25076
825.648	25042
825.787	25027
825.927	25107
826.067	25038
826.206	25129
826.346	25031
826.485	25103
826.625	24996
826.765	25034
826.904	25004
827.044	24753
827.183	24913
827.323	24707
827.462	24886
827.601	24711
827.741	24753
827.88	24787
828.02	24631
828.159	24757
828.298	24772
828.437	24859
828.577	24810
828.716	24951
828.855	24608
828.994	24525
829.134	24608
829.273	24494
829.412	24418
829.551	24410
829.69	24525
829.829	24544
829.968	24540
830.107	24547
830.246	24509
830.385	24414
830.524	24357
830.663	24350
830.802	24311
830.941	24174
831.08	24117
831.219	24273
831.357	24258
831.496	24475
831.635	24201
831.774	24136
831.913	24091
832.051	23939
832.19	23916
832.329	24030
832.467	23843
832.606	23680
832.744	23733
832.883	23840
833.022	23722
833.16	23794
833.299	23817
833.437	23870
833.576	23931
833.714	23863
833.852	23859
833.991	23931
834.129	23927
834.267	23965
834.406	23847
834.544	23984
834.682	23809
834.821	23977
834.959	23870
835.097	23885
835.235	23805
835.373	23741
835.511	23786
835.65	23566
835.788	23790
835.926	23551
836.064	23474
836.202	23543
836.34	23767
836.478	23832
836.615	23615
836.753	23726
836.891	23756
837.029	23729
837.167	23558
837.305	23547
837.443	23589
837.58	23501
837.718	23493
837.856	23589
837.993	23440
838.131	23395
838.269	23322
838.406	23444
838.544	23307
838.681	23113
838.819	23200
838.956	23022
839.094	22938
839.231	22972
839.369	23117
839.506	23410
839.643	23181
839.781	23029
839.918	23033
840.055	22946
840.193	22991
840.33	22934
840.467	22919
840.604	22957
840.742	23113
840.879	22790
841.016	22801
841.153	22885
841.29	23006
841.427	22915
841.564	23029
841.701	22908
841.838	22908
841.975	22835
842.112	22736
842.249	22847
842.385	22664
842.522	22892
842.659	22668
842.796	22626
842.933	22702
843.069	22618
843.206	22649
843.343	22691
843.479	22763
843.616	22672
843.752	22474
843.889	22341
844.025	22588
844.162	22417
844.298	22596
844.435	22561
844.571	22371
844.708	22504
844.844	22599
844.98	22470
845.117	22481
845.253	22360
845.389	22257
845.525	22390
845.661	22284
845.798	22166
845.934	22253
846.07	22139
846.206	22284
846.342	22318
846.478	22158
846.614	22006
846.75	21892
846.886	21991
847.022	22010
847.158	21816
847.294	21945
847.429	22044
847.565	21895
847.701	22204
847.837	21778
847.972	21564
848.108	21709
848.244	21789
848.379	21698
848.515	21515
848.65	21523
848.786	21519
848.921	21488
849.057	21458
849.192	21679
849.328	21603
849.463	21405
849.598	21450
849.734	21534
849.869	21374
850.004	21313
850.14	21310
850.275	21382
850.41	21283
850.545	21184
850.68	21230
850.815	21329
850.95	21272
851.085	21454
851.22	21408
851.355	21363
851.49	21397
851.625	21340
851.76	21222
851.895	21291
852.03	21154
852.165	21275
852.299	21302
852.434	21428
852.569	21355
852.703	21344
852.838	21363
852.973	21351
853.107	21370
853.242	21146
853.376	21169
853.511	21024
853.645	21104
853.78	21249
853.914	21131
854.048	21138
854.183	21169
854.317	21119
854.451	21138
854.585	21131
854.72	21028
854.854	21142
854.988	21108
855.122	21142
855.256	20963
855.39	21112
855.524	21199
855.658	21062
855.792	21089
855.926	21123
856.06	21165
856.194	21226
856.327	21043
856.461	21077
856.595	21013
856.729	21135
856.862	21096
856.996	21173
857.13	21116
857.263	21355
857.397	21192
857.53	20979
857.664	21188
857.797	21100
857.931	21260
858.064	21108
858.197	21161
858.331	21081
858.464	21043
858.597	21093
858.731	21184
858.864	21062
858.997	21020
859.13	21138
859.263	21085
859.396	21104
859.529	20994
859.662	20982
859.795	21001
859.928	21032
860.061	21214
860.194	21325
860.327	21207
860.46	21119
860.592	21245
860.725	21283
860.858	21275
860.99	21142
861.123	21009
861.256	21013
861.388	21013
861.521	21831
861.653	20956
861.786	20857
861.918	20918
862.05	21043
862.183	21070
862.315	21047
862.447	21043
862.58	21074
862.712	20727
862.844	20849
862.976	20849
863.108	20883
863.24	21386
863.372	20777
863.504	20868
863.636	20693
863.768	20792
863.9	20811
864.032	20899
864.164	20823
864.296	20876
864.428	20929
864.559	20891
864.691	20944
864.823	20804
864.954	20906
865.086	20769
865.217	20674
865.349	20598
865.48	20587
865.612	20674
865.743	20811
865.875	20629
866.006	20746
866.137	20663
866.269	20781
866.4	20712
866.531	20689
866.662	20629
866.793	20537
866.924	20590
867.055	20708
867.186	20724
867.317	20659
867.448	20552
867.579	20564
867.71	20632
867.841	20469
867.972	20750
868.103	20606
868.233	20644
868.364	20552
868.495	20754
868.625	20906
868.756	21089
868.886	20750
869.017	20834
869.147	20979
869.278	21009
869.408	20887
869.539	20899
869.669	20982
869.799	20986
869.929	20975
870.06	21032
870.19	21135
870.32	21203
870.45	21176
870.58	21298
870.71	21370
870.84	21287
870.97	21195
871.1	21313
871.23	21485
871.36	21504
871.489	21363
871.619	21439
871.749	21500
871.879	21557
872.008	21633
872.138	21450
872.267	21485
872.397	21237
872.526	21302
872.656	21428
872.785	21268
872.915	21561
873.044	21511
873.173	21561
873.303	21591
873.432	21496
873.561	21633
873.69	21549
873.819	21591
873.948	21610
874.077	21561
874.206	21370
874.335	21424
874.464	21530
874.593	21774
874.722	21614
874.851	21835
874.979	21747
875.108	21876
875.237	21625
875.365	21580
875.494	21622
875.623	21827
875.751	21732
875.88	21785
876.008	21892
876.136	21831
876.265	22211
876.393	22329
876.521	22196
876.65	22242
876.778	22196
876.906	21979
877.034	22147
877.162	22120
877.29	22029
877.418	22029
877.546	21998
877.674	22086
877.802	22093
877.93	22048
878.058	22013
878.185	21918
878.313	22086
878.441	22002
878.568	21808
878.696	22048
878.824	22124
878.951	22086
879.079	22166
879.206	22318
879.333	22325
879.461	22025
879.588	22082
879.715	22105
879.842	22337
879.97	22101
880.097	22006
880.224	21960
880.351	21869
880.478	22040
880.605	21873
880.732	21793
880.859	22128
880.986	21926
881.112	21907
881.239	21789
881.366	21682
881.493	21701
881.619	21473
881.746	21473
881.872	21492
881.999	21458
882.125	21359
882.252	21485
882.378	21500
882.505	21618
882.631	21408
882.757	21218
882.883	21348
883.01	21188
883.136	21222
883.262	21036
883.388	21017
883.514	21157
883.64	21237
883.766	21211
883.892	20998
884.018	21062
884.143	21150
884.269	21123
884.395	20880
884.52	20834
884.646	20861
884.772	20796
884.897	20670
885.023	20960
885.148	20902
885.274	20944
885.399	20899
885.524	20853
885.65	20910
885.775	20849
885.9	20788
886.025	20895
886.15	20811
886.275	20872
886.4	20758
886.525	20826
886.65	20746
886.775	20746
886.9	20933
887.025	21077
887.149	20682
887.274	20644
887.399	20682
887.523	20613
887.648	20556
887.773	20415
887.897	20522
888.021	20670
888.146	20636
888.27	20777
888.395	20712
888.519	20609
888.643	20632
888.767	20590
888.891	20606
889.015	20301
889.139	20457
889.263	20396
889.387	20541
889.511	20549
889.635	20560
889.759	20309
889.883	20374
890.006	20404
890.13	20499
890.254	20298
890.377	20385
890.501	20142
890.624	20176
890.748	20183
890.871	19989
890.995	19989
891.118	19852
891.241	20046
891.364	20073
891.488	20134
891.611	19955
891.734	20107
891.857	19887
891.98	20005
892.103	20016
892.226	20126
892.349	20035
892.471	19814
892.594	19822
892.717	20043
892.839	19852
892.962	19932
893.085	19917
893.207	19879
893.33	19750
893.452	19814
893.575	20027
893.697	19909
893.819	19928
893.941	20024
894.064	20107
894.186	19788
894.308	19871
894.43	19982
894.552	20008
894.674	19894
894.796	19902
894.918	19837
895.04	19898
895.161	19955
895.283	19978
895.405	19871
895.526	19906
895.648	19902
895.769	19875
895.891	19917
896.012	19947
896.134	19955
896.255	19921
896.376	19925
896.498	19906
896.619	20031
896.74	19856
896.861	19947
896.982	20240
897.103	20343
897.224	20157
897.345	20138
897.466	20054
897.587	20180
897.708	20199
897.828	20035
897.949	20039
898.07	19906
898.19	20012
898.311	20103
898.431	20012
898.552	20164
898.672	20142
898.792	20191
898.913	20122
899.033	20069
899.153	19906
899.273	19837
899.393	19902
899.513	19795
899.633	19936
899.753	19860
899.873	19757
899.993	19845
900.113	19723
900.232	19742
900.352	19818
900.472	19708
900.591	19689
900.711	19590
900.83	19613
900.95	19803
901.069	19685
901.189	19544
901.308	19293
901.427	19285
901.546	19274
901.665	19263
901.784	19194
901.904	19042
902.023	18939
902.141	18814
902.26	18795
902.379	18840
902.498	18726
902.617	18772
902.735	18882
902.854	18783
902.973	18703
903.091	18494
903.21	18403
903.328	18334
903.446	18273
903.565	18155
903.683	18140
903.801	18159
903.919	18091
904.038	18209
904.156	18068
904.274	18102
904.392	17961
904.51	18007
904.627	18049
904.745	18007
904.863	17984
904.981	17767
905.098	17707
905.216	17642
905.334	17611
905.451	17649
905.569	17566
905.686	17649
905.803	17512
905.921	17501
906.038	17528
906.155	17345
906.272	17387
906.389	17318
906.506	17170
906.623	17299
906.74	17254
906.857	17208
906.974	17094
907.091	17288
907.208	17353
907.324	17197
907.441	17128
907.557	16976
907.674	16949
907.79	16873
907.907	16961
908.023	16908
908.139	16873
908.256	17018
908.372	16805
908.488	16820
908.604	16656
908.72	16656
908.836	16622
908.952	16615
909.068	16672
909.184	16805
909.3	16588
909.415	16694
909.531	16580
909.647	16333
909.762	16329
909.878	16314
909.993	16310
910.108	16329
910.224	16234
910.339	16303
910.454	16280
910.57	16204
910.685	16120
910.8	16379
910.915	16249
911.03	16074
911.145	15979
911.259	15926
911.374	15953
911.489	15949
911.604	15759
911.718	15682
911.833	15762
911.947	15622
912.062	15595
912.176	15751
912.291	15660
912.405	15698
912.519	15850
912.633	15892
912.748	15762
912.862	15675
912.976	15553
913.09	15325
913.204	15511
913.318	15568
913.431	15545
913.545	15644
913.659	15568
913.772	15458
913.886	15310
914	15416
914.113	15443
914.226	15447
914.34	15405
914.453	15237
914.566	15481
914.68	15222
914.793	15157
914.906	15001
915.019	14937
915.132	14899
915.245	14861
915.358	14948
915.47	14948
915.583	14994
915.696	14883
915.809	15032
915.921	15032
916.034	14948
916.146	14880
916.259	14769
916.371	14929
916.483	14891
916.595	14819
916.708	14739
916.82	14777
916.932	14762
917.044	14743
917.156	14716
917.268	14526
917.38	14640
917.491	14594
917.603	14560
917.715	14636
917.826	14678
917.938	14575
918.049	14454
918.161	14469
918.272	14697
918.384	14678
918.495	14400
918.606	14450
918.717	14225
918.828	14343
918.939	14324
919.05	14259
919.161	14317
919.272	14035
919.383	14126
919.494	14366
919.604	14571
919.715	14389
919.826	14195
919.936	14301
920.047	14339
920.157	14294
920.267	14503
920.378	14301
920.488	14271
920.598	14545
920.708	14640
920.818	14389
920.928	14454
921.038	14507
921.148	14583
921.258	14187
921.368	14073
921.477	14081
921.587	14012
921.697	13955
921.806	14069
921.916	13978
922.025	13677
922.134	13723
922.244	13643
922.353	13616
922.462	13514
922.571	13563
922.68	13419
922.789	13369
922.898	13270
923.007	13289
923.116	13320
923.224	13369
923.333	13251
923.442	13266
923.55	13137
923.659	13175
923.767	13251
923.876	13069
923.984	13137
924.092	13107
924.201	13107
924.309	13107
924.417	13110
924.525	13034
924.633	13031
924.741	13822
924.849	12806
924.956	12894
925.064	12825
925.172	12757
925.279	12787
925.387	12779
925.494	12753
925.602	12871
925.709	12772
925.816	12730
925.924	12779
926.031	12802
926.138	12715
926.245	12760
926.352	12623
926.459	12753
926.566	12779
926.673	12612
926.779	12551
926.886	12517
926.993	12384
927.099	12361
927.206	12232
927.312	12323
927.419	12330
927.525	12292
927.631	12448
927.737	12308
927.843	12205
927.95	12148
928.056	12106
928.162	12167
928.267	12186
928.373	12745
928.479	12220
928.585	11961
928.69	12186
928.796	12140
928.901	11950
929.007	11885
929.112	12038
929.218	11954
929.323	11961
929.428	11920
929.533	11973
929.638	11904
929.743	11832
929.848	11866
929.953	11901
930.058	11718
930.163	11547
930.267	11691
930.372	11817
930.477	11570
930.581	11779
930.685	11688
930.79	11417
930.894	11532
930.998	11414
931.103	11592
931.207	11254
931.311	11197
931.415	11121
931.519	10900
931.623	10839
