Data from test_V78500241_506.txt Node
Date: Fri Mar 25 15:13:22 CST 2022
User: usil
Spectrometer: V785-0024
Trigger mode: 0
Integration Time (sec): 4.000000E-1
Scans to average: 1
Nonlinearity correction enabled: false
Boxcar width: 0
Storing dark spectrum: false
XAxis mode: Wavelengths
Number of Pixels in Spectrum: 1024
>>>>>Begin Spectral Data<<<<<
801.071	27450
801.214	27401
801.356	27176
801.499	27161
801.641	26914
801.783	26967
801.926	27036
802.068	26830
802.211	26838
802.353	26777
802.496	26708
802.638	26625
802.78	26617
802.923	26579
803.065	26556
803.208	26465
803.35	26473
803.492	26606
803.635	26712
803.777	26613
803.919	26849
804.061	27032
804.204	26663
804.346	26560
804.488	26644
804.63	26811
804.773	26670
804.915	26762
805.057	26891
805.199	26731
805.341	26705
805.483	26800
805.626	26887
805.768	26777
805.91	26826
806.052	26830
806.194	26796
806.336	27096
806.478	26811
806.62	26765
806.762	27108
806.904	27047
807.046	27317
807.188	27184
807.33	27207
807.472	27310
807.614	27245
807.756	27237
807.898	27055
808.04	26940
808.182	27089
808.324	27058
808.465	27146
808.607	27291
808.749	27260
808.891	27492
809.033	27477
809.174	27523
809.316	27507
809.458	27351
809.6	27332
809.741	27545
809.883	27545
810.025	27625
810.166	27595
810.308	27724
810.45	27671
810.591	27576
810.733	27606
810.875	27492
811.016	27363
811.158	27412
811.299	27473
811.441	27553
811.582	27591
811.724	27454
811.865	27435
812.007	27424
812.148	27310
812.29	27412
812.431	27530
812.573	27599
812.714	27964
812.855	27838
812.997	27983
813.138	28196
813.279	28025
813.421	27953
813.562	28051
813.703	27892
813.845	27591
813.986	27405
814.127	27203
814.268	27317
814.41	27100
814.551	27024
814.692	27173
814.833	27020
814.974	27047
815.115	27081
815.256	26952
815.397	27077
815.539	27077
815.68	26895
815.821	26944
815.962	26960
816.103	26925
816.244	26811
816.385	26769
816.526	26731
816.666	26412
816.807	26476
816.948	26503
817.089	26530
817.23	26518
817.371	26339
817.512	26320
817.653	26358
817.793	26271
817.934	26450
818.075	26343
818.216	26275
818.356	26332
818.497	26324
818.638	26180
818.778	26119
818.919	26267
819.06	26202
819.2	26218
819.341	26453
819.481	26412
819.622	26648
819.762	26880
819.903	26811
820.043	26587
820.184	26511
820.324	26511
820.465	26655
820.605	26674
820.746	26613
820.886	26492
821.026	26469
821.167	26541
821.307	26522
821.447	26431
821.588	26271
821.728	26259
821.868	26035
822.008	25712
822.149	25898
822.289	25811
822.429	25624
822.569	25495
822.709	25689
822.849	25392
822.99	25270
823.13	25422
823.27	25285
823.41	25209
823.55	25091
823.69	25122
823.83	25324
823.97	25175
824.11	25008
824.25	25065
824.389	25023
824.529	25171
824.669	24894
824.809	25000
824.949	25118
825.089	24924
825.228	25080
825.368	24859
825.508	24829
825.648	24943
825.787	24916
825.927	25004
826.067	24958
826.206	24886
826.346	24939
826.485	24844
826.625	24905
826.765	25110
826.904	25004
827.044	24604
827.183	24627
827.323	24559
827.462	24646
827.601	24616
827.741	24437
827.88	24734
828.02	24422
828.159	24483
828.298	24559
828.437	24764
828.577	24604
828.716	24783
828.855	24448
828.994	24365
829.134	24330
829.273	24437
829.412	24247
829.551	24270
829.69	24334
829.829	24384
829.968	24486
830.107	24391
830.246	24460
830.385	24129
830.524	24186
830.663	24163
830.802	24079
830.941	23821
831.08	23904
831.219	24030
831.357	23977
831.496	24026
831.635	23889
831.774	23805
831.913	23885
832.051	23661
832.19	23634
832.329	23737
832.467	23516
832.606	23630
832.744	23528
832.883	23539
833.022	23505
833.16	23695
833.299	23680
833.437	23718
833.576	23752
833.714	23657
833.852	23794
833.991	23718
834.129	23760
834.267	23767
834.406	23592
834.544	23703
834.682	23771
834.821	23585
834.959	23866
835.097	23585
835.235	23592
835.373	23665
835.511	23611
835.65	23524
835.788	23611
835.926	23368
836.064	23311
836.202	23315
836.34	23337
836.478	23615
836.615	23551
836.753	23676
836.891	23649
837.029	23543
837.167	23341
837.305	23387
837.443	23402
837.58	23398
837.718	23467
837.856	23372
837.993	23349
838.131	23299
838.269	23299
838.406	23277
838.544	23204
838.681	23048
838.819	22980
838.956	22710
839.094	22755
839.231	22862
839.369	22919
839.506	23170
839.643	23048
839.781	22900
839.918	22866
840.055	22702
840.193	22847
840.33	22710
840.467	22748
840.604	22668
840.742	23003
840.879	22542
841.016	22660
841.153	22733
841.29	22843
841.427	22774
841.564	22812
841.701	22698
841.838	22672
841.975	22672
842.112	22748
842.249	22630
842.385	22535
842.522	22649
842.659	22516
842.796	22569
842.933	22432
843.069	22455
843.206	22432
843.343	22462
843.479	22588
843.616	22592
843.752	22356
843.889	22261
844.025	22390
844.162	22242
844.298	22329
844.435	22223
844.571	22196
844.708	22352
844.844	22398
844.98	22462
845.117	22337
845.253	22162
845.389	22158
845.525	22310
845.661	22101
845.798	21975
845.934	22207
846.07	21941
846.206	22036
846.342	22120
846.478	22059
846.614	21911
846.75	21793
846.886	21812
847.022	21781
847.158	21861
847.294	21770
847.429	21854
847.565	21717
847.701	21991
847.837	21492
847.972	21526
848.108	21660
848.244	21641
848.379	21340
848.515	21386
848.65	21378
848.786	21485
848.921	21294
849.057	21496
849.192	21443
849.328	21435
849.463	21264
849.598	21393
849.734	21203
849.869	21230
850.004	21066
850.14	21093
850.275	21123
850.41	21028
850.545	20982
850.68	21127
850.815	21180
850.95	21043
851.085	21252
851.22	21268
851.355	21074
851.49	21135
851.625	21096
851.76	20975
851.895	21036
852.03	21108
852.165	20990
852.299	21207
852.434	21154
852.569	21024
852.703	21188
852.838	21222
852.973	21252
853.107	21104
853.242	21104
853.376	20956
853.511	20868
853.645	20842
853.78	21055
853.914	20990
854.048	20975
854.183	20925
854.317	20941
854.451	21192
854.585	21047
854.72	21005
854.854	21051
854.988	20944
855.122	20826
855.256	20739
855.39	20891
855.524	21112
855.658	20979
855.792	20921
855.926	21039
856.06	21085
856.194	21020
856.327	20963
856.461	20895
856.595	20876
856.729	21024
856.862	21199
856.996	20902
857.13	21051
857.263	21047
857.397	20971
857.53	20883
857.664	21020
857.797	21005
857.931	21028
858.064	20880
858.197	21009
858.331	20944
858.464	20929
858.597	20899
858.731	20937
858.864	20872
858.997	20982
859.13	20979
859.263	20925
859.396	20986
859.529	20956
859.662	20937
859.795	20819
859.928	20899
860.061	21131
860.194	21165
860.327	20895
860.46	20872
860.592	21131
860.725	21077
860.858	21116
860.99	21039
861.123	20815
861.256	20868
861.388	20941
861.521	21603
861.653	20735
861.786	20716
861.918	20678
862.05	20883
862.183	20861
862.315	20876
862.447	20952
862.58	20746
862.712	20640
862.844	20651
862.976	20693
863.108	20651
863.24	21066
863.372	20693
863.504	20663
863.636	20613
863.768	20773
863.9	20727
864.032	20587
864.164	20602
864.296	20746
864.428	20720
864.559	20765
864.691	20765
864.823	20609
864.954	20693
865.086	20617
865.217	20625
865.349	20488
865.48	20655
865.612	20568
865.743	20697
865.875	20518
866.006	20568
866.137	20602
866.269	20549
866.4	20583
866.531	20499
866.662	20415
866.793	20457
866.924	20552
867.055	20575
867.186	20560
867.317	20469
867.448	20469
867.579	20507
867.71	20457
867.841	20423
867.972	20412
868.103	20507
868.233	20374
868.364	20507
868.495	20476
868.625	20727
868.756	20845
868.886	20667
869.017	20739
869.147	20864
869.278	20826
869.408	20731
869.539	20705
869.669	20944
869.799	20807
869.929	20785
870.06	20834
870.19	21066
870.32	21032
870.45	21058
870.58	21013
870.71	21135
870.84	21146
870.97	21138
871.1	21127
871.23	21359
871.36	21321
871.489	21241
871.619	21245
871.749	21370
871.879	21268
872.008	21515
872.138	21374
872.267	21386
872.397	21154
872.526	21138
872.656	21142
872.785	21100
872.915	21443
873.044	21466
873.173	21523
873.303	21557
873.432	21344
873.561	21511
873.69	21195
873.819	21317
873.948	21408
874.077	21401
874.206	21237
874.335	21332
874.464	21462
874.593	21610
874.722	21637
874.851	21595
874.979	21660
875.108	21667
875.237	21553
875.365	21382
875.494	21492
875.623	21629
875.751	21542
875.88	21511
876.008	21789
876.136	21736
876.265	21979
876.393	22017
876.521	22070
876.65	22051
876.778	21876
876.906	21903
877.034	21930
877.162	21983
877.29	21865
877.418	22017
877.546	21987
877.674	21987
877.802	21968
877.93	21960
878.058	21975
878.185	21766
878.313	21789
878.441	21964
878.568	21720
878.696	21816
878.824	21895
878.951	21998
879.079	22154
879.206	22215
879.333	22177
879.461	21907
879.588	21994
879.715	22158
879.842	22238
879.97	21857
880.097	21778
880.224	21652
880.351	21778
880.478	21812
880.605	21652
880.732	21793
880.859	21907
880.986	21785
881.112	21800
881.239	21701
881.366	21435
881.493	21477
881.619	21428
881.746	21386
881.872	21351
881.999	21233
882.125	21214
882.252	21367
882.378	21291
882.505	21306
882.631	21218
882.757	21089
882.883	21157
883.01	21184
883.136	20994
883.262	20967
883.388	20921
883.514	21051
883.64	21131
883.766	21020
883.892	20758
884.018	20998
884.143	20994
884.269	21005
884.395	20693
884.52	20758
884.646	20701
884.772	20632
884.897	20621
885.023	20655
885.148	20693
885.274	20902
885.399	20868
885.524	20686
885.65	20743
885.775	20758
885.9	20636
886.025	20773
886.15	20819
886.275	20720
886.4	20629
886.525	20640
886.65	20602
886.775	20556
886.9	20781
887.025	20838
887.149	20765
887.274	20454
887.399	20366
887.523	20530
887.648	20450
887.773	20438
887.897	20545
888.021	20461
888.146	20408
888.27	20575
888.395	20659
888.519	20571
888.643	20450
888.767	20434
888.891	20408
889.015	20229
889.139	20286
889.263	20233
889.387	20332
889.511	20484
889.635	20298
889.759	20313
889.883	20199
890.006	20282
890.13	20389
890.254	20077
890.377	20138
890.501	20138
890.624	20111
890.748	20024
890.871	19822
890.995	19791
891.118	19734
891.241	19860
891.364	19852
891.488	20005
891.611	19993
891.734	19944
891.857	19856
891.98	19852
892.103	19860
892.226	19833
892.349	19814
892.471	19556
892.594	19727
892.717	19765
892.839	19791
892.962	19742
893.085	19860
893.207	19750
893.33	19647
893.452	19586
893.575	19860
893.697	19715
893.819	19883
893.941	19883
894.064	19765
894.186	19712
894.308	19639
894.43	19784
894.552	19902
894.674	19776
894.796	19628
894.918	19765
895.04	19674
895.161	19761
895.283	19765
895.405	19776
895.526	19715
895.648	19746
895.769	19826
895.891	19708
896.012	19978
896.134	19693
896.255	19795
896.376	19784
896.498	19833
896.619	19670
896.74	19818
896.861	19856
896.982	20027
897.103	20237
897.224	19997
897.345	20050
897.466	19909
897.587	20001
897.708	20100
897.828	20077
897.949	19814
898.07	19890
898.19	19951
898.311	20062
898.431	19921
898.552	19883
898.672	20054
898.792	19982
898.913	19997
899.033	19852
899.153	19742
899.273	19655
899.393	19708
899.513	19814
899.633	19746
899.753	19704
899.873	19624
899.993	19769
900.113	19548
900.232	19575
900.352	19651
900.472	19647
900.591	19559
900.711	19533
900.83	19506
900.95	19689
901.069	19563
901.189	19422
901.308	19228
901.427	19042
901.546	19168
901.665	19072
901.784	18996
901.904	19057
902.023	18928
902.141	18661
902.26	18589
902.379	18707
902.498	18612
902.617	18490
902.735	18646
902.854	18601
902.973	18528
903.091	18330
903.21	18346
903.328	18167
903.446	18197
903.565	18155
903.683	18224
903.801	17958
903.919	18136
904.038	17942
904.156	17916
904.274	17946
904.392	17771
904.51	17748
904.627	17859
904.745	17935
904.863	17904
904.981	17668
905.098	17539
905.216	17600
905.334	17653
905.451	17562
905.569	17608
905.686	17551
905.803	17695
905.921	17349
906.038	17406
906.155	17387
906.272	17307
906.389	17140
906.506	17071
906.623	17132
906.74	17090
906.857	17071
906.974	17071
907.091	17117
907.208	17250
907.324	17018
907.441	17022
907.557	16896
907.674	16797
907.79	16694
907.907	16729
908.023	16771
908.139	16721
908.256	16763
908.372	16656
908.488	16630
908.604	16523
908.72	16500
908.836	16596
908.952	16470
909.068	16466
909.184	16649
909.3	16531
909.415	16637
909.531	16634
909.647	16280
909.762	16333
909.878	16196
909.993	16367
910.108	16177
910.224	16131
910.339	16124
910.454	16139
910.57	16139
910.685	16006
910.8	16329
910.915	16185
911.03	16101
911.145	15884
911.259	15785
911.374	15831
911.489	15671
911.604	15637
911.718	15667
911.833	15599
911.947	15458
912.062	15450
912.176	15462
912.291	15542
912.405	15637
912.519	15682
912.633	15713
912.748	15587
912.862	15523
912.976	15428
913.09	15218
913.204	15454
913.318	15435
913.431	15370
913.545	15603
913.659	15477
913.772	15363
913.886	15283
914	15317
914.113	15310
914.226	15310
914.34	15184
914.453	15062
914.566	15252
914.68	15070
914.793	15138
914.906	14842
915.019	14880
915.132	14777
915.245	14758
915.358	14796
915.47	14785
915.583	14769
915.696	14861
915.809	14960
915.921	14925
916.034	14773
916.146	14773
916.259	14712
916.371	14876
916.483	14845
916.595	14670
916.708	14610
916.82	14674
916.932	14590
917.044	14720
917.156	14598
917.268	14514
917.38	14408
917.491	14503
917.603	14488
917.715	14564
917.826	14579
917.938	14396
918.049	14286
918.161	14427
918.272	14480
918.384	14461
918.495	14442
918.606	14396
918.717	14278
918.828	14267
918.939	14320
919.05	14248
919.161	14263
919.272	14081
919.383	14138
919.494	14298
919.604	14484
919.715	14180
919.826	14161
919.936	14214
920.047	14267
920.157	14221
920.267	14518
920.378	14298
920.488	14229
920.598	14343
920.708	14522
920.818	14347
920.928	14267
921.038	14625
921.148	14507
921.258	14206
921.368	14126
921.477	14005
921.587	13932
921.697	13864
921.806	14024
921.916	13860
922.025	13693
922.134	13689
922.244	13620
922.353	13742
922.462	13476
922.571	13460
922.68	13206
922.789	13228
922.898	13316
923.007	13145
923.116	13282
923.224	13213
923.333	13232
923.442	13084
923.55	13118
923.659	13122
923.767	13149
923.876	13080
923.984	13171
924.092	13050
924.201	13050
924.309	13042
924.417	13012
924.525	12958
924.633	12909
924.741	13674
924.849	12730
924.956	12863
925.064	12692
925.172	12650
925.279	12711
925.387	12734
925.494	12669
925.602	12802
925.709	12700
925.816	12631
925.924	12578
926.031	12749
926.138	12722
926.245	12703
926.352	12559
926.459	12589
926.566	12738
926.673	12582
926.779	12464
926.886	12521
926.993	12273
927.099	12228
927.206	12232
927.312	12194
927.419	12243
927.525	12285
927.631	12254
927.737	12190
927.843	12167
927.95	12007
928.056	12022
928.162	12095
928.267	12277
928.373	12616
928.479	12182
928.585	11840
928.69	12019
928.796	12136
928.901	11889
929.007	11832
929.112	11946
929.218	11748
929.323	11767
929.428	11840
929.533	11958
929.638	11764
929.743	11794
929.848	11802
929.953	11722
930.058	11672
930.163	11509
930.267	11547
930.372	11726
930.477	11368
930.581	11786
930.685	11543
930.79	11391
930.894	11478
930.998	11353
931.103	11501
931.207	11208
931.311	11105
931.415	10987
931.519	10923
931.623	10793
