Data from test_V78500241_1860.txt Node
Date: Fri Mar 25 15:22:48 CST 2022
User: usil
Spectrometer: V785-0024
Trigger mode: 0
Integration Time (sec): 4.000000E-1
Scans to average: 1
Nonlinearity correction enabled: false
Boxcar width: 0
Storing dark spectrum: false
XAxis mode: Wavelengths
Number of Pixels in Spectrum: 1024
>>>>>Begin Spectral Data<<<<<
801.071	27842
801.214	27728
801.356	27511
801.499	27336
801.641	27252
801.783	27329
801.926	27412
802.068	27272
802.211	27313
802.353	27032
802.496	26971
802.638	26895
802.78	26937
802.923	26925
803.065	26940
803.208	26952
803.35	26933
803.492	27150
803.635	27089
803.777	27062
803.919	27180
804.061	27393
804.204	27211
804.346	27138
804.488	27093
804.63	27081
804.773	27024
804.915	27085
805.057	27199
805.199	27055
805.341	27199
805.483	27332
805.626	27233
805.768	27180
805.91	27302
806.052	27450
806.194	27085
806.336	27401
806.478	27317
806.62	27218
806.762	27435
806.904	27507
807.046	27800
807.188	27568
807.33	27759
807.472	27694
807.614	27580
807.756	27686
807.898	27542
808.04	27481
808.182	27424
808.324	27534
808.465	27622
808.607	27774
808.749	27930
808.891	27899
809.033	27960
809.174	27994
809.316	27770
809.458	27842
809.6	27956
809.741	27941
809.883	28055
810.025	28211
810.166	28246
810.308	28185
810.45	28192
810.591	28051
810.733	27869
810.875	27835
811.016	27850
811.158	27701
811.299	27991
811.441	27956
811.582	28040
811.724	27873
811.865	28013
812.007	27823
812.148	27926
812.29	27975
812.431	28067
812.573	28219
812.714	28451
812.855	28409
812.997	28459
813.138	28561
813.279	28630
813.421	28413
813.562	28470
813.703	28040
813.845	28086
813.986	27907
814.127	27587
814.268	27572
814.41	27580
814.551	27656
814.692	27603
814.833	27538
814.974	27386
815.115	27492
815.256	27435
815.397	27549
815.539	27454
815.68	27485
815.821	27203
815.962	27443
816.103	27310
816.244	27074
816.385	27264
816.526	26948
816.666	27093
816.807	26754
816.948	26914
817.089	26872
817.23	26895
817.371	26895
817.512	26811
817.653	26765
817.793	26739
817.934	26914
818.075	26842
818.216	26838
818.356	26906
818.497	26796
818.638	26560
818.778	26575
818.919	26541
819.06	26670
819.2	26667
819.341	26853
819.481	26853
819.622	27104
819.762	27020
819.903	27058
820.043	27051
820.184	27005
820.324	26925
820.465	27089
820.605	26883
820.746	26819
820.886	26842
821.026	26971
821.167	26921
821.307	27165
821.447	26845
821.588	26804
821.728	26697
821.868	26438
822.008	26370
822.149	26324
822.289	26244
822.429	26016
822.569	26005
822.709	25955
822.849	25837
822.99	25906
823.13	25753
823.27	25750
823.41	25658
823.55	25548
823.69	25681
823.83	25662
823.97	25609
824.11	25293
824.25	25483
824.389	25415
824.529	25438
824.669	25586
824.809	25639
824.949	25605
825.089	25483
825.228	25483
825.368	25403
825.508	25339
825.648	25304
825.787	25384
825.927	25381
826.067	25381
826.206	25221
826.346	25434
826.485	25430
826.625	25240
826.765	25441
826.904	25384
827.044	25171
827.183	25148
827.323	25019
827.462	25015
827.601	25103
827.741	24989
827.88	24996
828.02	24829
828.159	25046
828.298	25099
828.437	25175
828.577	25076
828.716	25137
828.855	24970
828.994	24894
829.134	24669
829.273	24882
829.412	24726
829.551	24787
829.69	24787
829.829	24753
829.968	24901
830.107	24844
830.246	24692
830.385	24707
830.524	24677
830.663	24578
830.802	24426
830.941	24327
831.08	24129
831.219	24445
831.357	24384
831.496	24620
831.635	24410
831.774	24144
831.913	24296
832.051	24194
832.19	24148
832.329	24334
832.467	24007
832.606	24041
832.744	24007
832.883	24098
833.022	23965
833.16	24064
833.299	24125
833.437	24125
833.576	24190
833.714	24079
833.852	24254
833.991	24018
834.129	24129
834.267	24155
834.406	24155
834.544	24205
834.682	24053
834.821	24102
834.959	24399
835.097	24102
835.235	24186
835.373	24076
835.511	24098
835.65	24034
835.788	23927
835.926	23885
836.064	23843
836.202	23840
836.34	24003
836.478	24026
836.615	23836
836.753	23897
836.891	24007
837.029	24015
837.167	23912
837.305	23836
837.443	23916
837.58	23840
837.718	23927
837.856	23882
837.993	23687
838.131	23847
838.269	23699
838.406	23649
838.544	23684
838.681	23528
838.819	23436
838.956	23315
839.094	23398
839.231	23292
839.369	23501
839.506	23551
839.643	23520
839.781	23391
839.918	23204
840.055	23326
840.193	23223
840.33	23242
840.467	23117
840.604	23216
840.742	23429
840.879	23060
841.016	23128
841.153	23060
841.29	23254
841.427	23136
841.564	23269
841.701	23147
841.838	23223
841.975	23071
842.112	23044
842.249	23014
842.385	22915
842.522	23204
842.659	23033
842.796	22972
842.933	22968
843.069	22942
843.206	23003
843.343	23041
843.479	22892
843.616	22927
843.752	22664
843.889	22774
844.025	22961
844.162	22736
844.298	22824
844.435	22702
844.571	22740
844.708	22820
844.844	22927
844.98	22873
845.117	22805
845.253	22656
845.389	22679
845.525	22664
845.661	22683
845.798	22402
845.934	22557
846.07	22466
846.206	22436
846.342	22557
846.478	22405
846.614	22306
846.75	22154
846.886	22120
847.022	22295
847.158	22215
847.294	22314
847.429	22188
847.565	22169
847.701	22455
847.837	21956
847.972	21884
848.108	22044
848.244	22013
848.379	21838
848.515	21846
848.65	21751
848.786	21755
848.921	21903
849.057	21949
849.192	21789
849.328	21873
849.463	21747
849.598	21778
849.734	21701
849.869	21682
850.004	21572
850.14	21587
850.275	21595
850.41	21405
850.545	21504
850.68	21488
850.815	21576
850.95	21561
851.085	21808
851.22	21789
851.355	21675
851.49	21488
851.625	21507
851.76	21625
851.895	21450
852.03	21473
852.165	21561
852.299	21641
852.434	21603
852.569	21564
852.703	21629
852.838	21637
852.973	21652
853.107	21728
853.242	21542
853.376	21443
853.511	21310
853.645	21359
853.78	21454
853.914	21374
854.048	21408
854.183	21317
854.317	21420
854.451	21553
854.585	21348
854.72	21382
854.854	21466
854.988	21344
855.122	21355
855.256	21195
855.39	21306
855.524	21424
855.658	21523
855.792	21454
855.926	21370
856.06	21469
856.194	21382
856.327	21469
856.461	21272
856.595	21287
856.729	21332
856.862	21599
856.996	21313
857.13	21428
857.263	21504
857.397	21519
857.53	21397
857.664	21496
857.797	21500
857.931	21511
858.064	21496
858.197	21477
858.331	21412
858.464	21279
858.597	21218
858.731	21268
858.864	21332
858.997	21264
859.13	21374
859.263	21363
859.396	21401
859.529	21408
859.662	21348
859.795	21340
859.928	21538
860.061	21553
860.194	21511
860.327	21488
860.46	21393
860.592	21447
860.725	21534
860.858	21591
860.99	21431
861.123	21344
861.256	21230
861.388	21252
861.521	22029
861.653	21268
861.786	21195
861.918	21291
862.05	21230
862.183	21264
862.315	21226
862.447	21416
862.58	21355
862.712	21093
862.844	20998
862.976	21321
863.108	21028
863.24	21386
863.372	21058
863.504	21020
863.636	21119
863.768	21085
863.9	21055
864.032	21009
864.164	21013
864.296	21116
864.428	21108
864.559	21131
864.691	21142
864.823	21062
864.954	21032
865.086	21001
865.217	21131
865.349	20956
865.48	20975
865.612	20895
865.743	21135
865.875	21100
866.006	20872
866.137	20941
866.269	21039
866.4	21043
866.531	20952
866.662	20925
866.793	20967
866.924	20975
867.055	20956
867.186	20906
867.317	20883
867.448	20895
867.579	20963
867.71	20876
867.841	20842
867.972	20952
868.103	20880
868.233	20941
868.364	20853
868.495	21089
868.625	21233
868.756	21272
868.886	21150
869.017	21081
869.147	21302
869.278	21310
869.408	21264
869.539	21218
869.669	21233
869.799	21233
869.929	21359
870.06	21230
870.19	21481
870.32	21538
870.45	21534
870.58	21701
870.71	21652
870.84	21728
870.97	21511
871.1	21523
871.23	21800
871.36	21816
871.489	21797
871.619	21804
871.749	21656
871.879	21857
872.008	21934
872.138	21816
872.267	21789
872.397	21679
872.526	21667
872.656	21660
872.785	21625
872.915	21778
873.044	21850
873.173	21945
873.303	21876
873.432	21991
873.561	21937
873.69	21816
873.819	21770
873.948	21915
874.077	21835
874.206	21797
874.335	21713
874.464	21797
874.593	22082
874.722	22032
874.851	22067
874.979	22055
875.108	22032
875.237	22112
875.365	22036
875.494	21918
875.623	22109
875.751	22021
875.88	22090
876.008	22211
876.136	22158
876.265	22481
876.393	22554
876.521	22432
876.65	22596
876.778	22447
876.906	22280
877.034	22443
877.162	22360
877.29	22280
877.418	22344
877.546	22318
877.674	22402
877.802	22352
877.93	22341
878.058	22337
878.185	22215
878.313	22284
878.441	22314
878.568	22238
878.696	22280
878.824	22398
878.951	22417
879.079	22687
879.206	22630
879.333	22565
879.461	22371
879.588	22535
879.715	22531
879.842	22656
879.97	22516
880.097	22162
880.224	22318
880.351	22207
880.478	22249
880.605	22257
880.732	22223
880.859	22485
880.986	22295
881.112	22257
881.239	22067
881.366	21964
881.493	21861
881.619	21728
881.746	21869
881.872	21789
881.999	21736
882.125	21686
882.252	21846
882.378	21724
882.505	21846
882.631	21591
882.757	21473
882.883	21701
883.01	21587
883.136	21431
883.262	21279
883.388	21287
883.514	21469
883.64	21447
883.766	21450
883.892	21325
884.018	21336
884.143	21363
884.269	21542
884.395	21146
884.52	21123
884.646	21028
884.772	21176
884.897	20963
885.023	21203
885.148	21169
885.274	21275
885.399	21146
885.524	21112
885.65	21123
885.775	21131
885.9	21028
886.025	21184
886.15	21154
886.275	21058
886.4	20986
886.525	21119
886.65	21032
886.775	20952
886.9	21310
887.025	21325
887.149	20971
887.274	20948
887.399	20872
887.523	20857
887.648	20788
887.773	20720
887.897	21051
888.021	20887
888.146	20838
888.27	21017
888.395	21005
888.519	20861
888.643	20929
888.767	20861
888.891	20686
889.015	20701
889.139	20781
889.263	20511
889.387	20724
889.511	20899
889.635	20895
889.759	20727
889.883	20564
890.006	20743
890.13	20796
890.254	20708
890.377	20708
890.501	20438
890.624	20423
890.748	20511
890.871	20393
890.995	20180
891.118	20168
891.241	20313
891.364	20366
891.488	20469
891.611	20351
891.734	20195
891.857	20252
891.98	20252
892.103	20271
892.226	20305
892.349	20275
892.471	20020
892.594	20199
892.717	20240
892.839	20309
892.962	20195
893.085	20161
893.207	20191
893.33	19982
893.452	20122
893.575	20259
893.697	20122
893.819	20301
893.941	20389
894.064	20301
894.186	20142
894.308	20020
894.43	20374
894.552	20195
894.674	20240
894.796	20005
894.918	20138
895.04	20164
895.161	20271
895.283	20096
895.405	20065
895.526	20065
895.648	20183
895.769	20138
895.891	20252
896.012	20305
896.134	20103
896.255	20130
896.376	20100
896.498	20134
896.619	20248
896.74	20240
896.861	20191
896.982	20454
897.103	20609
897.224	20351
897.345	20377
897.466	20343
897.587	20393
897.708	20476
897.828	20469
897.949	20294
898.07	20168
898.19	20298
898.311	20457
898.431	20374
898.552	20381
898.672	20469
898.792	20412
898.913	20366
899.033	20183
899.153	20240
899.273	19978
899.393	20142
899.513	20153
899.633	20138
899.753	20065
899.873	20031
899.993	20058
900.113	20008
900.232	20119
900.352	20016
900.472	19913
900.591	19799
900.711	19902
900.83	19769
900.95	19902
901.069	19997
901.189	19776
901.308	19525
901.427	19396
901.546	19430
901.665	19548
901.784	19460
901.904	19396
902.023	19327
902.141	19103
902.26	19015
902.379	19057
902.498	18962
902.617	18962
902.735	18985
902.854	18951
902.973	18837
903.091	18711
903.21	18677
903.328	18707
903.446	18563
903.565	18467
903.683	18452
903.801	18311
903.919	18464
904.038	18300
904.156	18197
904.274	18277
904.392	18178
904.51	18038
904.627	18213
904.745	18235
904.863	18296
904.981	18019
905.098	17942
905.216	17935
905.334	17961
905.451	17942
905.569	17817
905.686	17950
905.803	17840
905.921	17661
906.038	17718
906.155	17611
906.272	17558
906.389	17627
906.506	17429
906.623	17383
906.74	17463
906.857	17265
906.974	17356
907.091	17406
907.208	17589
907.324	17452
907.441	17315
907.557	17239
907.674	17239
907.79	17060
907.907	17143
908.023	17128
908.139	17197
908.256	17086
908.372	17045
908.488	16987
908.604	16793
908.72	16850
908.836	16908
908.952	16748
909.068	16850
909.184	17022
909.3	16854
909.415	16999
909.531	16831
909.647	16634
909.762	16599
909.878	16622
909.993	16573
910.108	16527
910.224	16497
910.339	16508
910.454	16451
910.57	16428
910.685	16192
910.8	16653
910.915	16497
911.03	16268
911.145	16238
911.259	16086
911.374	16200
911.489	16048
911.604	16082
911.718	15838
911.833	15926
911.947	15869
912.062	15797
912.176	15857
912.291	15987
912.405	15835
912.519	16067
912.633	16086
912.748	15949
912.862	15892
912.976	15717
913.09	15694
913.204	15724
913.318	15656
913.431	15854
913.545	15781
913.659	15812
913.772	15690
913.886	15526
914	15530
914.113	15450
914.226	15614
914.34	15534
914.453	15492
914.566	15576
914.68	15363
914.793	15393
914.906	15188
915.019	15142
915.132	14994
915.245	15085
915.358	15119
915.47	15176
915.583	15184
915.696	15131
915.809	15230
915.921	15165
916.034	15074
916.146	14967
916.259	15001
916.371	15074
916.483	15070
916.595	15013
916.708	14975
916.82	14880
916.932	14933
917.044	14921
917.156	14842
917.268	14800
917.38	14819
917.491	14724
917.603	14720
917.715	14861
917.826	14773
917.938	14735
918.049	14606
918.161	14674
918.272	14845
918.384	14830
918.495	14686
918.606	14537
918.717	14522
918.828	14473
918.939	14537
919.05	14461
919.161	14522
919.272	14305
919.383	14389
919.494	14583
919.604	14583
919.715	14511
919.826	14400
919.936	14533
920.047	14568
920.157	14457
920.267	14708
920.378	14419
920.488	14374
920.598	14610
920.708	14781
920.818	14708
920.928	14549
921.038	14735
921.148	14708
921.258	14366
921.368	14370
921.477	14195
921.587	14168
921.697	14054
921.806	14294
921.916	14081
922.025	13936
922.134	13856
922.244	13772
922.353	13868
922.462	13776
922.571	13658
922.68	13590
922.789	13457
922.898	13586
923.007	13499
923.116	13521
923.224	13483
923.333	13415
923.442	13346
923.55	13251
923.659	13415
923.767	13449
923.876	13400
923.984	13388
924.092	13270
924.201	13335
924.309	13266
924.417	13187
924.525	13156
924.633	13190
924.741	14077
924.849	12973
924.956	13080
925.064	13015
925.172	12920
925.279	12958
925.387	12993
925.494	12890
925.602	13084
925.709	13004
925.816	12810
925.924	12894
926.031	12947
926.138	12863
926.245	12939
926.352	12776
926.459	12844
926.566	12970
926.673	12863
926.779	12559
926.886	12726
926.993	12604
927.099	12475
927.206	12414
927.312	12502
927.419	12536
927.525	12498
927.631	12471
927.737	12361
927.843	12285
927.95	12216
928.056	12350
928.162	12384
928.267	12395
928.373	12882
928.479	12353
928.585	12144
928.69	12247
928.796	12323
928.901	12171
929.007	12038
929.112	12178
929.218	12125
929.323	12125
929.428	11965
929.533	12289
929.638	12057
929.743	11969
929.848	12022
929.953	11927
930.058	11908
930.163	11661
930.267	11885
930.372	11866
930.477	11726
930.581	11920
930.685	11851
930.79	11634
930.894	11638
930.998	11619
931.103	11764
931.207	11387
931.311	11284
931.415	11216
931.519	11132
931.623	11025
