Data from test_V78500241_115.txt Node
Date: Fri Mar 25 15:10:39 CST 2022
User: usil
Spectrometer: V785-0024
Trigger mode: 0
Integration Time (sec): 4.000000E-1
Scans to average: 1
Nonlinearity correction enabled: false
Boxcar width: 0
Storing dark spectrum: false
XAxis mode: Wavelengths
Number of Pixels in Spectrum: 1024
>>>>>Begin Spectral Data<<<<<
801.071	28021
801.214	27785
801.356	27800
801.499	27633
801.641	27466
801.783	27549
801.926	27500
802.068	27393
802.211	27431
802.353	27458
802.496	27180
802.638	27119
802.78	27005
802.923	27024
803.065	27020
803.208	27058
803.35	26963
803.492	27028
803.635	27104
803.777	27203
803.919	27245
804.061	27591
804.204	27169
804.346	27085
804.488	27093
804.63	27123
804.773	27066
804.915	27116
805.057	27241
805.199	27024
805.341	27214
805.483	27218
805.626	27245
805.768	27104
805.91	27252
806.052	27184
806.194	27157
806.336	27435
806.478	27283
806.62	27169
806.762	27188
806.904	27515
807.046	27488
807.188	27542
807.33	27389
807.472	27644
807.614	27549
807.756	27561
807.898	27291
808.04	27420
808.182	27397
808.324	27302
808.465	27488
808.607	27492
808.749	27679
808.891	27846
809.033	27838
809.174	27682
809.316	27739
809.458	27842
809.6	27679
809.741	27751
809.883	27743
810.025	27964
810.166	27816
810.308	27991
810.45	27972
810.591	27823
810.733	27720
810.875	27679
811.016	27545
811.158	27549
811.299	27595
811.441	27641
811.582	27850
811.724	27606
811.865	27576
812.007	27603
812.148	27637
812.29	27603
812.431	27861
812.573	27926
812.714	27968
812.855	28188
812.997	28192
813.138	28462
813.279	28261
813.421	28200
813.562	28238
813.703	27949
813.845	27846
813.986	27568
814.127	27431
814.268	27370
814.41	27249
814.551	27279
814.692	27310
814.833	27226
814.974	27051
815.115	27123
815.256	27173
815.397	27112
815.539	27013
815.68	27032
815.821	26914
815.962	26944
816.103	26868
816.244	26883
816.385	26701
816.526	26640
816.666	26571
816.807	26473
816.948	26423
817.089	26518
817.23	26393
817.371	26473
817.512	26393
817.653	26400
817.793	26320
817.934	26385
818.075	26465
818.216	26317
818.356	26377
818.497	26221
818.638	26084
818.778	26153
818.919	26100
819.06	26005
819.2	26153
819.341	26252
819.481	26248
819.622	26389
819.762	26743
819.903	26552
820.043	26400
820.184	26450
820.324	26347
820.465	26522
820.605	26328
820.746	26419
820.886	26248
821.026	26351
821.167	26294
821.307	26381
821.447	26244
821.588	26328
821.728	26016
821.868	25970
822.008	25647
822.149	25742
822.289	25807
822.429	25518
822.569	25403
822.709	25369
822.849	25301
822.99	25251
823.13	25209
823.27	25187
823.41	25091
823.55	24901
823.69	25107
823.83	24916
823.97	24913
824.11	24722
824.25	24817
824.389	24852
824.529	24951
824.669	24939
824.809	25031
824.949	24798
825.089	24928
825.228	24878
825.368	24669
825.508	24677
825.648	24688
825.787	24597
825.927	24574
826.067	24536
826.206	24574
826.346	24639
826.485	24757
826.625	24593
826.765	24783
826.904	24601
827.044	24441
827.183	24380
827.323	24201
827.462	24239
827.601	24281
827.741	24262
827.88	24289
828.02	24102
828.159	24285
828.298	24342
828.437	24361
828.577	24239
828.716	24365
828.855	24197
828.994	23973
829.134	24011
829.273	24041
829.412	23874
829.551	24041
829.69	23885
829.829	24038
829.968	24079
830.107	24117
830.246	24091
830.385	23908
830.524	23779
830.663	23920
830.802	23722
830.941	23554
831.08	23558
831.219	23668
831.357	23691
831.496	23836
831.635	23581
831.774	23497
831.913	23589
832.051	23398
832.19	23254
832.329	23345
832.467	23299
832.606	23159
832.744	23284
832.883	23136
833.022	23178
833.16	23227
833.299	23189
833.437	23242
833.576	23261
833.714	23227
833.852	23311
833.991	23193
834.129	23337
834.267	23170
834.406	23235
834.544	23292
834.682	23242
834.821	23242
834.959	23353
835.097	23170
835.235	23246
835.373	23216
835.511	23223
835.65	23006
835.788	23094
835.926	22919
836.064	22877
836.202	22927
836.34	23121
836.478	23105
836.615	22961
836.753	23041
836.891	23109
837.029	23041
837.167	22968
837.305	22881
837.443	22980
837.58	22938
837.718	23037
837.856	22889
837.993	22793
838.131	22923
838.269	22721
838.406	22858
838.544	22752
838.681	22523
838.819	22538
838.956	22379
839.094	22436
839.231	22417
839.369	22512
839.506	22645
839.643	22466
839.781	22287
839.918	22173
840.055	22242
840.193	22150
840.33	22253
840.467	22215
840.604	22204
840.742	22485
840.879	22223
841.016	22185
841.153	22135
841.29	22390
841.427	22226
841.564	22074
841.701	22276
841.838	22200
841.975	22082
842.112	22116
842.249	21983
842.385	21949
842.522	22257
842.659	22021
842.796	21903
842.933	21994
843.069	21903
843.206	21876
843.343	21964
843.479	21964
843.616	21956
843.752	21781
843.889	21827
844.025	21774
844.162	21690
844.298	21797
844.435	21694
844.571	21701
844.708	21770
844.844	21812
844.98	21778
845.117	21739
845.253	21618
845.389	21538
845.525	21447
845.661	21450
845.798	21450
845.934	21511
846.07	21424
846.206	21515
846.342	21599
846.478	21386
846.614	21298
846.75	21207
846.886	21131
847.022	21192
847.158	21264
847.294	21207
847.429	21203
847.565	21138
847.701	21313
847.837	20944
847.972	20853
848.108	20960
848.244	20895
848.379	20804
848.515	20693
848.65	20693
848.786	20743
848.921	20644
849.057	20861
849.192	20724
849.328	20765
849.463	20629
849.598	20598
849.734	20644
849.869	20602
850.004	20533
850.14	20454
850.275	20377
850.41	20427
850.545	20336
850.68	20370
850.815	20480
850.95	20396
851.085	20537
851.22	20594
851.355	20408
851.49	20419
851.625	20358
851.76	20237
851.895	20320
852.03	20244
852.165	20374
852.299	20609
852.434	20473
852.569	20393
852.703	20271
852.838	20488
852.973	20568
853.107	20488
853.242	20400
853.376	20385
853.511	20305
853.645	20267
853.78	20172
853.914	20271
854.048	20221
854.183	20237
854.317	20240
854.451	20450
854.585	20275
854.72	20214
854.854	20244
854.988	20168
855.122	20252
855.256	20050
855.39	20111
855.524	20278
855.658	20237
855.792	20320
855.926	20252
856.06	20195
856.194	20366
856.327	20218
856.461	20187
856.595	20100
856.729	20233
856.862	20408
856.996	20187
857.13	20248
857.263	20438
857.397	20374
857.53	20145
857.664	20225
857.797	20271
857.931	20351
858.064	20252
858.197	20233
858.331	20111
858.464	20130
858.597	20081
858.731	20176
858.864	20043
858.997	20237
859.13	20206
859.263	20142
859.396	20332
859.529	20225
859.662	20168
859.795	20142
859.928	20229
860.061	20298
860.194	20370
860.327	20172
860.46	20172
860.592	20309
860.725	20324
860.858	20332
860.99	20202
861.123	20161
861.256	20024
861.388	20134
861.521	20602
861.653	19989
861.786	20005
861.918	20054
862.05	20046
862.183	20046
862.315	20248
862.447	20309
862.58	20191
862.712	19909
862.844	19852
862.976	20012
863.108	19921
863.24	20412
863.372	19852
863.504	19947
863.636	19871
863.768	19898
863.9	19913
864.032	19776
864.164	19845
864.296	19807
864.428	19928
864.559	19928
864.691	19970
864.823	19890
864.954	19845
865.086	19769
865.217	19864
865.349	19761
865.48	19769
865.612	19791
865.743	19989
865.875	19795
866.006	19674
866.137	19693
866.269	19814
866.4	19635
866.531	19651
866.662	19605
866.793	19719
866.924	19738
867.055	19830
867.186	19689
867.317	19704
867.448	19647
867.579	19723
867.71	19533
867.841	19559
867.972	19731
868.103	19666
868.233	19803
868.364	19620
868.495	19830
868.625	19909
868.756	20084
868.886	19837
869.017	19982
869.147	20054
869.278	20145
869.408	19871
869.539	19940
869.669	20005
869.799	19997
869.929	20134
870.06	20046
870.19	20252
870.32	20206
870.45	20370
870.58	20237
870.71	20427
870.84	20480
870.97	20336
871.1	20370
871.23	20461
871.36	20461
871.489	20518
871.619	20465
871.749	20415
871.879	20644
872.008	20670
872.138	20492
872.267	20511
872.397	20355
872.526	20377
872.656	20317
872.785	20476
872.915	20552
873.044	20583
873.173	20609
873.303	20556
873.432	20587
873.561	20754
873.69	20598
873.819	20492
873.948	20712
874.077	20549
874.206	20549
874.335	20549
874.464	20670
874.593	20769
874.722	20765
874.851	20807
874.979	20823
875.108	20758
875.237	20640
875.365	20743
875.494	20781
875.623	20952
875.751	20830
875.88	20982
876.008	20990
876.136	20910
876.265	21195
876.393	21363
876.521	21256
876.65	21272
876.778	21211
876.906	21180
877.034	21135
877.162	21184
877.29	21009
877.418	21214
877.546	21085
877.674	21108
877.802	21207
877.93	21233
878.058	21203
878.185	21036
878.313	21260
878.441	21150
878.568	20956
878.696	21176
878.824	21074
878.951	21222
879.079	21534
879.206	21553
879.333	21294
879.461	21279
879.588	21348
879.715	21256
879.842	21507
879.97	21237
880.097	21039
880.224	20948
880.351	21066
880.478	21001
880.605	20887
880.732	20994
880.859	21211
880.986	21066
881.112	20963
881.239	20887
881.366	20705
881.493	20663
881.619	20568
881.746	20590
881.872	20659
881.999	20560
882.125	20575
882.252	20697
882.378	20522
882.505	20762
882.631	20377
882.757	20313
882.883	20465
883.01	20355
883.136	20298
883.262	20191
883.388	20134
883.514	20298
883.64	20263
883.766	20176
883.892	20157
884.018	20168
884.143	20199
884.269	20526
884.395	19986
884.52	19959
884.646	19970
884.772	19940
884.897	19856
885.023	20050
885.148	19997
885.274	20134
885.399	20092
885.524	19944
885.65	20043
885.775	19917
885.9	20001
886.025	20103
886.15	20062
886.275	19909
886.4	19928
886.525	19909
886.65	19868
886.775	19864
886.9	19974
887.025	20157
887.149	20001
887.274	19685
887.399	19811
887.523	19727
887.648	19613
887.773	19674
887.897	19875
888.021	19742
888.146	19651
888.27	19894
888.395	19868
888.519	19818
888.643	19837
888.767	19677
888.891	19674
889.015	19441
889.139	19518
889.263	19548
889.387	19639
889.511	19712
889.635	19734
889.759	19483
889.883	19605
890.006	19544
890.13	19594
890.254	19411
890.377	19411
890.501	19324
890.624	19217
890.748	19358
890.871	19206
890.995	19133
891.118	19076
891.241	19164
891.364	19126
891.488	19129
891.611	19046
891.734	19088
891.857	19160
891.98	19141
892.103	19187
892.226	19129
892.349	19061
892.471	19008
892.594	19168
892.717	18993
892.839	18973
892.962	19107
893.085	19179
893.207	19031
893.33	19019
893.452	18924
893.575	19042
893.697	18894
893.819	19137
893.941	19251
894.064	19099
894.186	19050
894.308	18913
894.43	19114
894.552	19099
894.674	19012
894.796	18943
894.918	19069
895.04	18985
895.161	19084
895.283	19031
895.405	18894
895.526	19034
895.648	18954
895.769	19107
895.891	19050
896.012	19129
896.134	19137
896.255	19110
896.376	19137
896.498	19137
896.619	19171
896.74	19179
896.861	19240
896.982	19354
897.103	19563
897.224	19358
897.345	19343
897.466	19282
897.587	19377
897.708	19457
897.828	19270
897.949	19282
898.07	19133
898.19	19190
898.311	19396
898.431	19225
898.552	19339
898.672	19373
898.792	19293
898.913	19266
899.033	19285
899.153	19076
899.273	18890
899.393	19061
899.513	18985
899.633	19050
899.753	19088
899.873	18958
899.993	19046
900.113	18996
900.232	18958
900.352	18962
900.472	18909
900.591	18814
900.711	18886
900.83	18814
900.95	18970
901.069	18932
901.189	18749
901.308	18601
901.427	18502
901.546	18410
901.665	18566
901.784	18528
901.904	18292
902.023	18205
902.141	18034
902.26	17996
902.379	18114
902.498	17916
902.617	17843
902.735	18060
902.854	17882
902.973	17794
903.091	17608
903.21	17619
903.328	17532
903.446	17532
903.565	17463
903.683	17436
903.801	17395
903.919	17425
904.038	17414
904.156	17254
904.274	17235
904.392	17193
904.51	17109
904.627	17170
904.745	17353
904.863	17280
904.981	16869
905.098	16869
905.216	16908
905.334	16911
905.451	16850
905.569	16904
905.686	16942
905.803	16927
905.921	16679
906.038	16786
906.155	16771
906.272	16466
906.389	16554
906.506	16470
906.623	16443
906.74	16405
906.857	16234
906.974	16310
907.091	16523
907.208	16527
907.324	16280
907.441	16295
907.557	16219
907.674	16207
907.79	16078
907.907	15983
908.023	15975
908.139	16101
908.256	16021
908.372	15903
908.488	15930
908.604	15854
908.72	15892
908.836	15804
908.952	15774
909.068	15884
909.184	15884
909.3	15747
909.415	15854
909.531	15743
909.647	15523
909.762	15542
909.878	15606
909.993	15504
910.108	15515
910.224	15435
910.339	15500
910.454	15412
910.57	15317
910.685	15173
910.8	15557
910.915	15564
911.03	15211
911.145	15127
911.259	15142
911.374	15135
911.489	15036
911.604	15005
911.718	14849
911.833	14887
911.947	14777
912.062	14648
912.176	14762
912.291	14845
912.405	14769
912.519	15058
912.633	15108
912.748	14834
912.862	14769
912.976	14526
913.09	14503
913.204	14537
913.318	14556
913.431	14765
913.545	14720
913.659	14777
913.772	14613
913.886	14419
914	14434
914.113	14590
914.226	14507
914.34	14568
914.453	14393
914.566	14606
914.68	14355
914.793	14336
914.906	14172
915.019	14062
915.132	14107
915.245	14206
915.358	14130
915.47	14267
915.583	14138
915.696	14214
915.809	14119
915.921	14324
916.034	14115
916.146	14058
916.259	14008
916.371	14054
916.483	14134
916.595	13986
916.708	14058
916.82	13894
916.932	14005
917.044	13871
917.156	13906
917.268	13803
917.38	13734
917.491	13807
917.603	13864
917.715	13864
917.826	13967
917.938	13852
918.049	13655
918.161	13750
918.272	13887
918.384	13830
918.495	13799
918.606	13674
918.717	13567
918.828	13590
918.939	13597
919.05	13533
919.161	13662
919.272	13343
919.383	13419
919.494	13666
919.604	13723
919.715	13609
919.826	13472
919.936	13540
920.047	13715
920.157	13540
920.267	13685
920.378	13556
920.488	13464
920.598	13723
920.708	13860
920.818	13731
920.928	13620
921.038	13879
921.148	13822
921.258	13362
921.368	13438
921.477	13297
921.587	13282
921.697	13129
921.806	13266
921.916	13228
922.025	13023
922.134	12970
922.244	12928
922.353	12977
922.462	12802
922.571	12779
922.68	12578
922.789	12544
922.898	12585
923.007	12494
923.116	12662
923.224	12544
923.333	12578
923.442	12498
923.55	12403
923.659	12445
923.767	12555
923.876	12388
923.984	12532
924.092	12361
924.201	12407
924.309	12384
924.417	12350
924.525	12357
924.633	12384
924.741	13061
924.849	12064
924.956	12125
925.064	12102
925.172	11984
925.279	12003
925.387	12133
925.494	11992
925.602	12194
925.709	12087
925.816	11954
925.924	12011
926.031	12068
926.138	12114
926.245	12026
926.352	11992
926.459	12041
926.566	12091
926.673	11996
926.779	11836
926.886	11752
926.993	11748
927.099	11642
927.206	11615
927.312	11600
927.419	11676
927.525	11680
927.631	11611
927.737	11535
927.843	11532
927.95	11368
928.056	11402
928.162	11414
928.267	11596
928.373	12064
928.479	11505
928.585	11303
928.69	11436
928.796	11528
928.901	11383
929.007	11235
929.112	11364
929.218	11345
929.323	11250
929.428	11223
929.533	11360
929.638	11170
929.743	11204
929.848	11204
929.953	11208
930.058	11067
930.163	10908
930.267	10869
930.372	11105
930.477	10862
930.581	11090
930.685	11022
930.79	10839
930.894	10805
930.998	10820
931.103	10961
931.207	10519
931.311	10459
931.415	10386
931.519	10265
931.623	10215
