Data from test_V78500241_1069.txt Node
Date: Fri Mar 25 15:17:18 CST 2022
User: usil
Spectrometer: V785-0024
Trigger mode: 0
Integration Time (sec): 4.000000E-1
Scans to average: 1
Nonlinearity correction enabled: false
Boxcar width: 0
Storing dark spectrum: false
XAxis mode: Wavelengths
Number of Pixels in Spectrum: 1024
>>>>>Begin Spectral Data<<<<<
801.071	28268
801.214	28158
801.356	28017
801.499	27972
801.641	27827
801.783	27835
801.926	28029
802.068	27922
802.211	27656
802.353	27770
802.496	27561
802.638	27625
802.78	27458
802.923	27576
803.065	27359
803.208	27496
803.35	27564
803.492	27652
803.635	27652
803.777	27553
803.919	27686
804.061	28135
804.204	27789
804.346	27793
804.488	27591
804.63	27690
804.773	27553
804.915	27709
805.057	27888
805.199	27838
805.341	27800
805.483	27895
805.626	27945
805.768	27728
805.91	27930
806.052	27865
806.194	27800
806.336	27991
806.478	27899
806.62	27831
806.762	28010
806.904	28166
807.046	28451
807.188	28310
807.33	28150
807.472	28257
807.614	28242
807.756	28318
807.898	28128
808.04	28265
808.182	28211
808.324	28166
808.465	28154
808.607	28424
808.749	28580
808.891	28675
809.033	28664
809.174	28721
809.316	28542
809.458	28561
809.6	28432
809.741	28660
809.883	28698
810.025	28710
810.166	28759
810.308	28904
810.45	28752
810.591	28729
810.733	28725
810.875	28607
811.016	28481
811.158	28436
811.299	28618
811.441	28740
811.582	28675
811.724	28580
811.865	28531
812.007	28424
812.148	28485
812.29	28573
812.431	28649
812.573	28904
812.714	29056
812.855	29216
812.997	29292
813.138	29307
813.279	29239
813.421	29064
813.562	29041
813.703	28957
813.845	28675
813.986	28500
814.127	28413
814.268	28318
814.41	28341
814.551	28101
814.692	28386
814.833	28207
814.974	28162
815.115	28120
815.256	28082
815.397	28223
815.539	28139
815.68	28116
815.821	28082
815.962	28002
816.103	28074
816.244	28032
816.385	27895
816.526	27934
816.666	27747
816.807	27603
816.948	27728
817.089	27637
817.23	27587
817.371	27538
817.512	27603
817.653	27504
817.793	27504
817.934	27606
818.075	27488
818.216	27587
818.356	27583
818.497	27317
818.638	27481
818.778	27363
818.919	27454
819.06	27401
819.2	27504
819.341	27679
819.481	27591
819.622	27774
819.762	27945
819.903	27759
820.043	27873
820.184	27759
820.324	27694
820.465	27808
820.605	27641
820.746	27717
820.886	27610
821.026	27610
821.167	27701
821.307	27675
821.447	27625
821.588	27469
821.728	27374
821.868	27241
822.008	27116
822.149	27150
822.289	27096
822.429	26845
822.569	26765
822.709	26762
822.849	26617
822.99	26613
823.13	26552
823.27	26541
823.41	26286
823.55	26172
823.69	26404
823.83	26393
823.97	26298
824.11	26218
824.25	26233
824.389	26294
824.529	26320
824.669	26263
824.809	26355
824.949	26366
825.089	26370
825.228	26343
825.368	25989
825.508	26134
825.648	26069
825.787	26088
825.927	26142
826.067	26161
826.206	26134
826.346	26176
826.485	26218
826.625	26115
826.765	26267
826.904	26122
827.044	25871
827.183	25963
827.323	25860
827.462	25814
827.601	25917
827.741	25925
827.88	25978
828.02	25514
828.159	25761
828.298	25826
828.437	26005
828.577	25769
828.716	25875
828.855	25738
828.994	25525
829.134	25453
829.273	25658
829.412	25495
829.551	25419
829.69	25567
829.829	25597
829.968	25647
830.107	25575
830.246	25635
830.385	25335
830.524	25426
830.663	25346
830.802	25126
830.941	25221
831.08	25042
831.219	25274
831.357	25194
831.496	25343
831.635	25076
831.774	25148
831.913	25118
832.051	24924
832.19	24970
832.329	24954
832.467	24833
832.606	24703
832.744	24760
832.883	24802
833.022	24760
833.16	24783
833.299	24894
833.437	24863
833.576	24932
833.714	24970
833.852	25050
833.991	24905
834.129	24935
834.267	24905
834.406	25019
834.544	24958
834.682	24875
834.821	24852
834.959	25034
835.097	24871
835.235	24970
835.373	24863
835.511	24802
835.65	24787
835.788	24677
835.926	24646
836.064	24612
836.202	24688
836.34	24673
836.478	24791
836.615	24768
836.753	24802
836.891	24787
837.029	24817
837.167	24749
837.305	24597
837.443	24738
837.58	24544
837.718	24654
837.856	24601
837.993	24502
838.131	24479
838.269	24391
838.406	24521
838.544	24388
838.681	24190
838.819	24190
838.956	23961
839.094	24079
839.231	24106
839.369	24258
839.506	24479
839.643	24182
839.781	24117
839.918	23897
840.055	24102
840.193	24049
840.33	23973
840.467	23954
840.604	23954
840.742	24235
840.879	23889
841.016	23882
841.153	23813
841.29	24079
841.427	23821
841.564	23969
841.701	23935
841.838	23847
841.975	23866
842.112	23893
842.249	23802
842.385	23589
842.522	23999
842.659	23824
842.796	23745
842.933	23737
843.069	23779
843.206	23676
843.343	23824
843.479	23764
843.616	23729
843.752	23535
843.889	23417
844.025	23714
844.162	23429
844.298	23649
844.435	23501
844.571	23440
844.708	23520
844.844	23581
844.98	23646
845.117	23596
845.253	23395
845.389	23467
845.525	23402
845.661	23360
845.798	23197
845.934	23178
846.07	23166
846.206	23269
846.342	23299
846.478	23094
846.614	22987
846.75	22866
846.886	22850
847.022	22946
847.158	22965
847.294	22873
847.429	22991
847.565	22923
847.701	23277
847.837	22710
847.972	22550
848.108	22759
848.244	22771
848.379	22649
848.515	22588
848.65	22481
848.786	22538
848.921	22546
849.057	22755
849.192	22531
849.328	22596
849.463	22485
849.598	22634
849.734	22413
849.869	22356
850.004	22344
850.14	22367
850.275	22242
850.41	22375
850.545	22299
850.68	22284
850.815	22447
850.95	22268
851.085	22470
851.22	22390
851.355	22318
851.49	22352
851.625	22169
851.76	22375
851.895	22276
852.03	22253
852.165	22135
852.299	22390
852.434	22432
852.569	22204
852.703	22265
852.838	22337
852.973	22432
853.107	22500
853.242	22352
853.376	22238
853.511	22093
853.645	22128
853.78	22257
853.914	22147
854.048	22067
854.183	22082
854.317	22223
854.451	22356
854.585	22128
854.72	22082
854.854	22207
854.988	21949
855.122	21945
855.256	22154
855.39	22226
855.524	22093
855.658	22154
855.792	22154
855.926	22120
856.06	22215
856.194	22158
856.327	22086
856.461	22181
856.595	21998
856.729	21968
856.862	22234
856.996	22200
857.13	22143
857.263	22169
857.397	22314
857.53	22048
857.664	22139
857.797	22200
857.931	22261
858.064	22063
858.197	22211
858.331	22090
858.464	22017
858.597	21956
858.731	21987
858.864	22090
858.997	22112
859.13	22120
859.263	22200
859.396	22185
859.529	22101
859.662	21983
859.795	22177
859.928	22196
860.061	22204
860.194	22284
860.327	22337
860.46	22211
860.592	22215
860.725	22265
860.858	22204
860.99	22246
861.123	22074
861.256	22044
861.388	22120
861.521	22744
861.653	22021
861.786	21892
861.918	21972
862.05	22040
862.183	22048
862.315	22173
862.447	22112
862.58	22150
862.712	21857
862.844	21793
862.976	21747
863.108	21934
863.24	22314
863.372	21915
863.504	21857
863.636	21842
863.768	21930
863.9	21770
864.032	21743
864.164	21751
864.296	21861
864.428	21991
864.559	21907
864.691	21918
864.823	21880
864.954	21762
865.086	21816
865.217	21724
865.349	21614
865.48	21671
865.612	21755
865.743	21812
865.875	21869
866.006	21622
866.137	21743
866.269	21610
866.4	21736
866.531	21633
866.662	21618
866.793	21576
866.924	21564
867.055	21641
867.186	21778
867.317	21656
867.448	21542
867.579	21644
867.71	21523
867.841	21549
867.972	21538
868.103	21656
868.233	21755
868.364	21641
868.495	21736
868.625	21918
868.756	21934
868.886	21800
869.017	21937
869.147	21918
869.278	22013
869.408	21751
869.539	21876
869.669	21873
869.799	21960
869.929	22063
870.06	21960
870.19	22177
870.32	22120
870.45	22265
870.58	22344
870.71	22306
870.84	22394
870.97	22303
871.1	22356
871.23	22280
871.36	22394
871.489	22432
871.619	22409
871.749	22459
871.879	22508
872.008	22580
872.138	22436
872.267	22546
872.397	22303
872.526	22386
872.656	22299
872.785	22238
872.915	22580
873.044	22504
873.173	22398
873.303	22675
873.432	22470
873.561	22618
873.69	22508
873.819	22428
873.948	22538
874.077	22516
874.206	22386
874.335	22519
874.464	22637
874.593	22755
874.722	22656
874.851	22592
874.979	22675
875.108	22660
875.237	22691
875.365	22641
875.494	22755
875.623	22778
875.751	22702
875.88	22733
876.008	22797
876.136	22847
876.265	23162
876.393	23105
876.521	23140
876.65	23098
876.778	23025
876.906	22961
877.034	23124
877.162	22961
877.29	22980
877.418	22991
877.546	22980
877.674	23102
877.802	23067
877.93	23025
878.058	22984
878.185	22915
878.313	22999
878.441	23018
878.568	22790
878.696	23003
878.824	23056
878.951	23075
879.079	23178
879.206	23421
879.333	23147
879.461	23189
879.588	23083
879.715	23132
879.842	23307
879.97	23113
880.097	22923
880.224	22866
880.351	22900
880.478	22911
880.605	22877
880.732	22850
880.859	23140
880.986	22778
881.112	22790
881.239	22717
881.366	22565
881.493	22641
881.619	22367
881.746	22481
881.872	22428
881.999	22379
882.125	22329
882.252	22402
882.378	22344
882.505	22538
882.631	22291
882.757	22078
882.883	22109
883.01	22128
883.136	22021
883.262	21949
883.388	21884
883.514	22185
883.64	22169
883.766	21907
883.892	21926
884.018	21907
884.143	22082
884.269	22021
884.395	21991
884.52	21759
884.646	21797
884.772	21682
884.897	21629
885.023	21808
885.148	21850
885.274	21884
885.399	21888
885.524	21816
885.65	21842
885.775	21766
885.9	21561
886.025	21838
886.15	21842
886.275	21652
886.4	21667
886.525	21682
886.65	21622
886.775	21625
886.9	21895
887.025	22017
887.149	21660
887.274	21568
887.399	21576
887.523	21500
887.648	21435
887.773	21408
887.897	21530
888.021	21583
888.146	21393
888.27	21682
888.395	21663
888.519	21504
888.643	21572
888.767	21481
888.891	21348
889.015	21401
889.139	21370
889.263	21306
889.387	21469
889.511	21469
889.635	21389
889.759	21192
889.883	21249
890.006	21363
890.13	21336
890.254	21260
890.377	21230
890.501	21036
890.624	21096
890.748	21039
890.871	21024
890.995	20857
891.118	20788
891.241	20853
891.364	20819
891.488	20899
891.611	20864
891.734	20811
891.857	20994
891.98	20933
892.103	20921
892.226	20902
892.349	20849
892.471	20522
892.594	20739
892.717	20807
892.839	20754
892.962	20800
893.085	20792
893.207	20724
893.33	20693
893.452	20636
893.575	20765
893.697	20739
893.819	20906
893.941	20891
894.064	20929
894.186	20632
894.308	20693
894.43	20861
894.552	20838
894.674	20819
894.796	20674
894.918	20735
895.04	20670
895.161	20762
895.283	20937
895.405	20724
895.526	20735
895.648	20693
895.769	20819
895.891	20788
896.012	20804
896.134	20857
896.255	20693
896.376	20788
896.498	20708
896.619	20807
896.74	20739
896.861	20796
896.982	20990
897.103	21119
897.224	20975
897.345	20986
897.466	20861
897.587	20982
897.708	21138
897.828	20861
897.949	20902
898.07	20891
898.19	20826
898.311	21085
898.431	20838
898.552	20876
898.672	21036
898.792	20845
898.913	21058
899.033	20769
899.153	20754
899.273	20663
899.393	20724
899.513	20636
899.633	20689
899.753	20659
899.873	20651
899.993	20689
900.113	20541
900.232	20705
900.352	20495
900.472	20492
900.591	20488
900.711	20408
900.83	20362
900.95	20568
901.069	20552
901.189	20248
901.308	20138
901.427	19955
901.546	20024
901.665	20008
901.784	20050
901.904	19822
902.023	19898
902.141	19495
902.26	19529
902.379	19582
902.498	19518
902.617	19453
902.735	19521
902.854	19468
902.973	19438
903.091	19156
903.21	19110
903.328	19160
903.446	19156
903.565	18993
903.683	18897
903.801	18901
903.919	19050
904.038	18894
904.156	18730
904.274	18863
904.392	18719
904.51	18722
904.627	18753
904.745	18776
904.863	18745
904.981	18544
905.098	18422
905.216	18460
905.334	18323
905.451	18506
905.569	18308
905.686	18452
905.803	18395
905.921	18213
906.038	18357
906.155	18300
906.272	18121
906.389	18148
906.506	17920
906.623	17916
906.74	17954
906.857	17771
906.974	17813
907.091	17984
907.208	17965
907.324	18011
907.441	17863
907.557	17684
907.674	17726
907.79	17512
907.907	17661
908.023	17642
908.139	17608
908.256	17634
908.372	17490
908.488	17433
908.604	17410
908.72	17292
908.836	17421
908.952	17299
909.068	17330
909.184	17509
909.3	17273
909.415	17292
909.531	17322
909.647	17128
909.762	17174
909.878	16991
909.993	16987
910.108	17079
910.224	17033
910.339	16934
910.454	16961
910.57	16858
910.685	16778
910.8	17121
910.915	17033
911.03	16892
911.145	16755
911.259	16641
911.374	16561
911.489	16611
911.604	16577
911.718	16367
911.833	16402
911.947	16223
912.062	16265
912.176	16375
912.291	16402
912.405	16382
912.519	16394
912.633	16542
912.748	16421
912.862	16379
912.976	16128
913.09	16063
913.204	16059
913.318	16246
913.431	16246
913.545	16299
913.659	16276
913.772	16143
913.886	16010
914	16036
914.113	16071
914.226	16082
914.34	16067
914.453	15888
914.566	15975
914.68	15903
914.793	15922
914.906	15652
915.019	15625
915.132	15553
915.245	15542
915.358	15599
915.47	15584
915.583	15584
915.696	15618
915.809	15709
915.921	15728
916.034	15492
916.146	15496
916.259	15481
916.371	15568
916.483	15519
916.595	15416
916.708	15340
916.82	15340
916.932	15306
917.044	15321
917.156	15294
917.268	15214
917.38	15298
917.491	15207
917.603	15245
917.715	15325
917.826	15355
917.938	15093
918.049	15135
918.161	15157
918.272	15237
918.384	15317
918.495	15154
918.606	15043
918.717	14933
918.828	14986
918.939	15051
919.05	14754
919.161	14899
919.272	14682
919.383	14727
919.494	14956
919.604	15199
919.715	14971
919.826	14815
919.936	14933
920.047	14902
920.157	14906
920.267	15154
920.378	14849
920.488	14906
920.598	15055
920.708	15176
920.818	15032
920.928	15051
921.038	15310
921.148	15218
921.258	14834
921.368	14811
921.477	14693
921.587	14560
921.697	14575
921.806	14583
921.916	14514
922.025	14286
922.134	14294
922.244	14389
922.353	14320
922.462	14103
922.571	14195
922.68	13967
922.789	13944
922.898	13921
923.007	13841
923.116	13993
923.224	14008
923.333	13856
923.442	13734
923.55	13757
923.659	13814
923.767	13803
923.876	13769
923.984	13795
924.092	13666
924.201	13597
924.309	13658
924.417	13753
924.525	13548
924.633	13575
924.741	14503
924.849	13255
924.956	13537
925.064	13453
925.172	13312
925.279	13263
925.387	13388
925.494	13392
925.602	13426
925.709	13327
925.816	13285
925.924	13240
926.031	13373
926.138	13282
926.245	13278
926.352	13179
926.459	13221
926.566	13293
926.673	13251
926.779	13004
926.886	13050
926.993	12882
927.099	12909
927.206	12867
927.312	12825
927.419	12852
927.525	12852
927.631	12882
927.737	12726
927.843	12707
927.95	12650
928.056	12700
928.162	12665
928.267	12779
928.373	13407
928.479	12719
928.585	12460
928.69	12700
928.796	12658
928.901	12532
929.007	12395
929.112	12464
929.218	12384
929.323	12429
929.428	12433
929.533	12559
929.638	12357
929.743	12342
929.848	12323
929.953	12292
930.058	12205
930.163	12049
930.267	12068
930.372	12270
930.477	12038
930.581	12266
930.685	12155
930.79	12068
930.894	11920
930.998	11950
931.103	12064
931.207	11642
931.311	11665
931.415	11532
931.519	11406
931.623	11337
