Data from test_V78500241_3399.txt Node
Date: Fri Mar 25 15:33:31 CST 2022
User: usil
Spectrometer: V785-0024
Trigger mode: 0
Integration Time (sec): 4.000000E-1
Scans to average: 1
Nonlinearity correction enabled: false
Boxcar width: 0
Storing dark spectrum: false
XAxis mode: Wavelengths
Number of Pixels in Spectrum: 1024
>>>>>Begin Spectral Data<<<<<
801.071	27165
801.214	27180
801.356	27085
801.499	27036
801.641	26842
801.783	26720
801.926	26853
802.068	26842
802.211	26773
802.353	26750
802.496	26568
802.638	26492
802.78	26461
802.923	26446
803.065	26313
803.208	26419
803.35	26438
803.492	26659
803.635	26678
803.777	26511
803.919	26712
804.061	26967
804.204	26678
804.346	26492
804.488	26556
804.63	26514
804.773	26514
804.915	26632
805.057	26617
805.199	26663
805.341	26705
805.483	26823
805.626	26640
805.768	26651
805.91	26731
806.052	26781
806.194	26594
806.336	26830
806.478	26701
806.62	26682
806.762	26967
806.904	26921
807.046	27157
807.188	27028
807.33	27237
807.472	27268
807.614	27093
807.756	27138
807.898	26937
808.04	27005
808.182	26960
808.324	26990
808.465	27032
808.607	27218
808.749	27408
808.891	27344
809.033	27485
809.174	27397
809.316	27195
809.458	27329
809.6	27211
809.741	27412
809.883	27431
810.025	27606
810.166	27591
810.308	27595
810.45	27648
810.591	27564
810.733	27450
810.875	27367
811.016	27272
811.158	27195
811.299	27583
811.441	27538
811.582	27401
811.724	27401
811.865	27192
812.007	27260
812.148	27355
812.29	27336
812.431	27416
812.573	27629
812.714	27656
812.855	27835
812.997	27842
813.138	27953
813.279	27983
813.421	27846
813.562	27800
813.703	27523
813.845	27530
813.986	27283
814.127	27070
814.268	27028
814.41	26960
814.551	26952
814.692	27157
814.833	27001
814.974	26982
815.115	26895
815.256	26811
815.397	26967
815.539	26956
815.68	26762
815.821	26720
815.962	26823
816.103	26693
816.244	26571
816.385	26484
816.526	26461
816.666	26259
816.807	26339
816.948	26332
817.089	26313
817.23	26358
817.371	26275
817.512	26134
817.653	26096
817.793	26111
817.934	26240
818.075	26317
818.216	26488
818.356	26271
818.497	26081
818.638	25986
818.778	25963
818.919	25986
819.06	26111
819.2	26183
819.341	26271
819.481	26320
819.622	26377
819.762	26651
819.903	26530
820.043	26343
820.184	26412
820.324	26370
820.465	26355
820.605	26320
820.746	26324
820.886	26214
821.026	26404
821.167	26214
821.307	26473
821.447	26252
821.588	26145
821.728	26043
821.868	25860
822.008	25628
822.149	25586
822.289	25731
822.429	25369
822.569	25369
822.709	25365
822.849	25133
822.99	25270
823.13	25194
823.27	25126
823.41	25088
823.55	24943
823.69	25076
823.83	24989
823.97	24992
824.11	24814
824.25	24829
824.389	24749
824.529	24833
824.669	24852
824.809	24951
824.949	24863
825.089	24821
825.228	24852
825.368	24696
825.508	24635
825.648	24620
825.787	24597
825.927	24958
826.067	24745
826.206	24730
826.346	24791
826.485	24749
826.625	24642
826.765	24825
826.904	24696
827.044	24574
827.183	24551
827.323	24494
827.462	24502
827.601	24452
827.741	24582
827.88	24479
828.02	24342
828.159	24311
828.298	24338
828.437	24536
828.577	24376
828.716	24429
828.855	24441
828.994	24232
829.134	24159
829.273	24057
829.412	24163
829.551	24026
829.69	24258
829.829	24083
829.968	24201
830.107	24277
830.246	24079
830.385	24102
830.524	24045
830.663	23999
830.802	23840
830.941	23756
831.08	23684
831.219	23802
831.357	23859
831.496	23984
831.635	23821
831.774	23649
831.913	23767
832.051	23611
832.19	23528
832.329	23478
832.467	23543
832.606	23315
832.744	23402
832.883	23383
833.022	23459
833.16	23360
833.299	23554
833.437	23356
833.576	23573
833.714	23486
833.852	23600
833.991	23657
834.129	23672
834.267	23581
834.406	23471
834.544	23482
834.682	23551
834.821	23372
834.959	23627
835.097	23486
835.235	23482
835.373	23455
835.511	23528
835.65	23315
835.788	23376
835.926	23223
836.064	23239
836.202	23064
836.34	23387
836.478	23455
836.615	23288
836.753	23311
836.891	23349
837.029	23239
837.167	23360
837.305	23391
837.443	23223
837.58	23140
837.718	23250
837.856	23178
837.993	23239
838.131	23151
838.269	23223
838.406	23022
838.544	23006
838.681	22831
838.819	22957
838.956	22592
839.094	22660
839.231	22634
839.369	22942
839.506	23006
839.643	22968
839.781	22729
839.918	22603
840.055	22744
840.193	22592
840.33	22618
840.467	22713
840.604	22656
840.742	22805
840.879	22447
841.016	22653
841.153	22440
841.29	22725
841.427	22592
841.564	22683
841.701	22672
841.838	22466
841.975	22535
842.112	22546
842.249	22451
842.385	22402
842.522	22740
842.659	22348
842.796	22413
842.933	22409
843.069	22295
843.206	22379
843.343	22405
843.479	22337
843.616	22386
843.752	22105
843.889	22173
844.025	22287
844.162	22192
844.298	22169
844.435	22185
844.571	22128
844.708	22147
844.844	22192
844.98	22272
845.117	22234
845.253	22082
845.389	22010
845.525	21983
845.661	22063
845.798	21892
845.934	22002
846.07	21884
846.206	21888
846.342	22017
846.478	21759
846.614	21770
846.75	21648
846.886	21641
847.022	21663
847.158	21690
847.294	21652
847.429	21679
847.565	21553
847.701	21766
847.837	21310
847.972	21340
848.108	21389
848.244	21298
848.379	21252
848.515	21222
848.65	21218
848.786	21302
848.921	21245
849.057	21252
849.192	21256
849.328	21291
849.463	21237
849.598	21184
849.734	21043
849.869	21051
850.004	20975
850.14	21009
850.275	21013
850.41	20838
850.545	20914
850.68	20853
850.815	21047
850.95	20952
851.085	21135
851.22	21039
851.355	20971
851.49	20864
851.625	21066
851.76	21017
851.895	20925
852.03	20883
852.165	20921
852.299	20990
852.434	21176
852.569	21001
852.703	21036
852.838	20941
852.973	21047
853.107	21150
853.242	20895
853.376	20750
853.511	20701
853.645	20823
853.78	20986
853.914	20815
854.048	20785
854.183	20670
854.317	20845
854.451	20956
854.585	20944
854.72	20811
854.854	20861
854.988	20769
855.122	20811
855.256	20594
855.39	20845
855.524	20872
855.658	20895
855.792	20925
855.926	20845
856.06	20754
856.194	20861
856.327	20826
856.461	20712
856.595	20693
856.729	20769
856.862	20823
856.996	20773
857.13	20887
857.263	20910
857.397	20876
857.53	20785
857.664	20864
857.797	20918
857.931	20857
858.064	20819
858.197	20918
858.331	20743
858.464	20720
858.597	20724
858.731	20830
858.864	20758
858.997	20792
859.13	20811
859.263	20804
859.396	20910
859.529	20705
859.662	20708
859.795	20781
859.928	20777
860.061	21013
860.194	21047
860.327	20948
860.46	20716
860.592	20952
860.725	20914
860.858	20895
860.99	20815
861.123	20792
861.256	20746
861.388	20876
861.521	21549
861.653	20590
861.786	20503
861.918	20613
862.05	20739
862.183	20762
862.315	20800
862.447	20815
862.58	20712
862.712	20606
862.844	20492
862.976	20594
863.108	20693
863.24	21017
863.372	20526
863.504	20545
863.636	20541
863.768	20526
863.9	20537
864.032	20495
864.164	20541
864.296	20514
864.428	20705
864.559	20522
864.691	20575
864.823	20575
864.954	20632
865.086	20469
865.217	20408
865.349	20396
865.48	20442
865.612	20514
865.743	20530
865.875	20465
866.006	20469
866.137	20309
866.269	20381
866.4	20446
866.531	20347
866.662	20355
866.793	20450
866.924	20282
867.055	20355
867.186	20465
867.317	20332
867.448	20263
867.579	20454
867.71	20267
867.841	20259
867.972	20438
868.103	20393
868.233	20457
868.364	20492
868.495	20438
868.625	20613
868.756	20602
868.886	20530
869.017	20606
869.147	20678
869.278	20712
869.408	20716
869.539	20724
869.669	20613
869.799	20579
869.929	20613
870.06	20693
870.19	20834
870.32	20910
870.45	20948
870.58	21116
870.71	21123
870.84	21013
870.97	20883
871.1	21074
871.23	21199
871.36	21233
871.489	21127
871.619	21184
871.749	21119
871.879	21233
872.008	21386
872.138	21260
872.267	21294
872.397	21077
872.526	20948
872.656	21020
872.785	21142
872.915	21199
873.044	21275
873.173	21241
873.303	21313
873.432	21214
873.561	21336
873.69	21249
873.819	21176
873.948	21310
874.077	21325
874.206	21222
874.335	21176
874.464	21268
874.593	21466
874.722	21344
874.851	21614
874.979	21515
875.108	21606
875.237	21336
875.365	21336
875.494	21530
875.623	21564
875.751	21580
875.88	21500
876.008	21618
876.136	21709
876.265	21926
876.393	21964
876.521	21865
876.65	21949
876.778	21884
876.906	21876
877.034	21831
877.162	21934
877.29	21766
877.418	21857
877.546	21888
877.674	21800
877.802	21751
877.93	21850
878.058	21819
878.185	21762
878.313	21679
878.441	21770
878.568	21698
878.696	21842
878.824	21831
878.951	21865
879.079	22093
879.206	22211
879.333	21964
879.461	21876
879.588	21922
879.715	21983
879.842	22116
879.97	21960
880.097	21595
880.224	21576
880.351	21679
880.478	21610
880.605	21667
880.732	21663
880.859	21991
880.986	21781
881.112	21686
881.239	21507
881.366	21405
881.493	21310
881.619	21268
881.746	21222
881.872	21192
881.999	21199
882.125	21108
882.252	21252
882.378	21325
882.505	21344
882.631	21119
882.757	20986
882.883	21047
883.01	20857
883.136	20944
883.262	20826
883.388	20781
883.514	20845
883.64	20948
883.766	20804
883.892	20724
884.018	20807
884.143	20811
884.269	20990
884.395	20682
884.52	20492
884.646	20682
884.772	20480
884.897	20480
885.023	20629
885.148	20667
885.274	20693
885.399	20708
885.524	20598
885.65	20590
885.775	20518
885.9	20625
886.025	20735
886.15	20697
886.275	20476
886.4	20434
886.525	20644
886.65	20533
886.775	20465
886.9	20655
887.025	20815
887.149	20530
887.274	20396
887.399	20290
887.523	20332
887.648	20419
887.773	20271
887.897	20374
888.021	20332
888.146	20282
888.27	20518
888.395	20427
888.519	20332
888.643	20396
888.767	20362
888.891	20187
889.015	20142
889.139	20256
889.263	20191
889.387	20267
889.511	20396
889.635	20305
889.759	20183
889.883	20172
890.006	20206
890.13	20225
890.254	20119
890.377	20107
890.501	19963
890.624	19993
890.748	19864
890.871	19845
890.995	19677
891.118	19616
891.241	19761
891.364	19753
891.488	19955
891.611	19784
891.734	19738
891.857	19765
891.98	19761
892.103	19772
892.226	19723
892.349	19753
892.471	19548
892.594	19685
892.717	19734
892.839	19628
892.962	19635
893.085	19791
893.207	19635
893.33	19491
893.452	19620
893.575	19784
893.697	19643
893.819	19769
893.941	19772
894.064	19803
894.186	19529
894.308	19491
894.43	19757
894.552	19852
894.674	19719
894.796	19658
894.918	19609
895.04	19495
895.161	19860
895.283	19693
895.405	19658
895.526	19658
895.648	19635
895.769	19712
895.891	19704
896.012	19666
896.134	19731
896.255	19719
896.376	19556
896.498	19651
896.619	19681
896.74	19666
896.861	19727
896.982	19932
897.103	20115
897.224	19928
897.345	19894
897.466	19742
897.587	19883
897.708	19936
897.828	20031
897.949	19753
898.07	19731
898.19	19723
898.311	19906
898.431	19746
898.552	19837
898.672	19849
898.792	20035
898.913	19887
899.033	19731
899.153	19704
899.273	19544
899.393	19616
899.513	19613
899.633	19590
899.753	19483
899.873	19601
899.993	19586
900.113	19590
900.232	19647
900.352	19464
900.472	19540
900.591	19396
900.711	19362
900.83	19422
900.95	19529
901.069	19548
901.189	19377
901.308	19103
901.427	18916
901.546	19000
901.665	19038
901.784	18920
901.904	18886
902.023	18787
902.141	18544
902.26	18692
902.379	18620
902.498	18521
902.617	18513
902.735	18551
902.854	18525
902.973	18509
903.091	18163
903.21	18186
903.328	18224
903.446	18144
903.565	17977
903.683	18114
903.801	17904
903.919	17889
904.038	17893
904.156	17840
904.274	17863
904.392	17836
904.51	17729
904.627	17889
904.745	17805
904.863	17836
904.981	17577
905.098	17482
905.216	17520
905.334	17585
905.451	17512
905.569	17592
905.686	17493
905.803	17433
905.921	17242
906.038	17337
906.155	17322
906.272	17086
906.389	17117
906.506	16930
906.623	16980
906.74	16946
906.857	16877
906.974	17018
907.091	17052
907.208	17102
907.324	17010
907.441	16904
907.557	16778
907.674	16801
907.79	16626
907.907	16729
908.023	16729
908.139	16824
908.256	16691
908.372	16596
908.488	16603
908.604	16493
908.72	16455
908.836	16523
908.952	16371
909.068	16493
909.184	16599
909.3	16322
909.415	16421
909.531	16371
909.647	16116
909.762	16188
909.878	16101
909.993	16147
910.108	16093
910.224	16036
910.339	16147
910.454	16109
910.57	15979
910.685	15956
910.8	16166
910.915	15953
911.03	15960
911.145	15808
911.259	15690
911.374	15728
911.489	15629
911.604	15793
911.718	15485
911.833	15580
911.947	15454
912.062	15359
912.176	15561
912.291	15492
912.405	15515
912.519	15656
912.633	15667
912.748	15557
912.862	15431
912.976	15268
913.09	15214
913.204	15287
913.318	15233
913.431	15462
913.545	15348
913.659	15435
913.772	15184
913.886	15279
914	15097
914.113	15176
914.226	15268
914.34	15157
914.453	15020
914.566	15074
914.68	15070
914.793	15013
914.906	14815
915.019	14731
915.132	14674
915.245	14705
915.358	14800
915.47	14838
915.583	14689
915.696	14819
915.809	14842
915.921	14910
916.034	14712
916.146	14682
916.259	14526
916.371	14769
916.483	14670
916.595	14594
916.708	14556
916.82	14530
916.932	14507
917.044	14556
917.156	14522
917.268	14385
917.38	14408
917.491	14511
917.603	14454
917.715	14476
917.826	14427
917.938	14381
918.049	14324
918.161	14298
918.272	14412
918.384	14480
918.495	14328
918.606	14218
918.717	14103
918.828	14142
918.939	14313
919.05	14039
919.161	14107
919.272	13944
919.383	14016
919.494	14191
919.604	14408
919.715	14138
919.826	14073
919.936	14115
920.047	14259
920.157	14119
920.267	14336
920.378	14199
920.488	14142
920.598	14240
920.708	14446
920.818	14176
920.928	14286
921.038	14415
921.148	14419
921.258	14073
921.368	14012
921.477	13902
921.587	13898
921.697	13742
921.806	13883
921.916	13715
922.025	13605
922.134	13544
922.244	13506
922.353	13636
922.462	13396
922.571	13312
922.68	13282
922.789	13183
922.898	13274
923.007	13168
923.116	13228
923.224	13168
923.333	13091
923.442	13053
923.55	13027
923.659	13008
923.767	13042
923.876	12962
923.984	13046
924.092	12856
924.201	12928
924.309	12890
924.417	12916
924.525	12863
924.633	12833
924.741	13693
924.849	12684
924.956	12840
925.064	12585
925.172	12559
925.279	12445
925.387	12798
925.494	12669
925.602	12707
925.709	12673
925.816	12544
925.924	12528
926.031	12589
926.138	12604
926.245	12608
926.352	12494
926.459	12559
926.566	12582
926.673	12506
926.779	12441
926.886	12410
926.993	12235
927.099	12262
927.206	12144
927.312	12152
927.419	12251
927.525	12167
927.631	12224
927.737	12015
927.843	12076
927.95	12019
928.056	12072
928.162	12079
928.267	12098
928.373	12574
928.479	12019
928.585	11893
928.69	11977
928.796	12007
928.901	11859
929.007	11691
929.112	11897
929.218	11912
929.323	11745
929.428	11767
929.533	11908
929.638	11710
929.743	11672
929.848	11813
929.953	11627
930.058	11528
930.163	11455
930.267	11406
930.372	11630
930.477	11410
930.581	11691
930.685	11444
930.79	11326
930.894	11307
930.998	11258
931.103	11467
931.207	11216
931.311	10927
931.415	10927
931.519	10755
931.623	10744
