Data from test_V78500241_2953.txt Node
Date: Fri Mar 25 15:30:25 CST 2022
User: usil
Spectrometer: V785-0024
Trigger mode: 0
Integration Time (sec): 4.000000E-1
Scans to average: 1
Nonlinearity correction enabled: false
Boxcar width: 0
Storing dark spectrum: false
XAxis mode: Wavelengths
Number of Pixels in Spectrum: 1024
>>>>>Begin Spectral Data<<<<<
801.071	27047
801.214	26937
801.356	26804
801.499	26735
801.641	26552
801.783	26522
801.926	26697
802.068	26522
802.211	26575
802.353	26511
802.496	26347
802.638	26328
802.78	26210
802.923	26107
803.065	26172
803.208	26069
803.35	26244
803.492	26385
803.635	26541
803.777	26347
803.919	26347
804.061	26693
804.204	26400
804.346	26286
804.488	26233
804.63	26355
804.773	26225
804.915	26336
805.057	26457
805.199	26366
805.341	26438
805.483	26648
805.626	26480
805.768	26343
805.91	26541
806.052	26514
806.194	26427
806.336	26469
806.478	26579
806.62	26400
806.762	26594
806.904	26571
807.046	26956
807.188	26868
807.33	26773
807.472	26765
807.614	26788
807.756	26800
807.898	26697
808.04	26617
808.182	26762
808.324	26754
808.465	26811
808.607	26979
808.749	26986
808.891	27135
809.033	27222
809.174	27116
809.316	26906
809.458	27085
809.6	26948
809.741	27093
809.883	27146
810.025	27447
810.166	27439
810.308	27332
810.45	27260
810.591	27127
810.733	27135
810.875	27074
811.016	27157
811.158	26845
811.299	27043
811.441	27188
811.582	27268
811.724	26952
811.865	27024
812.007	27013
812.148	27070
812.29	27100
812.431	27245
812.573	27218
812.714	27561
812.855	27542
812.997	27538
813.138	27743
813.279	27519
813.421	27534
813.562	27545
813.703	27336
813.845	27424
813.986	27051
814.127	26777
814.268	26845
814.41	26800
814.551	26705
814.692	26807
814.833	26720
814.974	26674
815.115	26781
815.256	26530
815.397	26541
815.539	26636
815.68	26446
815.821	26415
815.962	26518
816.103	26427
816.244	26377
816.385	26267
816.526	26237
816.666	26092
816.807	25921
816.948	25993
817.089	26065
817.23	25963
817.371	25947
817.512	25944
817.653	25913
817.793	25871
817.934	25932
818.075	25875
818.216	26020
818.356	25871
818.497	25833
818.638	25601
818.778	25708
818.919	25586
819.06	25757
819.2	25826
819.341	25955
819.481	25932
819.622	26020
819.762	26267
819.903	26122
820.043	26126
820.184	26046
820.324	26035
820.465	26062
820.605	26161
820.746	25883
820.886	25807
821.026	25978
821.167	25947
821.307	26058
821.447	25986
821.588	25795
821.728	25651
821.868	25575
822.008	25362
822.149	25384
822.289	25308
822.429	25107
822.569	25122
822.709	25110
822.849	24909
822.99	24878
823.13	24741
823.27	24791
823.41	24623
823.55	24623
823.69	24776
823.83	24776
823.97	24681
824.11	24498
824.25	24441
824.389	24437
824.529	24486
824.669	24464
824.809	24570
824.949	24540
825.089	24654
825.228	24498
825.368	24353
825.508	24243
825.648	24388
825.787	24494
825.927	24403
826.067	24460
826.206	24308
826.346	24486
826.485	24315
826.625	24399
826.765	24422
826.904	24456
827.044	24117
827.183	24254
827.323	24064
827.462	24159
827.601	24038
827.741	24110
827.88	24121
828.02	24125
828.159	24117
828.298	24178
828.437	24270
828.577	23954
828.716	24251
828.855	24038
828.994	23893
829.134	23969
829.273	23855
829.412	23767
829.551	23779
829.69	23821
829.829	23851
829.968	23931
830.107	23794
830.246	23840
830.385	23821
830.524	23821
830.663	23710
830.802	23547
830.941	23478
831.08	23330
831.219	23471
831.357	23402
831.496	23707
831.635	23482
831.774	23334
831.913	23258
832.051	23136
832.19	23189
832.329	23220
832.467	23075
832.606	23117
832.744	23037
832.883	23143
833.022	23071
833.16	22999
833.299	23064
833.437	23033
833.576	23128
833.714	23044
833.852	23220
833.991	23067
834.129	23223
834.267	23174
834.406	23147
834.544	23098
834.682	23151
834.821	23029
834.959	23299
835.097	23128
835.235	23204
835.373	23117
835.511	23067
835.65	22995
835.788	23033
835.926	22953
836.064	22763
836.202	22774
836.34	23014
836.478	23136
836.615	22915
836.753	22850
836.891	23140
837.029	22938
837.167	23105
837.305	22995
837.443	22873
837.58	22816
837.718	22797
837.856	22828
837.993	22801
838.131	22885
838.269	22729
838.406	22835
838.544	22675
838.681	22447
838.819	22390
838.956	22367
839.094	22265
839.231	22356
839.369	22527
839.506	22740
839.643	22500
839.781	22196
839.918	22238
840.055	22238
840.193	22162
840.33	22238
840.467	22135
840.604	22280
840.742	22557
840.879	22131
841.016	22143
841.153	22139
841.29	22215
841.427	22192
841.564	22344
841.701	22154
841.838	22230
841.975	22143
842.112	22135
842.249	22215
842.385	21972
842.522	22268
842.659	21983
842.796	21964
842.933	22055
843.069	21899
843.206	21884
843.343	21880
843.479	21998
843.616	21987
843.752	21846
843.889	21899
844.025	21972
844.162	21781
844.298	21789
844.435	21724
844.571	21701
844.708	21778
844.844	21953
844.98	21915
845.117	21835
845.253	21682
845.389	21625
845.525	21606
845.661	21534
845.798	21526
845.934	21595
846.07	21538
846.206	21515
846.342	21595
846.478	21473
846.614	21348
846.75	21176
846.886	21272
847.022	21268
847.158	21252
847.294	21283
847.429	21401
847.565	21184
847.701	21378
847.837	21005
847.972	20967
848.108	21047
848.244	21100
848.379	20792
848.515	20842
848.65	20788
848.786	20842
848.921	20842
849.057	20998
849.192	20830
849.328	20769
849.463	20880
849.598	20716
849.734	20735
849.869	20594
850.004	20689
850.14	20613
850.275	20594
850.41	20431
850.545	20587
850.68	20537
850.815	20568
850.95	20598
851.085	20682
851.22	20670
851.355	20682
851.49	20606
851.625	20602
851.76	20602
851.895	20526
852.03	20434
852.165	20488
852.299	20689
852.434	20583
852.569	20670
852.703	20457
852.838	20712
852.973	20617
853.107	20777
853.242	20438
853.376	20461
853.511	20328
853.645	20412
853.78	20431
853.914	20480
854.048	20343
854.183	20313
854.317	20381
854.451	20648
854.585	20469
854.72	20389
854.854	20457
854.988	20278
855.122	20347
855.256	20294
855.39	20461
855.524	20511
855.658	20355
855.792	20442
855.926	20556
856.06	20465
856.194	20454
856.327	20446
856.461	20381
856.595	20374
856.729	20450
856.862	20434
856.996	20507
857.13	20480
857.263	20590
857.397	20530
857.53	20400
857.664	20495
857.797	20568
857.931	20511
858.064	20400
858.197	20450
858.331	20503
858.464	20381
858.597	20244
858.731	20313
858.864	20313
858.997	20305
859.13	20381
859.263	20514
859.396	20511
859.529	20396
859.662	20332
859.795	20309
859.928	20587
860.061	20518
860.194	20575
860.327	20427
860.46	20351
860.592	20492
860.725	20549
860.858	20632
860.99	20495
861.123	20355
861.256	20290
861.388	20362
861.521	21070
861.653	20320
861.786	20134
861.918	20332
862.05	20343
862.183	20396
862.315	20404
862.447	20393
862.58	20408
862.712	20225
862.844	20069
862.976	20168
863.108	20218
863.24	20674
863.372	20027
863.504	20229
863.636	20115
863.768	20206
863.9	20122
864.032	20054
864.164	20027
864.296	20161
864.428	20195
864.559	20153
864.691	20008
864.823	20214
864.954	20088
865.086	20069
865.217	20134
865.349	19830
865.48	19989
865.612	20058
865.743	20172
865.875	20012
866.006	20107
866.137	19974
866.269	20008
866.4	19989
866.531	19902
866.662	19928
866.793	19940
866.924	19974
867.055	20001
867.186	19982
867.317	19951
867.448	19978
867.579	19875
867.71	19837
867.841	19936
867.972	19989
868.103	19951
868.233	20138
868.364	19989
868.495	20077
868.625	20275
868.756	20294
868.886	20180
869.017	20210
869.147	20427
869.278	20347
869.408	20267
869.539	20210
869.669	20385
869.799	20339
869.929	20309
870.06	20278
870.19	20480
870.32	20587
870.45	20492
870.58	20731
870.71	20659
870.84	20769
870.97	20640
871.1	20670
871.23	20670
871.36	20853
871.489	20674
871.619	20800
871.749	20910
871.879	20849
872.008	20994
872.138	20804
872.267	20765
872.397	20644
872.526	20663
872.656	20743
872.785	20598
872.915	20769
873.044	20929
873.173	21032
873.303	20826
873.432	20982
873.561	20876
873.69	20777
873.819	20975
873.948	20944
874.077	20815
874.206	20796
874.335	20887
874.464	20998
874.593	21119
874.722	21062
874.851	21112
874.979	21116
875.108	21150
875.237	21028
875.365	20899
875.494	21039
875.623	21055
875.751	21074
875.88	21199
876.008	21351
876.136	21283
876.265	21450
876.393	21587
876.521	21553
876.65	21439
876.778	21496
876.906	21469
877.034	21458
877.162	21397
877.29	21416
877.418	21355
877.546	21504
877.674	21363
877.802	21435
877.93	21458
878.058	21363
878.185	21332
878.313	21439
878.441	21469
878.568	21150
878.696	21287
878.824	21511
878.951	21481
879.079	21724
879.206	21732
879.333	21507
879.461	21294
879.588	21637
879.715	21648
879.842	21701
879.97	21488
880.097	21283
880.224	21401
880.351	21340
880.478	21359
880.605	21321
880.732	21203
880.859	21466
880.986	21325
881.112	21306
881.239	21146
881.366	21013
881.493	21024
881.619	20834
881.746	20880
881.872	20834
881.999	20819
882.125	20849
882.252	20804
882.378	20819
882.505	20891
882.631	20686
882.757	20609
882.883	20640
883.01	20579
883.136	20412
883.262	20423
883.388	20278
883.514	20674
883.64	20552
883.766	20507
883.892	20358
884.018	20419
884.143	20590
884.269	20670
884.395	20332
884.52	20229
884.646	20244
884.772	20164
884.897	20111
885.023	20324
885.148	20320
885.274	20419
885.399	20499
885.524	20343
885.65	20221
885.775	20290
885.9	20138
886.025	20317
886.15	20199
886.275	20100
886.4	19997
886.525	20062
886.65	20119
886.775	20100
886.9	20412
887.025	20381
887.149	20138
887.274	20084
887.399	19936
887.523	19894
887.648	20024
887.773	19807
887.897	20027
888.021	19921
888.146	19932
888.27	20069
888.395	20054
888.519	19928
888.643	20005
888.767	20039
888.891	19932
889.015	19769
889.139	19879
889.263	19833
889.387	19868
889.511	20073
889.635	19803
889.759	19868
889.883	19799
890.006	19818
890.13	19864
890.254	19689
890.377	19677
890.501	19613
890.624	19445
890.748	19514
890.871	19400
890.995	19373
891.118	19331
891.241	19392
891.364	19487
891.488	19419
891.611	19499
891.734	19464
891.857	19415
891.98	19350
892.103	19472
892.226	19422
892.349	19297
892.471	19213
892.594	19255
892.717	19266
892.839	19232
892.962	19392
893.085	19320
893.207	19362
893.33	19114
893.452	19255
893.575	19407
893.697	19304
893.819	19438
893.941	19499
894.064	19499
894.186	19289
894.308	19198
894.43	19270
894.552	19445
894.674	19358
894.796	19259
894.918	19232
895.04	19316
895.161	19445
895.283	19400
895.405	19259
895.526	19346
895.648	19381
895.769	19339
895.891	19422
896.012	19384
896.134	19335
896.255	19377
896.376	19171
896.498	19331
896.619	19392
896.74	19312
896.861	19392
896.982	19643
897.103	19647
897.224	19731
897.345	19556
897.466	19381
897.587	19506
897.708	19647
897.828	19529
897.949	19381
898.07	19373
898.19	19476
898.311	19643
898.431	19518
898.552	19601
898.672	19571
898.792	19674
898.913	19548
899.033	19441
899.153	19350
899.273	19206
899.393	19308
899.513	19346
899.633	19358
899.753	19343
899.873	19289
899.993	19445
900.113	19244
900.232	19320
900.352	19164
900.472	19202
900.591	19164
900.711	19084
900.83	19053
900.95	19225
901.069	19202
901.189	19004
901.308	18768
901.427	18700
901.546	18707
901.665	18703
901.784	18661
901.904	18795
902.023	18437
902.141	18304
902.26	18266
902.379	18334
902.498	18251
902.617	18308
902.735	18220
902.854	18197
902.973	18133
903.091	17999
903.21	17824
903.328	17824
903.446	17889
903.565	17741
903.683	17832
903.801	17714
903.919	17649
904.038	17661
904.156	17528
904.274	17604
904.392	17471
904.51	17471
904.627	17467
904.745	17619
904.863	17592
904.981	17364
905.098	17227
905.216	17136
905.334	17254
905.451	17197
905.569	17132
905.686	17204
905.803	17071
905.921	16961
906.038	17033
906.155	17006
906.272	16873
906.389	16831
906.506	16744
906.623	16622
906.74	16687
906.857	16622
906.974	16717
907.091	16713
907.208	16793
907.324	16790
907.441	16637
907.557	16474
907.674	16459
907.79	16318
907.907	16451
908.023	16443
908.139	16325
908.256	16356
908.372	16314
908.488	16272
908.604	16207
908.72	16162
908.836	16169
908.952	15991
909.068	16097
909.184	16295
909.3	16109
909.415	16090
909.531	16131
909.647	15884
909.762	15880
909.878	15785
909.993	15797
910.108	15800
910.224	15857
910.339	15937
910.454	15800
910.57	15759
910.685	15622
910.8	15915
910.915	15842
911.03	15686
911.145	15576
911.259	15462
911.374	15412
911.489	15397
911.604	15355
911.718	15218
911.833	15203
911.947	15207
912.062	15051
912.176	15252
912.291	15344
912.405	15222
912.519	15450
912.633	15374
912.748	15298
912.862	15245
912.976	15013
913.09	14921
913.204	14986
913.318	15009
913.431	15180
913.545	14986
913.659	15116
913.772	14990
913.886	14864
914	14849
914.113	14902
914.226	14925
914.34	14857
914.453	14701
914.566	14849
914.68	14716
914.793	14670
914.906	14590
915.019	14511
915.132	14396
915.245	14415
915.358	14549
915.47	14503
915.583	14537
915.696	14556
915.809	14583
915.921	14590
916.034	14381
916.146	14313
916.259	14415
916.371	14499
916.483	14423
916.595	14328
916.708	14301
916.82	14275
916.932	14263
917.044	14256
917.156	14210
917.268	14153
917.38	14180
917.491	14130
917.603	14069
917.715	14221
917.826	14240
917.938	14142
918.049	14062
918.161	14126
918.272	14282
918.384	14218
918.495	14153
918.606	13906
918.717	13955
918.828	13906
918.939	13951
919.05	13807
919.161	13906
919.272	13712
919.383	13849
919.494	14024
919.604	14088
919.715	13822
919.826	13776
919.936	13822
920.047	13963
920.157	13909
920.267	14103
920.378	13974
920.488	13902
920.598	14054
920.708	14218
920.818	14062
920.928	14020
921.038	14145
921.148	14016
921.258	13906
921.368	13791
921.477	13677
921.587	13647
921.697	13525
921.806	13670
921.916	13525
922.025	13304
922.134	13293
922.244	13301
922.353	13304
922.462	13149
922.571	13118
922.68	13031
922.789	12890
922.898	13015
923.007	12970
923.116	13000
923.224	12833
923.333	12939
923.442	12825
923.55	12783
923.659	12871
923.767	12894
923.876	12734
923.984	12806
924.092	12738
924.201	12798
924.309	12745
924.417	12783
924.525	12589
924.633	12665
924.741	13441
924.849	12467
924.956	12540
925.064	12330
925.172	12410
925.279	12388
925.387	12483
925.494	12384
925.602	12437
925.709	12365
925.816	12304
925.924	12285
926.031	12361
926.138	12365
926.245	12353
926.352	12292
926.459	12494
926.566	12422
926.673	12292
926.779	12148
926.886	12182
926.993	12095
927.099	11984
927.206	11893
927.312	11996
927.419	11999
927.525	11984
927.631	12045
927.737	11901
927.843	11794
927.95	11733
928.056	11870
928.162	11851
928.267	11870
928.373	12494
928.479	11920
928.585	11665
928.69	11790
928.796	11790
928.901	11649
929.007	11554
929.112	11714
929.218	11642
929.323	11596
929.428	11520
929.533	11668
929.638	11436
929.743	11490
929.848	11505
929.953	11577
930.058	11429
930.163	11235
930.267	11261
930.372	11429
930.477	11258
930.581	11421
930.685	11330
930.79	11212
930.894	11258
930.998	11140
931.103	11239
931.207	10843
931.311	10793
931.415	10767
931.519	10577
931.623	10584
