Data from test_V78500241_1509.txt Node
Date: Fri Mar 25 15:20:21 CST 2022
User: usil
Spectrometer: V785-0024
Trigger mode: 0
Integration Time (sec): 4.000000E-1
Scans to average: 1
Nonlinearity correction enabled: false
Boxcar width: 0
Storing dark spectrum: false
XAxis mode: Wavelengths
Number of Pixels in Spectrum: 1024
>>>>>Begin Spectral Data<<<<<
801.071	28086
801.214	27972
801.356	27800
801.499	27641
801.641	27572
801.783	27614
801.926	27603
802.068	27614
802.211	27583
802.353	27454
802.496	27302
802.638	27291
802.78	27306
802.923	27226
803.065	27176
803.208	27127
803.35	27340
803.492	27348
803.635	27568
803.777	27317
803.919	27488
804.061	27842
804.204	27557
804.346	27408
804.488	27313
804.63	27530
804.773	27363
804.915	27534
805.057	27610
805.199	27542
805.341	27580
805.483	27606
805.626	27614
805.768	27458
805.91	27572
806.052	27496
806.194	27534
806.336	27724
806.478	27469
806.62	27637
806.762	27701
806.904	27755
807.046	28017
807.188	28124
807.33	28128
807.472	28116
807.614	27983
807.756	28059
807.898	27979
808.04	27907
808.182	27888
808.324	27991
808.465	27972
808.607	27991
808.749	28135
808.891	28375
809.033	28246
809.174	28219
809.316	28272
809.458	28299
809.6	28249
809.741	28550
809.883	28398
810.025	28622
810.166	28466
810.308	28656
810.45	28367
810.591	28367
810.733	28276
810.875	28166
811.016	28112
811.158	27911
811.299	28310
811.441	28405
811.582	28322
811.724	28162
811.865	28356
812.007	28135
812.148	28192
812.29	28261
812.431	28398
812.573	28592
812.714	28577
812.855	28717
812.997	28866
813.138	28976
813.279	28831
813.421	28767
813.562	28748
813.703	28736
813.845	28413
813.986	28147
814.127	28067
814.268	27899
814.41	28051
814.551	27895
814.692	28147
814.833	27945
814.974	27987
815.115	27895
815.256	27789
815.397	27720
815.539	27736
815.68	27873
815.821	27698
815.962	27705
816.103	27724
816.244	27507
816.385	27538
816.526	27580
816.666	27393
816.807	27260
816.948	27287
817.089	27359
817.23	27321
817.371	27256
817.512	27146
817.653	27233
817.793	27192
817.934	27055
818.075	27268
818.216	27287
818.356	27184
818.497	27058
818.638	26982
818.778	27005
818.919	27039
819.06	27154
819.2	27116
819.341	27176
819.481	27161
819.622	27355
819.762	27561
819.903	27553
820.043	27321
820.184	27287
820.324	27264
820.465	27496
820.605	27378
820.746	27317
820.886	27173
821.026	27329
821.167	27207
821.307	27302
821.447	27260
821.588	27123
821.728	27017
821.868	26906
822.008	26708
822.149	26697
822.289	26697
822.429	26419
822.569	26336
822.709	26431
822.849	26362
822.99	26164
823.13	26218
823.27	26073
823.41	25970
823.55	25868
823.69	26100
823.83	26115
823.97	26024
824.11	25902
824.25	25833
824.389	25750
824.529	26016
824.669	25875
824.809	25944
824.949	25925
825.089	25928
825.228	25944
825.368	25875
825.508	25658
825.648	25696
825.787	25814
825.927	25788
826.067	25833
826.206	25727
826.346	25734
826.485	25803
826.625	25738
826.765	25708
826.904	25750
827.044	25403
827.183	25544
827.323	25354
827.462	25537
827.601	25335
827.741	25426
827.88	25339
828.02	25293
828.159	25434
828.298	25609
828.437	25502
828.577	25502
828.716	25556
828.855	25358
828.994	25110
829.134	25213
829.273	25133
829.412	25084
829.551	25042
829.69	25194
829.829	25107
829.968	25289
830.107	25122
830.246	25213
830.385	25156
830.524	25027
830.663	24951
830.802	24894
830.941	24688
831.08	24772
831.219	24757
831.357	24962
831.496	25084
831.635	24787
831.774	24593
831.913	24646
832.051	24570
832.19	24448
832.329	24654
832.467	24471
832.606	24399
832.744	24384
832.883	24357
833.022	24239
833.16	24418
833.299	24456
833.437	24410
833.576	24433
833.714	24505
833.852	24422
833.991	24597
834.129	24570
834.267	24620
834.406	24623
834.544	24608
834.682	24490
834.821	24570
834.959	24650
835.097	24391
835.235	24559
835.373	24456
835.511	24395
835.65	24376
835.788	24350
835.926	24159
836.064	24129
836.202	24273
836.34	24334
836.478	24490
836.615	24304
836.753	24323
836.891	24384
837.029	24357
837.167	24216
837.305	24174
837.443	24144
837.58	24053
837.718	24087
837.856	24136
837.993	24038
838.131	24091
838.269	24102
838.406	24038
838.544	23889
838.681	23745
838.819	23802
838.956	23497
839.094	23596
839.231	23604
839.369	23729
839.506	24007
839.643	23927
839.781	23657
839.918	23600
840.055	23577
840.193	23562
840.33	23410
840.467	23505
840.604	23585
840.742	23661
840.879	23417
841.016	23509
841.153	23349
841.29	23653
841.427	23581
841.564	23554
841.701	23528
841.838	23490
841.975	23452
842.112	23429
842.249	23315
842.385	23254
842.522	23554
842.659	23269
842.796	23299
842.933	23372
843.069	23189
843.206	23296
843.343	23258
843.479	23296
843.616	23330
843.752	23132
843.889	23022
844.025	23250
844.162	23124
844.298	23098
844.435	23064
844.571	22991
844.708	23102
844.844	23261
844.98	23429
845.117	23048
845.253	23067
845.389	22847
845.525	22946
845.661	22900
845.798	22672
845.934	22885
846.07	22710
846.206	22774
846.342	22828
846.478	22759
846.614	22615
846.75	22367
846.886	22535
847.022	22443
847.158	22698
847.294	22421
847.429	22565
847.565	22455
847.701	22717
847.837	22253
847.972	22112
848.108	22215
848.244	22280
848.379	22158
848.515	22101
848.65	22078
848.786	22150
848.921	22109
849.057	22322
849.192	22131
849.328	22177
849.463	22105
849.598	22029
849.734	21911
849.869	22013
850.004	21846
850.14	21873
850.275	21941
850.41	21819
850.545	21869
850.68	21751
850.815	21873
850.95	21732
851.085	21953
851.22	21926
851.355	21880
851.49	21892
851.625	21789
851.76	21747
851.895	21854
852.03	21736
852.165	21838
852.299	21713
852.434	21991
852.569	21941
852.703	21812
852.838	21857
852.973	22082
853.107	21983
853.242	21781
853.376	21641
853.511	21564
853.645	21580
853.78	21781
853.914	21656
854.048	21705
854.183	21762
854.317	21591
854.451	21865
854.585	21660
854.72	21644
854.854	21705
854.988	21572
855.122	21583
855.256	21618
855.39	21648
855.524	21732
855.658	21682
855.792	21743
855.926	21709
856.06	21686
856.194	21625
856.327	21686
856.461	21656
856.595	21545
856.729	21603
856.862	21812
856.996	21675
857.13	21644
857.263	21720
857.397	21785
857.53	21515
857.664	21751
857.797	21618
857.931	21728
858.064	21675
858.197	21838
858.331	21603
858.464	21568
858.597	21686
858.731	21625
858.864	21679
858.997	21553
859.13	21774
859.263	21694
859.396	21865
859.529	21542
859.662	21591
859.795	21511
859.928	21736
860.061	21774
860.194	21911
860.327	21800
860.46	21869
860.592	21736
860.725	21778
860.858	21884
860.99	21675
861.123	21564
861.256	21595
861.388	21789
861.521	22246
861.653	21568
861.786	21428
861.918	21488
862.05	21530
862.183	21603
862.315	21583
862.447	21743
862.58	21583
862.712	21504
862.844	21321
862.976	21443
863.108	21378
863.24	21812
863.372	21252
863.504	21332
863.636	21389
863.768	21469
863.9	21348
864.032	21348
864.164	21348
864.296	21420
864.428	21504
864.559	21389
864.691	21473
864.823	21317
864.954	21317
865.086	21397
865.217	21264
865.349	21116
865.48	21241
865.612	21344
865.743	21458
865.875	21237
866.006	21275
866.137	21302
866.269	21226
866.4	21100
866.531	21199
866.662	21119
866.793	21058
866.924	21154
867.055	21264
867.186	21192
867.317	21089
867.448	21100
867.579	21184
867.71	21165
867.841	20982
867.972	21233
868.103	21119
868.233	21100
868.364	21135
868.495	21310
868.625	21397
868.756	21568
868.886	21325
869.017	21557
869.147	21583
869.278	21610
869.408	21477
869.539	21545
869.669	21519
869.799	21504
869.929	21576
870.06	21477
870.19	21709
870.32	21736
870.45	21854
870.58	21789
870.71	21907
870.84	21869
870.97	21781
871.1	21819
871.23	21979
871.36	22048
871.489	21850
871.619	21873
871.749	21998
871.879	22029
872.008	22101
872.138	22032
872.267	22002
872.397	21907
872.526	21854
872.656	21755
872.785	21918
872.915	22097
873.044	22093
873.173	22048
873.303	22116
873.432	22036
873.561	22124
873.69	22074
873.819	22059
873.948	22109
874.077	21987
874.206	22032
874.335	21895
874.464	22048
874.593	22386
874.722	22226
874.851	22329
874.979	22226
875.108	22333
875.237	22268
875.365	22082
875.494	22280
875.623	22249
875.751	22299
875.88	22287
876.008	22402
876.136	22322
876.265	22717
876.393	22755
876.521	22778
876.65	22729
876.778	22588
876.906	22634
877.034	22550
877.162	22675
877.29	22527
877.418	22596
877.546	22588
877.674	22618
877.802	22516
877.93	22561
878.058	22497
878.185	22474
878.313	22603
878.441	22603
878.568	22363
878.696	22493
878.824	22485
878.951	22717
879.079	22801
879.206	22915
879.333	22706
879.461	22618
879.588	22660
879.715	22759
879.842	22862
879.97	22637
880.097	22375
880.224	22306
880.351	22550
880.478	22443
880.605	22417
880.732	22462
880.859	22565
880.986	22386
881.112	22390
881.239	22299
881.366	22116
881.493	22097
881.619	22013
881.746	22002
881.872	21972
881.999	22109
882.125	21850
882.252	22074
882.378	21895
882.505	22128
882.631	21865
882.757	21618
882.883	21751
883.01	21804
883.136	21610
883.262	21469
883.388	21603
883.514	21652
883.64	21682
883.766	21690
883.892	21515
884.018	21370
884.143	21606
884.269	21595
884.395	21454
884.52	21397
884.646	21424
884.772	21260
884.897	21245
885.023	21313
885.148	21378
885.274	21523
885.399	21443
885.524	21401
885.65	21256
885.775	21313
885.9	21169
886.025	21359
886.15	21469
886.275	21260
886.4	21188
886.525	21367
886.65	21264
886.775	21096
886.9	21431
887.025	21519
887.149	21245
887.274	21131
887.399	21089
887.523	21062
887.648	20986
887.773	20990
887.897	21146
888.021	21058
888.146	21036
888.27	21184
888.395	21161
888.519	21051
888.643	21203
888.767	21161
888.891	21077
889.015	20929
889.139	20967
889.263	20807
889.387	20982
889.511	21127
889.635	20948
889.759	20830
889.883	20918
890.006	20895
890.13	21001
890.254	20705
890.377	20705
890.501	20609
890.624	20640
890.748	20636
890.871	20533
890.995	20427
891.118	20469
891.241	20446
891.364	20476
891.488	20484
891.611	20499
891.734	20415
891.857	20556
891.98	20507
892.103	20488
892.226	20370
892.349	20446
892.471	20317
892.594	20366
892.717	20290
892.839	20294
892.962	20389
893.085	20366
893.207	20275
893.33	20210
893.452	20252
893.575	20419
893.697	20332
893.819	20617
893.941	20457
894.064	20522
894.186	20282
894.308	20195
894.43	20473
894.552	20514
894.674	20415
894.796	20183
894.918	20286
895.04	20286
895.161	20366
895.283	20404
895.405	20290
895.526	20309
895.648	20202
895.769	20377
895.891	20370
896.012	20408
896.134	20343
896.255	20377
896.376	20267
896.498	20313
896.619	20408
896.74	20248
896.861	20408
896.982	20583
897.103	20769
897.224	20590
897.345	20598
897.466	20438
897.587	20575
897.708	20670
897.828	20644
897.949	20492
898.07	20396
898.19	20480
898.311	20526
898.431	20377
898.552	20526
898.672	20499
898.792	20594
898.913	20465
899.033	20332
899.153	20343
899.273	20263
899.393	20218
899.513	20347
899.633	20343
899.753	20362
899.873	20229
899.993	20374
900.113	20225
900.232	20275
900.352	20153
900.472	20142
900.591	20096
900.711	20119
900.83	19928
900.95	20161
901.069	20115
901.189	19947
901.308	19689
901.427	19655
901.546	19715
901.665	19658
901.784	19620
901.904	19533
902.023	19449
902.141	19263
902.26	19202
902.379	19148
902.498	19175
902.617	19164
902.735	19095
902.854	19145
902.973	19050
903.091	18958
903.21	18973
903.328	18871
903.446	18677
903.565	18692
903.683	18620
903.801	18559
903.919	18525
904.038	18555
904.156	18521
904.274	18460
904.392	18266
904.51	18365
904.627	18407
904.745	18475
904.863	18410
904.981	18144
905.098	18167
905.216	18144
905.334	18194
905.451	18121
905.569	18053
905.686	18057
905.803	18174
905.921	17923
906.038	17942
906.155	17882
906.272	17821
906.389	17684
906.506	17611
906.623	17642
906.74	17596
906.857	17505
906.974	17463
907.091	17608
907.208	17722
907.324	17684
907.441	17395
907.557	17299
907.674	17341
907.79	17113
907.907	17277
908.023	17383
908.139	17307
908.256	17204
908.372	17246
908.488	17223
908.604	17006
908.72	16972
908.836	16976
908.952	16991
909.068	17052
909.184	17204
909.3	17014
909.415	17071
909.531	16972
909.647	16885
909.762	16694
909.878	16752
909.993	16736
910.108	16698
910.224	16752
910.339	16607
910.454	16626
910.57	16546
910.685	16493
910.8	16767
910.915	16599
911.03	16546
911.145	16265
911.259	16405
911.374	16325
911.489	16284
911.604	16112
911.718	16029
911.833	16082
911.947	15915
912.062	15778
912.176	16006
912.291	16074
912.405	16006
912.519	16204
912.633	16265
912.748	16082
912.862	16044
912.976	15953
913.09	15724
913.204	15865
913.318	15808
913.431	16059
913.545	15903
913.659	15941
913.772	15880
913.886	15720
914	15603
914.113	15724
914.226	15876
914.34	15759
914.453	15652
914.566	15831
914.68	15576
914.793	15542
914.906	15386
915.019	15306
915.132	15310
915.245	15325
915.358	15336
915.47	15336
915.583	15287
915.696	15298
915.809	15336
915.921	15408
916.034	15310
916.146	15157
916.259	15085
916.371	15222
916.483	15157
916.595	15097
916.708	15104
916.82	15081
916.932	15036
917.044	15097
917.156	14956
917.268	14933
917.38	14933
917.491	14857
917.603	14891
917.715	14998
917.826	14952
917.938	14845
918.049	14773
918.161	14804
918.272	15032
918.384	14941
918.495	14838
918.606	14754
918.717	14708
918.828	14682
918.939	14617
919.05	14636
919.161	14640
919.272	14400
919.383	14545
919.494	14636
919.604	14842
919.715	14648
919.826	14598
919.936	14667
920.047	14727
920.157	14636
920.267	14857
920.378	14655
920.488	14613
920.598	14720
920.708	14941
920.818	14807
920.928	14686
921.038	14880
921.148	14914
921.258	14552
921.368	14419
921.477	14396
921.587	14450
921.697	14259
921.806	14362
921.916	14161
922.025	13959
922.134	13936
922.244	14005
922.353	14088
922.462	13909
922.571	13890
922.68	13636
922.789	13674
922.898	13712
923.007	13616
923.116	13620
923.224	13613
923.333	13529
923.442	13468
923.55	13453
923.659	13521
923.767	13556
923.876	13491
923.984	13529
924.092	13464
924.201	13350
924.309	13324
924.417	13449
924.525	13221
924.633	13244
924.741	14107
924.849	13129
924.956	13289
925.064	13103
925.172	12996
925.279	12996
925.387	13069
925.494	13080
925.602	13244
925.709	13038
925.816	12977
925.924	13057
926.031	13141
926.138	13008
926.245	13084
926.352	12947
926.459	13008
926.566	13042
926.673	12966
926.779	12844
926.886	12738
926.993	12715
927.099	12635
927.206	12593
927.312	12627
927.419	12616
927.525	12494
927.631	12673
927.737	12490
927.843	12509
927.95	12346
928.056	12330
928.162	12513
928.267	12486
928.373	13027
928.479	12464
928.585	12262
928.69	12441
928.796	12399
928.901	12285
929.007	12072
929.112	12330
929.218	12254
929.323	12186
929.428	12197
929.533	12289
929.638	12091
929.743	12117
929.848	12144
929.953	12125
930.058	11935
930.163	11851
930.267	11874
930.372	11958
930.477	11847
930.581	12041
930.685	11847
930.79	11798
930.894	11741
930.998	11821
931.103	11771
931.207	11501
931.311	11421
931.415	11318
931.519	11189
931.623	11159
