Data from test_V78500241_2343.txt Node
Date: Fri Mar 25 15:26:10 CST 2022
User: usil
Spectrometer: V785-0024
Trigger mode: 0
Integration Time (sec): 4.000000E-1
Scans to average: 1
Nonlinearity correction enabled: false
Boxcar width: 0
Storing dark spectrum: false
XAxis mode: Wavelengths
Number of Pixels in Spectrum: 1024
>>>>>Begin Spectral Data<<<<<
801.071	27389
801.214	27408
801.356	27085
801.499	27203
801.641	27039
801.783	27013
801.926	27138
802.068	26986
802.211	26982
802.353	26952
802.496	26739
802.638	26697
802.78	26686
802.923	26632
803.065	26492
803.208	26453
803.35	26796
803.492	26785
803.635	26887
803.777	26823
803.919	26765
804.061	27104
804.204	26986
804.346	26929
804.488	26838
804.63	26849
804.773	26807
804.915	26720
805.057	26971
805.199	26800
805.341	26842
805.483	26872
805.626	26918
805.768	26899
805.91	26906
806.052	26910
806.194	27047
806.336	27032
806.478	26925
806.62	27062
806.762	27108
806.904	27260
807.046	27515
807.188	27313
807.33	27412
807.472	27397
807.614	27325
807.756	27203
807.898	27374
808.04	27119
808.182	27218
808.324	27252
808.465	27283
808.607	27466
808.749	27538
808.891	27553
809.033	27713
809.174	27542
809.316	27424
809.458	27538
809.6	27576
809.741	27701
809.883	27633
810.025	27869
810.166	27846
810.308	27793
810.45	27755
810.591	27751
810.733	27488
810.875	27587
811.016	27496
811.158	27424
811.299	27652
811.441	27728
811.582	27644
811.724	27473
811.865	27458
812.007	27500
812.148	27408
812.29	27580
812.431	27755
812.573	27808
812.714	27979
812.855	28021
812.997	28150
813.138	28455
813.279	28139
813.421	28128
813.562	27979
813.703	27766
813.845	27869
813.986	27427
814.127	27359
814.268	27332
814.41	27192
814.551	27214
814.692	27321
814.833	27123
814.974	27127
815.115	27287
815.256	27161
815.397	27108
815.539	27165
815.68	26944
815.821	26929
815.962	26948
816.103	27024
816.244	26758
816.385	26743
816.526	26720
816.666	26514
816.807	26507
816.948	26434
817.089	26476
817.23	26609
817.371	26549
817.512	26541
817.653	26419
817.793	26503
817.934	26393
818.075	26480
818.216	26465
818.356	26453
818.497	26377
818.638	26233
818.778	26237
818.919	26286
819.06	26199
819.2	26351
819.341	26541
819.481	26484
819.622	26545
819.762	26796
819.903	26743
820.043	26625
820.184	26587
820.324	26541
820.465	26644
820.605	26613
820.746	26514
820.886	26530
821.026	26621
821.167	26495
821.307	26632
821.447	26476
821.588	26495
821.728	26218
821.868	26161
822.008	25963
822.149	25947
822.289	25890
822.429	25689
822.569	25624
822.709	25639
822.849	25548
822.99	25540
823.13	25464
823.27	25400
823.41	25228
823.55	25122
823.69	25152
823.83	25232
823.97	25259
824.11	24996
824.25	24943
824.389	25152
824.529	25175
824.669	25057
824.809	25316
824.949	25133
825.089	25164
825.228	25038
825.368	24890
825.508	24924
825.648	24924
825.787	25034
825.927	24970
826.067	24844
826.206	24856
826.346	25023
826.485	24943
826.625	25000
826.765	25012
826.904	25053
827.044	24639
827.183	24707
827.323	24639
827.462	24741
827.601	24661
827.741	24612
827.88	24738
828.02	24582
828.159	24650
828.298	24669
828.437	24703
828.577	24608
828.716	24749
828.855	24574
828.994	24407
829.134	24254
829.273	24441
829.412	24429
829.551	24410
829.69	24407
829.829	24357
829.968	24570
830.107	24395
830.246	24414
830.385	24342
830.524	24220
830.663	24205
830.802	24121
830.941	23885
831.08	23897
831.219	24003
831.357	24106
831.496	24239
831.635	23859
831.774	23920
831.913	23786
832.051	23920
832.19	23794
832.329	23745
832.467	23604
832.606	23668
832.744	23493
832.883	23661
833.022	23638
833.16	23634
833.299	23581
833.437	23623
833.576	23718
833.714	23729
833.852	23756
833.991	23726
834.129	23783
834.267	23756
834.406	23672
834.544	23794
834.682	23691
834.821	23714
834.959	23889
835.097	23634
835.235	23870
835.373	23703
835.511	23714
835.65	23455
835.788	23482
835.926	23410
836.064	23414
836.202	23429
836.34	23547
836.478	23566
836.615	23520
836.753	23600
836.891	23630
837.029	23581
837.167	23463
837.305	23520
837.443	23349
837.58	23459
837.718	23528
837.856	23330
837.993	23292
838.131	23471
838.269	23296
838.406	23197
838.544	23242
838.681	22984
838.819	23003
838.956	22881
839.094	22904
839.231	22953
839.369	23048
839.506	23337
839.643	23193
839.781	22839
839.918	22904
840.055	22881
840.193	22805
840.33	22839
840.467	22831
840.604	22812
840.742	22923
840.879	22615
841.016	22702
841.153	22687
841.29	22877
841.427	22839
841.564	22828
841.701	22729
841.838	22755
841.975	22740
842.112	22637
842.249	22649
842.385	22500
842.522	22573
842.659	22504
842.796	22561
842.933	22607
843.069	22398
843.206	22436
843.343	22565
843.479	22561
843.616	22653
843.752	22405
843.889	22337
844.025	22470
844.162	22402
844.298	22322
844.435	22375
844.571	22276
844.708	22291
844.844	22497
844.98	22440
845.117	22329
845.253	22276
845.389	22249
845.525	22082
845.661	22143
845.798	22051
845.934	22082
846.07	22063
846.206	22090
846.342	22090
846.478	21983
846.614	21915
846.75	21804
846.886	21747
847.022	21823
847.158	21781
847.294	21762
847.429	21816
847.565	21846
847.701	22013
847.837	21481
847.972	21450
848.108	21595
848.244	21622
848.379	21367
848.515	21332
848.65	21405
848.786	21313
848.921	21481
849.057	21439
849.192	21469
849.328	21401
849.463	21272
849.598	21378
849.734	21249
849.869	21321
850.004	21116
850.14	21058
850.275	21062
850.41	21051
850.545	21093
850.68	21195
850.815	21161
850.95	21024
851.085	21325
851.22	21325
851.355	21108
851.49	21146
851.625	20975
851.76	21123
851.895	20963
852.03	21074
852.165	21146
852.299	21127
852.434	21222
852.569	21131
852.703	21154
852.838	21199
852.973	21348
853.107	21401
853.242	21089
853.376	21077
853.511	20876
853.645	20880
853.78	21081
853.914	20975
854.048	20864
854.183	20971
854.317	20937
854.451	21024
854.585	20826
854.72	20948
854.854	21077
854.988	20887
855.122	20819
855.256	20918
855.39	20937
855.524	21138
855.658	21096
855.792	20933
855.926	20899
856.06	20956
856.194	20925
856.327	20960
856.461	20895
856.595	20899
856.729	20910
856.862	21104
856.996	21039
857.13	21112
857.263	21005
857.397	21070
857.53	20979
857.664	20998
857.797	20899
857.931	21108
858.064	20933
858.197	21032
858.331	20918
858.464	20990
858.597	20796
858.731	20929
858.864	20971
858.997	20925
859.13	21036
859.263	21009
859.396	21089
859.529	21020
859.662	20979
859.795	20941
859.928	20948
860.061	21085
860.194	21154
860.327	20975
860.46	20994
860.592	21150
860.725	21131
860.858	21180
860.99	20963
861.123	20880
861.256	20868
861.388	20990
861.521	21492
861.653	20815
861.786	20823
861.918	20765
862.05	20948
862.183	20906
862.315	20845
862.447	20918
862.58	20807
862.712	20788
862.844	20594
862.976	20750
863.108	20739
863.24	21207
863.372	20590
863.504	20663
863.636	20735
863.768	20697
863.9	20686
864.032	20708
864.164	20598
864.296	20659
864.428	20769
864.559	20834
864.691	20777
864.823	20743
864.954	20678
865.086	20552
865.217	20621
865.349	20446
865.48	20686
865.612	20571
865.743	20701
865.875	20602
866.006	20602
866.137	20640
866.269	20533
866.4	20533
866.531	20480
866.662	20450
866.793	20476
866.924	20625
867.055	20583
867.186	20564
867.317	20396
867.448	20324
867.579	20431
867.71	20419
867.841	20461
867.972	20457
868.103	20415
868.233	20480
868.364	20590
868.495	20552
868.625	20807
868.756	20883
868.886	20625
869.017	20792
869.147	20861
869.278	20804
869.408	20712
869.539	20849
869.669	20826
869.799	20804
869.929	20868
870.06	20948
870.19	20990
870.32	20948
870.45	21089
870.58	21173
870.71	21321
870.84	21157
870.97	21203
871.1	21100
871.23	21313
871.36	21386
871.489	21294
871.619	21348
871.749	21507
871.879	21363
872.008	21477
872.138	21313
872.267	21367
872.397	21344
872.526	21180
872.656	21203
872.785	21351
872.915	21454
873.044	21367
873.173	21401
873.303	21545
873.432	21397
873.561	21386
873.69	21439
873.819	21310
873.948	21500
874.077	21397
874.206	21317
874.335	21424
874.464	21523
874.593	21606
874.722	21690
874.851	21633
874.979	21641
875.108	21553
875.237	21618
875.365	21469
875.494	21477
875.623	21694
875.751	21637
875.88	21610
876.008	21713
876.136	21717
876.265	21918
876.393	22093
876.521	22036
876.65	22051
876.778	22029
876.906	21930
877.034	21945
877.162	21998
877.29	22051
877.418	21903
877.546	21899
877.674	21926
877.802	21869
877.93	21884
878.058	21911
878.185	21857
878.313	21842
878.441	21979
878.568	22002
878.696	21949
878.824	22067
878.951	22101
879.079	22181
879.206	22299
879.333	22101
879.461	21968
879.588	22105
879.715	22169
879.842	22097
879.97	21895
880.097	21629
880.224	21838
880.351	21876
880.478	21880
880.605	21785
880.732	21736
880.859	21953
880.986	21918
881.112	21888
881.239	21717
881.366	21549
881.493	21454
881.619	21439
881.746	21553
881.872	21408
881.999	21317
882.125	21313
882.252	21340
882.378	21336
882.505	21496
882.631	21188
882.757	21112
882.883	21055
883.01	21001
883.136	21020
883.262	20952
883.388	20948
883.514	21112
883.64	21188
883.766	20921
883.892	20891
884.018	20887
884.143	20975
884.269	21154
884.395	20830
884.52	20708
884.646	20651
884.772	20655
884.897	20636
885.023	20716
885.148	20902
885.274	20842
885.399	20739
885.524	20830
885.65	20731
885.775	20644
885.9	20731
886.025	20914
886.15	20826
886.275	20716
886.4	20686
886.525	20674
886.65	20655
886.775	20708
886.9	20762
887.025	20975
887.149	20697
887.274	20499
887.399	20484
887.523	20556
887.648	20400
887.773	20431
887.897	20492
888.021	20629
888.146	20374
888.27	20609
888.395	20594
888.519	20465
888.643	20476
888.767	20533
888.891	20400
889.015	20309
889.139	20438
889.263	20252
889.387	20377
889.511	20408
889.635	20389
889.759	20336
889.883	20339
890.006	20183
890.13	20202
890.254	20290
890.377	20126
890.501	20065
890.624	20024
890.748	20069
890.871	19982
890.995	19887
891.118	19830
891.241	19932
891.364	19852
891.488	19963
891.611	19814
891.734	19849
891.857	19921
891.98	19894
892.103	19898
892.226	19807
892.349	19761
892.471	19556
892.594	19807
892.717	19788
892.839	19814
892.962	19765
893.085	19833
893.207	19765
893.33	19670
893.452	19639
893.575	19864
893.697	19738
893.819	19974
893.941	19940
894.064	19864
894.186	19742
894.308	19601
894.43	19704
894.552	19925
894.674	19814
894.796	19700
894.918	19674
895.04	19731
895.161	19719
895.283	19753
895.405	19719
895.526	19784
895.648	19833
895.769	19887
895.891	19909
896.012	19845
896.134	19845
896.255	19799
896.376	19765
896.498	19662
896.619	19841
896.74	19734
896.861	19849
896.982	20024
897.103	20202
897.224	20065
897.345	20062
897.466	19928
897.587	20092
897.708	20157
897.828	19917
897.949	20039
898.07	19860
898.19	19909
898.311	19993
898.431	20001
898.552	19845
898.672	19978
898.792	20081
898.913	20024
899.033	19849
899.153	19719
899.273	19753
899.393	19791
899.513	19879
899.633	19753
899.753	19799
899.873	19639
899.993	19837
900.113	19788
900.232	19662
900.352	19578
900.472	19525
900.591	19597
900.711	19674
900.83	19407
900.95	19624
901.069	19639
901.189	19403
901.308	19209
901.427	19099
901.546	19232
901.665	19129
901.784	19175
901.904	19042
902.023	18951
902.141	18700
902.26	18711
902.379	18692
902.498	18681
902.617	18551
902.735	18654
902.854	18646
902.973	18627
903.091	18315
903.21	18384
903.328	18304
903.446	18220
903.565	18095
903.683	18171
903.801	18095
903.919	18216
904.038	18060
904.156	17874
904.274	17954
904.392	18015
904.51	17882
904.627	17832
904.745	17783
904.863	17961
904.981	17604
905.098	17608
905.216	17509
905.334	17570
905.451	17577
905.569	17490
905.686	17589
905.803	17551
905.921	17376
906.038	17478
906.155	17299
906.272	17280
906.389	17341
906.506	17018
906.623	17090
906.74	17071
906.857	17029
906.974	16972
907.091	17124
907.208	17250
907.324	17162
907.441	17003
907.557	16847
907.674	16854
907.79	16748
907.907	16828
908.023	16805
908.139	16767
908.256	16702
908.372	16797
908.488	16710
908.604	16569
908.72	16409
908.836	16550
908.952	16554
909.068	16637
909.184	16637
909.3	16516
909.415	16558
909.531	16542
909.647	16382
909.762	16291
909.878	16234
909.993	16268
910.108	16234
910.224	16204
910.339	16272
910.454	16067
910.57	16150
910.685	15953
910.8	16242
910.915	16211
911.03	16101
911.145	15934
911.259	15861
911.374	15823
911.489	15755
911.604	15747
911.718	15557
911.833	15519
911.947	15542
912.062	15454
912.176	15580
912.291	15572
912.405	15538
912.519	15644
912.633	15793
912.748	15599
912.862	15504
912.976	15408
913.09	15249
913.204	15405
913.318	15439
913.431	15553
913.545	15488
913.659	15466
913.772	15355
913.886	15256
914	15173
914.113	15226
914.226	15397
914.34	15252
914.453	15093
914.566	15245
914.68	15112
914.793	15127
914.906	14857
915.019	14830
915.132	14693
915.245	14800
915.358	14883
915.47	14842
915.583	14880
915.696	14880
915.809	14963
915.921	14963
916.034	14796
916.146	14689
916.259	14716
916.371	14880
916.483	14769
916.595	14636
916.708	14674
916.82	14648
916.932	14651
917.044	14575
917.156	14602
917.268	14484
917.38	14495
917.491	14526
917.603	14499
917.715	14518
917.826	14476
917.938	14526
918.049	14324
918.161	14438
918.272	14644
918.384	14552
918.495	14492
918.606	14263
918.717	14157
918.828	14225
918.939	14298
919.05	14191
919.161	14202
919.272	14092
919.383	14142
919.494	14256
919.604	14419
919.715	14256
919.826	14123
919.936	14180
920.047	14263
920.157	14168
920.267	14442
920.378	14214
920.488	14218
920.598	14271
920.708	14568
920.818	14377
920.928	14263
921.038	14480
921.148	14457
921.258	14164
921.368	14126
921.477	13959
921.587	13894
921.697	13780
921.806	14035
921.916	13841
922.025	13674
922.134	13597
922.244	13537
922.353	13567
922.462	13476
922.571	13476
922.68	13343
922.789	13274
922.898	13255
923.007	13190
923.116	13335
923.224	13274
923.333	13259
923.442	13118
923.55	13133
923.659	13061
923.767	13194
923.876	13110
923.984	13137
924.092	13008
924.201	13080
924.309	12973
924.417	13008
924.525	12989
924.633	12989
924.741	13871
924.849	12741
924.956	12829
925.064	12787
925.172	12604
925.279	12566
925.387	12703
925.494	12696
925.602	12791
925.709	12787
925.816	12555
925.924	12669
926.031	12745
926.138	12696
926.245	12684
926.352	12551
926.459	12703
926.566	12715
926.673	12498
926.779	12361
926.886	12456
926.993	12323
927.099	12216
927.206	12239
927.312	12129
927.419	12247
927.525	12304
927.631	12277
927.737	12190
927.843	12175
927.95	11984
928.056	12049
928.162	12125
928.267	12159
928.373	12635
928.479	12258
928.585	11973
928.69	12091
928.796	12068
928.901	11977
929.007	11809
929.112	11920
929.218	11870
929.323	11954
929.428	11783
929.533	11973
929.638	11741
929.743	11809
929.848	11863
929.953	11710
930.058	11672
930.163	11573
930.267	11551
930.372	11707
930.477	11509
930.581	11718
930.685	11516
930.79	11414
930.894	11349
930.998	11383
931.103	11566
931.207	11113
931.311	11189
931.415	10987
931.519	10801
931.623	10854
