Data from test_V78500241_1905.txt Node
Date: Fri Mar 25 15:23:07 CST 2022
User: usil
Spectrometer: V785-0024
Trigger mode: 0
Integration Time (sec): 4.000000E-1
Scans to average: 1
Nonlinearity correction enabled: false
Boxcar width: 0
Storing dark spectrum: false
XAxis mode: Wavelengths
Number of Pixels in Spectrum: 1024
>>>>>Begin Spectral Data<<<<<
801.071	27157
801.214	27154
801.356	26826
801.499	26758
801.641	26659
801.783	26667
801.926	26735
802.068	26674
802.211	26575
802.353	26522
802.496	26336
802.638	26423
802.78	26358
802.923	26107
803.065	26218
803.208	26248
803.35	26294
803.492	26419
803.635	26556
803.777	26431
803.919	26522
804.061	26773
804.204	26461
804.346	26602
804.488	26438
804.63	26404
804.773	26362
804.915	26514
805.057	26678
805.199	26427
805.341	26514
805.483	26526
805.626	26674
805.768	26522
805.91	26629
806.052	26735
806.194	26453
806.336	26826
806.478	26674
806.62	26568
806.762	26689
806.904	26956
807.046	26929
807.188	27009
807.33	26933
807.472	26979
807.614	26910
807.756	26842
807.898	26887
808.04	26910
808.182	26864
808.324	26811
808.465	26918
808.607	26998
808.749	27321
808.891	27332
809.033	27336
809.174	27294
809.316	27252
809.458	27093
809.6	27230
809.741	27329
809.883	27291
810.025	27363
810.166	27412
810.308	27504
810.45	27416
810.591	27317
810.733	27313
810.875	27169
811.016	26967
811.158	27062
811.299	27218
811.441	27214
811.582	27249
811.724	27138
811.865	27131
812.007	27176
812.148	27100
812.29	27245
812.431	27169
812.573	27705
812.714	27523
812.855	27576
812.997	27739
813.138	27846
813.279	27842
813.421	27705
813.562	27686
813.703	27561
813.845	27298
813.986	27070
814.127	26948
814.268	26899
814.41	26826
814.551	26777
814.692	26883
814.833	26739
814.974	26895
815.115	26826
815.256	26743
815.397	26689
815.539	26716
815.68	26651
815.821	26522
815.962	26678
816.103	26613
816.244	26423
816.385	26343
816.526	26366
816.666	26282
816.807	26191
816.948	26191
817.089	26103
817.23	26164
817.371	26130
817.512	26058
817.653	26077
817.793	26035
817.934	26081
818.075	26153
818.216	26103
818.356	26138
818.497	25936
818.638	25788
818.778	25921
818.919	25841
819.06	25837
819.2	25963
819.341	26130
819.481	25997
819.622	26259
819.762	26332
819.903	26320
820.043	26320
820.184	26206
820.324	26199
820.465	26370
820.605	26191
820.746	26119
820.886	25993
821.026	26172
821.167	26073
821.307	26206
821.447	26145
821.588	26008
821.728	25963
821.868	25852
822.008	25700
822.149	25575
822.289	25578
822.429	25350
822.569	25293
822.709	25225
822.849	25171
822.99	25171
823.13	25072
823.27	25038
823.41	24882
823.55	24810
823.69	25000
823.83	24817
823.97	24920
824.11	24707
824.25	24642
824.389	24757
824.529	24715
824.669	24719
824.809	24897
824.949	24802
825.089	24730
825.228	24684
825.368	24551
825.508	24760
825.648	24669
825.787	24620
825.927	24570
826.067	24582
826.206	24597
826.346	24570
826.485	24631
826.625	24532
826.765	24684
826.904	24673
827.044	24262
827.183	24334
827.323	24125
827.462	24334
827.601	24388
827.741	24311
827.88	24346
828.02	24216
828.159	24338
828.298	24311
828.437	24384
828.577	24144
828.716	24342
828.855	24254
828.994	23992
829.134	23920
829.273	24060
829.412	24049
829.551	23977
829.69	23965
829.829	24053
829.968	24018
830.107	24148
830.246	23901
830.385	23961
830.524	23859
830.663	23813
830.802	23786
830.941	23691
831.08	23672
831.219	23676
831.357	23722
831.496	23935
831.635	23687
831.774	23558
831.913	23463
832.051	23345
832.19	23433
832.329	23471
832.467	23417
832.606	23349
832.744	23315
832.883	23258
833.022	23383
833.16	23383
833.299	23402
833.437	23284
833.576	23493
833.714	23474
833.852	23383
833.991	23448
834.129	23531
834.267	23478
834.406	23429
834.544	23410
834.682	23376
834.821	23364
834.959	23486
835.097	23360
835.235	23551
835.373	23444
835.511	23410
835.65	23094
835.788	23307
835.926	23227
836.064	23014
836.202	23162
836.34	23223
836.478	23429
836.615	23212
836.753	23254
836.891	23383
837.029	23376
837.167	23265
837.305	23307
837.443	23109
837.58	23155
837.718	23174
837.856	23086
837.993	22953
838.131	23162
838.269	23006
838.406	23098
838.544	22896
838.681	22706
838.819	22717
838.956	22516
839.094	22611
839.231	22630
839.369	22820
839.506	22831
839.643	22805
839.781	22630
839.918	22485
840.055	22527
840.193	22428
840.33	22455
840.467	22504
840.604	22523
840.742	22759
840.879	22333
841.016	22333
841.153	22542
841.29	22634
841.427	22470
841.564	22512
841.701	22489
841.838	22348
841.975	22504
842.112	22329
842.249	22303
842.385	22166
842.522	22523
842.659	22356
842.796	22230
842.933	22154
843.069	22188
843.206	22295
843.343	22367
843.479	22287
843.616	22143
843.752	22112
843.889	22112
844.025	22139
844.162	21941
844.298	22063
844.435	22147
844.571	22010
844.708	22040
844.844	22169
844.98	22230
845.117	22135
845.253	21987
845.389	21831
845.525	21823
845.661	21941
845.798	21759
845.934	21895
846.07	21770
846.206	21766
846.342	21770
846.478	21720
846.614	21679
846.75	21545
846.886	21504
847.022	21568
847.158	21641
847.294	21466
847.429	21511
847.565	21477
847.701	21766
847.837	21252
847.972	21260
848.108	21462
848.244	21393
848.379	21230
848.515	21028
848.65	21104
848.786	21032
848.921	21020
849.057	21180
849.192	21207
849.328	21176
849.463	21165
849.598	21017
849.734	20895
849.869	20838
850.004	20960
850.14	20872
850.275	20944
850.41	20849
850.545	20686
850.68	20765
850.815	20960
850.95	20933
851.085	20971
851.22	20998
851.355	20834
851.49	20773
851.625	20868
851.76	20777
851.895	20739
852.03	20834
852.165	20872
852.299	20849
852.434	20891
852.569	20861
852.703	20849
852.838	20948
852.973	21104
853.107	20986
853.242	20891
853.376	20708
853.511	20655
853.645	20648
853.78	20731
853.914	20750
854.048	20583
854.183	20590
854.317	20785
854.451	20925
854.585	20720
854.72	20693
854.854	20845
854.988	20606
855.122	20708
855.256	20549
855.39	20712
855.524	20826
855.658	20686
855.792	20705
855.926	20705
856.06	20693
856.194	20781
856.327	20724
856.461	20560
856.595	20537
856.729	20708
856.862	20796
856.996	20735
857.13	20781
857.263	20708
857.397	20739
857.53	20549
857.664	20678
857.797	20781
857.931	20720
858.064	20746
858.197	20689
858.331	20636
858.464	20708
858.597	20644
858.731	20636
858.864	20674
858.997	20659
859.13	20739
859.263	20632
859.396	20815
859.529	20617
859.662	20598
859.795	20629
859.928	20701
860.061	20952
860.194	20902
860.327	20632
860.46	20686
860.592	20754
860.725	20765
860.858	20739
860.99	20663
861.123	20720
861.256	20644
861.388	20693
861.521	21268
861.653	20568
861.786	20374
861.918	20507
862.05	20533
862.183	20492
862.315	20686
862.447	20659
862.58	20636
862.712	20336
862.844	20336
862.976	20415
863.108	20503
863.24	20758
863.372	20320
863.504	20393
863.636	20423
863.768	20377
863.9	20362
864.032	20358
864.164	20412
864.296	20336
864.428	20518
864.559	20617
864.691	20461
864.823	20454
864.954	20434
865.086	20381
865.217	20313
865.349	20248
865.48	20225
865.612	20317
865.743	20404
865.875	20210
866.006	20183
866.137	20324
866.269	20328
866.4	20275
866.531	20187
866.662	20183
866.793	20229
866.924	20256
867.055	20298
867.186	20214
867.317	20195
867.448	20161
867.579	20218
867.71	20172
867.841	20244
867.972	20286
868.103	20259
868.233	20153
868.364	20168
868.495	20396
868.625	20442
868.756	20682
868.886	20336
869.017	20454
869.147	20644
869.278	20617
869.408	20488
869.539	20446
869.669	20434
869.799	20499
869.929	20537
870.06	20602
870.19	20739
870.32	20781
870.45	20762
870.58	20876
870.71	20956
870.84	21001
870.97	20861
871.1	20834
871.23	21005
871.36	20941
871.489	20963
871.619	21066
871.749	21138
871.879	21081
872.008	21096
872.138	21096
872.267	21100
872.397	21020
872.526	20891
872.656	20990
872.785	20967
872.915	20975
873.044	21154
873.173	21112
873.303	21131
873.432	21150
873.561	21230
873.69	21093
873.819	21119
873.948	21100
874.077	21055
874.206	21081
874.335	21119
874.464	21298
874.593	21412
874.722	21249
874.851	21283
874.979	21393
875.108	21374
875.237	21230
875.365	21233
875.494	21313
875.623	21374
875.751	21313
875.88	21367
876.008	21530
876.136	21557
876.265	21667
876.393	21705
876.521	21739
876.65	21774
876.778	21717
876.906	21553
877.034	21644
877.162	21724
877.29	21587
877.418	21694
877.546	21667
877.674	21614
877.802	21648
877.93	21747
878.058	21857
878.185	21580
878.313	21648
878.441	21675
878.568	21386
878.696	21576
878.824	21819
878.951	21751
879.079	21846
879.206	21972
879.333	21831
879.461	21698
879.588	21759
879.715	21861
879.842	21987
879.97	21629
880.097	21606
880.224	21542
880.351	21568
880.478	21599
880.605	21447
880.732	21633
880.859	21724
880.986	21519
881.112	21591
881.239	21306
881.366	21279
881.493	21169
881.619	21013
881.746	21123
881.872	21108
881.999	21093
882.125	21055
882.252	21043
882.378	21093
882.505	21085
882.631	20956
882.757	20731
882.883	20937
883.01	20804
883.136	20792
883.262	20659
883.388	20762
883.514	20899
883.64	20864
883.766	20792
883.892	20606
884.018	20587
884.143	20750
884.269	20807
884.395	20499
884.52	20393
884.646	20556
884.772	20465
884.897	20438
885.023	20427
885.148	20461
885.274	20571
885.399	20594
885.524	20381
885.65	20461
885.775	20450
885.9	20332
886.025	20507
886.15	20503
886.275	20457
886.4	20324
886.525	20423
886.65	20431
886.775	20328
886.9	20583
887.025	20670
887.149	20434
887.274	20176
887.399	20271
887.523	20275
887.648	20149
887.773	20081
887.897	20320
888.021	20263
888.146	20050
888.27	20294
888.395	20332
888.519	20282
888.643	20339
888.767	20305
888.891	20172
889.015	20008
889.139	20122
889.263	20016
889.387	20153
889.511	20244
889.635	20172
889.759	20100
889.883	19974
890.006	19963
890.13	20062
890.254	19860
890.377	19921
890.501	19833
890.624	19814
890.748	19860
890.871	19677
890.995	19670
891.118	19563
891.241	19620
891.364	19597
891.488	19780
891.611	19601
891.734	19658
891.857	19704
891.98	19674
892.103	19647
892.226	19677
892.349	19518
892.471	19460
892.594	19586
892.717	19609
892.839	19521
892.962	19662
893.085	19529
893.207	19400
893.33	19460
893.452	19453
893.575	19464
893.697	19499
893.819	19677
893.941	19746
894.064	19696
894.186	19369
894.308	19510
894.43	19685
894.552	19712
894.674	19594
894.796	19297
894.918	19529
895.04	19514
895.161	19594
895.283	19548
895.405	19457
895.526	19552
895.648	19700
895.769	19453
895.891	19495
896.012	19590
896.134	19491
896.255	19632
896.376	19575
896.498	19506
896.619	19582
896.74	19582
896.861	19605
896.982	19803
897.103	20050
897.224	19856
897.345	19795
897.466	19643
897.587	19750
897.708	19936
897.828	19719
897.949	19601
898.07	19567
898.19	19708
898.311	19811
898.431	19582
898.552	19757
898.672	19856
898.792	19799
898.913	19647
899.033	19700
899.153	19578
899.273	19403
899.393	19567
899.513	19518
899.633	19544
899.753	19590
899.873	19518
899.993	19483
900.113	19434
900.232	19510
900.352	19510
900.472	19350
900.591	19312
900.711	19316
900.83	19293
900.95	19388
901.069	19476
901.189	19168
901.308	19080
901.427	18825
901.546	18916
901.665	18867
901.784	18844
901.904	18753
902.023	18741
902.141	18441
902.26	18494
902.379	18426
902.498	18437
902.617	18399
902.735	18509
902.854	18369
902.973	18304
903.091	18110
903.21	18053
903.328	18079
903.446	17984
903.565	17999
903.683	17946
903.801	17897
903.919	17882
904.038	17847
904.156	17783
904.274	17668
904.392	17714
904.51	17653
904.627	17729
904.745	17687
904.863	17668
904.981	17596
905.098	17440
905.216	17379
905.334	17395
905.451	17364
905.569	17345
905.686	17360
905.803	17330
905.921	17124
906.038	17227
906.155	17151
906.272	17086
906.389	17010
906.506	16896
906.623	16946
906.74	16873
906.857	16767
906.974	16847
907.091	16881
907.208	17010
907.324	16949
907.441	16774
907.557	16660
907.674	16615
907.79	16538
907.907	16664
908.023	16615
908.139	16656
908.256	16565
908.372	16546
908.488	16565
908.604	16489
908.72	16371
908.836	16405
908.952	16265
909.068	16402
909.184	16424
909.3	16379
909.415	16466
909.531	16405
909.647	16158
909.762	16071
909.878	16116
909.993	16013
910.108	16029
910.224	16086
910.339	16082
910.454	15930
910.57	15823
910.685	15785
910.8	16048
910.915	15922
911.03	15949
911.145	15652
911.259	15724
911.374	15751
911.489	15690
911.604	15526
911.718	15405
911.833	15386
911.947	15275
912.062	15245
912.176	15306
912.291	15397
912.405	15302
912.519	15549
912.633	15633
912.748	15382
912.862	15382
912.976	15348
913.09	15138
913.204	15241
913.318	15237
913.431	15408
913.545	15340
913.659	15313
913.772	15298
913.886	15058
914	15093
914.113	15108
914.226	15119
914.34	15119
914.453	14910
914.566	15100
914.68	14956
914.793	14902
914.906	14739
915.019	14712
915.132	14549
915.245	14693
915.358	14746
915.47	14644
915.583	14693
915.696	14686
915.809	14800
915.921	14792
916.034	14674
916.146	14571
916.259	14552
916.371	14667
916.483	14625
916.595	14530
916.708	14568
916.82	14579
916.932	14499
917.044	14533
917.156	14374
917.268	14309
917.38	14389
917.491	14396
917.603	14336
917.715	14377
917.826	14495
917.938	14370
918.049	14096
918.161	14324
918.272	14370
918.384	14457
918.495	14267
918.606	14138
918.717	14035
918.828	14111
918.939	14119
919.05	13982
919.161	14054
919.272	13894
919.383	13967
919.494	14115
919.604	14301
919.715	14069
919.826	13986
919.936	13970
920.047	14092
920.157	14115
920.267	14180
920.378	14069
920.488	14149
920.598	14301
920.708	14336
920.818	14301
920.928	14199
921.038	14252
921.148	14320
921.258	14100
921.368	13970
921.477	13898
921.587	13845
921.697	13803
921.806	13841
921.916	13708
922.025	13422
922.134	13480
922.244	13460
922.353	13464
922.462	13335
922.571	13171
922.68	13072
922.789	13122
922.898	13088
923.007	13088
923.116	13099
923.224	13114
923.333	13004
923.442	13027
923.55	12996
923.659	13012
923.767	13042
923.876	12996
923.984	12939
924.092	12821
924.201	12985
924.309	12920
924.417	12878
924.525	12703
924.633	12669
924.741	13708
924.849	12662
924.956	12779
925.064	12585
925.172	12525
925.279	12460
925.387	12585
925.494	12528
925.602	12547
925.709	12623
925.816	12479
925.924	12479
926.031	12608
926.138	12536
926.245	12559
926.352	12391
926.459	12570
926.566	12612
926.673	12509
926.779	12323
926.886	12300
926.993	12213
927.099	12186
927.206	12041
927.312	12079
927.419	12167
927.525	12102
927.631	12182
927.737	12102
927.843	11988
927.95	11942
928.056	11950
928.162	11939
928.267	12079
928.373	12426
928.479	12121
928.585	11802
928.69	11885
928.796	11992
928.901	11836
929.007	11695
929.112	11882
929.218	11859
929.323	11836
929.428	11714
929.533	11821
929.638	11642
929.743	11642
929.848	11718
929.953	11638
930.058	11532
930.163	11406
930.267	11444
930.372	11512
930.477	11364
930.581	11585
930.685	11440
930.79	11239
930.894	11318
930.998	11269
931.103	11383
931.207	11083
931.311	11033
931.415	10820
931.519	10687
931.623	10694
