Data from test_V78500241_1004.txt Node
Date: Fri Mar 25 15:16:50 CST 2022
User: usil
Spectrometer: V785-0024
Trigger mode: 0
Integration Time (sec): 4.000000E-1
Scans to average: 1
Nonlinearity correction enabled: false
Boxcar width: 0
Storing dark spectrum: false
XAxis mode: Wavelengths
Number of Pixels in Spectrum: 1024
>>>>>Begin Spectral Data<<<<<
801.071	28329
801.214	28356
801.356	28109
801.499	28139
801.641	28086
801.783	28021
801.926	28090
802.068	27991
802.211	27953
802.353	27827
802.496	27648
802.638	27641
802.78	27595
802.923	27603
803.065	27568
803.208	27576
803.35	27622
803.492	27823
803.635	27850
803.777	27770
803.919	27873
804.061	28086
804.204	27827
804.346	27717
804.488	27831
804.63	27774
804.773	27690
804.915	27831
805.057	28101
805.199	27808
805.341	27987
805.483	28226
805.626	27983
805.768	28025
805.91	27964
806.052	28013
806.194	27998
806.336	28207
806.478	28086
806.62	28139
806.762	28284
806.904	28333
807.046	28459
807.188	28432
807.33	28440
807.472	28538
807.614	28287
807.756	28394
807.898	28356
808.04	28268
808.182	28265
808.324	28394
808.465	28485
808.607	28504
808.749	28729
808.891	28672
809.033	28820
809.174	28782
809.316	28630
809.458	28618
809.6	28694
809.741	28835
809.883	28820
810.025	28911
810.166	28953
810.308	29109
810.45	28908
810.591	28839
810.733	28752
810.875	28759
811.016	28763
811.158	28698
811.299	28881
811.441	28778
811.582	28965
811.724	28675
811.865	28615
812.007	28752
812.148	28755
812.29	28786
812.431	28713
812.573	29037
812.714	29151
812.855	29303
812.997	29277
813.138	29497
813.279	29417
813.421	29277
813.562	29303
813.703	29048
813.845	28995
813.986	28733
814.127	28504
814.268	28333
814.41	28474
814.551	28440
814.692	28497
814.833	28500
814.974	28466
815.115	28462
815.256	28318
815.397	28409
815.539	28360
815.68	28325
815.821	28105
815.962	28192
816.103	28135
816.244	28131
816.385	28120
816.526	27911
816.666	27854
816.807	27960
816.948	27793
817.089	27869
817.23	27736
817.371	27861
817.512	27823
817.653	27785
817.793	27842
817.934	27873
818.075	27949
818.216	27705
818.356	27720
818.497	27698
818.638	27439
818.778	27534
818.919	27469
819.06	27622
819.2	27542
819.341	27755
819.481	27656
819.622	27869
819.762	28223
819.903	27899
820.043	28013
820.184	27869
820.324	27953
820.465	27797
820.605	27991
820.746	27770
820.886	27774
821.026	27892
821.167	27800
821.307	27911
821.447	27819
821.588	27633
821.728	27534
821.868	27336
822.008	27386
822.149	27306
822.289	27169
822.429	27055
822.569	27009
822.709	26731
822.849	26674
822.99	26811
823.13	26724
823.27	26762
823.41	26473
823.55	26469
823.69	26579
823.83	26526
823.97	26446
824.11	26526
824.25	26389
824.389	26503
824.529	26507
824.669	26362
824.809	26495
824.949	26473
825.089	26476
825.228	26450
825.368	26244
825.508	26244
825.648	26309
825.787	26309
825.927	26309
826.067	26202
826.206	26396
826.346	26252
826.485	26366
826.625	26256
826.765	26389
826.904	26221
827.044	26107
827.183	26149
827.323	26043
827.462	26088
827.601	25997
827.741	26149
827.88	25989
828.02	26001
828.159	26008
828.298	26046
828.437	26039
828.577	26035
828.716	26001
828.855	25982
828.994	25685
829.134	25708
829.273	25833
829.412	25605
829.551	25696
829.69	25734
829.829	25822
829.968	25670
830.107	25803
830.246	25811
830.385	25590
830.524	25708
830.663	25426
830.802	25499
830.941	25343
831.08	25422
831.219	25346
831.357	25396
831.496	25662
831.635	25240
831.774	25171
831.913	25202
832.051	25103
832.19	25175
832.329	25194
832.467	25076
832.606	24981
832.744	25008
832.883	25019
833.022	25110
833.16	24928
833.299	25179
833.437	25213
833.576	25031
833.714	24970
833.852	25122
833.991	25099
834.129	25282
834.267	25148
834.406	25110
834.544	25015
834.682	25133
834.821	24985
834.959	25293
835.097	25076
835.235	25145
835.373	25080
835.511	25012
835.65	24962
835.788	25034
835.926	24749
836.064	24757
836.202	24776
836.34	24878
836.478	25034
836.615	24947
836.753	24852
836.891	24954
837.029	24848
837.167	24779
837.305	24844
837.443	24890
837.58	24817
837.718	24837
837.856	24688
837.993	24749
838.131	24722
838.269	24597
838.406	24654
838.544	24555
838.681	24357
838.819	24445
838.956	24072
839.094	24129
839.231	24194
839.369	24426
839.506	24525
839.643	24388
839.781	24327
839.918	24209
840.055	24178
840.193	24239
840.33	24254
840.467	24076
840.604	24133
840.742	24311
840.879	24155
841.016	24018
841.153	23927
841.29	24216
841.427	24068
841.564	24182
841.701	24174
841.838	23984
841.975	23958
842.112	24049
842.249	23878
842.385	23840
842.522	24144
842.659	23973
842.796	23817
842.933	23920
843.069	23847
843.206	23847
843.343	23904
843.479	23980
843.616	23786
843.752	23760
843.889	23630
844.025	23802
844.162	23535
844.298	23805
844.435	23687
844.571	23581
844.708	23642
844.844	23870
844.98	23726
845.117	23843
845.253	23779
845.389	23516
845.525	23600
845.661	23551
845.798	23452
845.934	23558
846.07	23356
846.206	23368
846.342	23471
846.478	23448
846.614	23246
846.75	23105
846.886	23189
847.022	23166
847.158	23181
847.294	23151
847.429	23170
847.565	23121
847.701	23448
847.837	22843
847.972	22706
848.108	23071
848.244	22786
848.379	22736
848.515	22759
848.65	22618
848.786	22752
848.921	22740
849.057	22816
849.192	22763
849.328	22809
849.463	22748
849.598	22656
849.734	22493
849.869	22493
850.004	22550
850.14	22508
850.275	22440
850.41	22436
850.545	22398
850.68	22462
850.815	22481
850.95	22516
851.085	22828
851.22	22592
851.355	22493
851.49	22459
851.625	22459
851.76	22447
851.895	22409
852.03	22382
852.165	22516
852.299	22455
852.434	22500
852.569	22523
852.703	22466
852.838	22611
852.973	22607
853.107	22550
853.242	22462
853.376	22306
853.511	22257
853.645	22246
853.78	22363
853.914	22379
854.048	22169
854.183	22276
854.317	22257
854.451	22440
854.585	22219
854.72	22284
854.854	22440
854.988	22329
855.122	22314
855.256	22192
855.39	22268
855.524	22261
855.658	22219
855.792	22295
855.926	22295
856.06	22329
856.194	22329
856.327	22204
856.461	22295
856.595	22265
856.729	22325
856.862	22424
856.996	22398
857.13	22394
857.263	22337
857.397	22337
857.53	22284
857.664	22394
857.797	22348
857.931	22314
858.064	22257
858.197	22386
858.331	22299
858.464	22215
858.597	22128
858.731	22188
858.864	22181
858.997	22303
859.13	22303
859.263	22246
859.396	22443
859.529	22162
859.662	22322
859.795	22166
859.928	22310
860.061	22405
860.194	22440
860.327	22280
860.46	22318
860.592	22379
860.725	22280
860.858	22443
860.99	22246
861.123	22284
861.256	22280
861.388	22443
861.521	22927
861.653	22181
861.786	22036
861.918	21972
862.05	22200
862.183	22253
862.315	22143
862.447	22348
862.58	22219
862.712	22055
862.844	22032
862.976	21979
863.108	22105
863.24	22398
863.372	22010
863.504	21975
863.636	21880
863.768	22013
863.9	22010
864.032	21937
864.164	21987
864.296	22021
864.428	22025
864.559	21869
864.691	21983
864.823	21994
864.954	21930
865.086	21838
865.217	21937
865.349	21701
865.48	21899
865.612	21983
865.743	21934
865.875	21949
866.006	21873
866.137	21915
866.269	21953
866.4	21911
866.531	21876
866.662	21816
866.793	21842
866.924	21644
867.055	21819
867.186	21804
867.317	21743
867.448	21705
867.579	21667
867.71	21770
867.841	21625
867.972	21915
868.103	21686
868.233	21720
868.364	21717
868.495	22013
868.625	21880
868.756	22147
868.886	21892
869.017	21869
869.147	22112
869.278	22070
869.408	22051
869.539	22032
869.669	22143
869.799	22040
869.929	22124
870.06	22135
870.19	22337
870.32	22390
870.45	22268
870.58	22394
870.71	22569
870.84	22459
870.97	22360
871.1	22428
871.23	22527
871.36	22645
871.489	22599
871.619	22622
871.749	22607
871.879	22637
872.008	22790
872.138	22630
872.267	22672
872.397	22588
872.526	22398
872.656	22413
872.785	22561
872.915	22706
873.044	22508
873.173	22736
873.303	22698
873.432	22801
873.561	22767
873.69	22725
873.819	22721
873.948	22668
874.077	22656
874.206	22569
874.335	22725
874.464	22862
874.593	22965
874.722	22778
874.851	22984
874.979	22889
875.108	22942
875.237	22847
875.365	22809
875.494	22911
875.623	22835
875.751	22771
875.88	22908
876.008	23037
876.136	23067
876.265	23258
876.393	23337
876.521	23235
876.65	23200
876.778	23280
876.906	23113
877.034	23174
877.162	23273
877.29	23151
877.418	23231
877.546	23235
877.674	23079
877.802	23083
877.93	23155
878.058	23132
878.185	22957
878.313	23132
878.441	23254
878.568	22984
878.696	23098
878.824	23204
878.951	23189
879.079	23402
879.206	23501
879.333	23402
879.461	23299
879.588	23174
879.715	23356
879.842	23520
879.97	23307
880.097	22942
880.224	22938
880.351	23067
880.478	23052
880.605	23033
880.732	23022
880.859	23235
880.986	22995
881.112	23094
881.239	22889
881.366	22717
881.493	22645
881.619	22512
881.746	22634
881.872	22618
881.999	22573
882.125	22542
882.252	22713
882.378	22645
882.505	22615
882.631	22497
882.757	22276
882.883	22375
883.01	22382
883.136	22261
883.262	22090
883.388	22116
883.514	22242
883.64	22310
883.766	22207
883.892	22032
884.018	22112
884.143	22322
884.269	22261
884.395	21975
884.52	21945
884.646	21979
884.772	21907
884.897	21850
885.023	21953
885.148	22040
885.274	22048
885.399	22029
885.524	21918
885.65	22036
885.775	21979
885.9	21915
886.025	21975
886.15	21926
886.275	21949
886.4	21819
886.525	21781
886.65	21739
886.775	21800
886.9	21949
887.025	22051
887.149	21857
887.274	21739
887.399	21675
887.523	21698
887.648	21648
887.773	21439
887.897	21747
888.021	21713
888.146	21675
888.27	21774
888.395	21751
888.519	21720
888.643	21667
888.767	21667
888.891	21572
889.015	21496
889.139	21583
889.263	21466
889.387	21622
889.511	21667
889.635	21606
889.759	21564
889.883	21538
890.006	21549
890.13	21469
890.254	21439
890.377	21389
890.501	21325
890.624	21214
890.748	21180
890.871	21214
890.995	21001
891.118	21051
891.241	21116
891.364	21017
891.488	21081
891.611	21058
891.734	21055
891.857	21066
891.98	20986
892.103	21066
892.226	21013
892.349	21051
892.471	20788
892.594	20887
892.717	20921
892.839	20925
892.962	20845
893.085	20986
893.207	20944
893.33	20887
893.452	20853
893.575	20929
893.697	20861
893.819	21062
893.941	21093
894.064	20967
894.186	20826
894.308	20731
894.43	20982
894.552	20975
894.674	20960
894.796	20754
894.918	20906
895.04	20925
895.161	21005
895.283	20925
895.405	20826
895.526	20804
895.648	20872
895.769	20895
895.891	20883
896.012	20845
896.134	20895
896.255	20914
896.376	20705
896.498	21001
896.619	20883
896.74	20861
896.861	20937
896.982	21146
897.103	21332
897.224	21268
897.345	21047
897.466	20944
897.587	21058
897.708	21093
897.828	20937
897.949	21123
898.07	20963
898.19	20925
898.311	21127
898.431	21028
898.552	21017
898.672	21070
898.792	21039
898.913	21180
899.033	20944
899.153	20765
899.273	20819
899.393	20967
899.513	20807
899.633	20743
899.753	20701
899.873	20826
899.993	20883
900.113	20792
900.232	20769
900.352	20716
900.472	20686
900.591	20522
900.711	20613
900.83	20503
900.95	20663
901.069	20785
901.189	20419
901.308	20225
901.427	20214
901.546	20065
901.665	20157
901.784	20176
901.904	20001
902.023	20088
902.141	19734
902.26	19655
902.379	19742
902.498	19689
902.617	19715
902.735	19666
902.854	19597
902.973	19548
903.091	19403
903.21	19274
903.328	19369
903.446	19247
903.565	19091
903.683	19046
903.801	19061
903.919	19027
904.038	19110
904.156	18928
904.274	18954
904.392	18954
904.51	18798
904.627	18890
904.745	18897
904.863	18859
904.981	18696
905.098	18642
905.216	18532
905.334	18604
905.451	18707
905.569	18544
905.686	18700
905.803	18532
905.921	18285
906.038	18441
906.155	18410
906.272	18281
906.389	18251
906.506	18091
906.623	18152
906.74	18098
906.857	17927
906.974	18041
907.091	18163
907.208	18194
907.324	18041
907.441	17996
907.557	17874
907.674	17889
907.79	17722
907.907	17790
908.023	17870
908.139	17718
908.256	17786
908.372	17665
908.488	17668
908.604	17524
908.72	17493
908.836	17577
908.952	17532
909.068	17676
909.184	17634
909.3	17505
909.415	17497
909.531	17414
909.647	17261
909.762	17280
909.878	17261
909.993	17269
910.108	17216
910.224	17178
910.339	17220
910.454	17060
910.57	17064
910.685	17003
910.8	17269
910.915	17239
911.03	16957
911.145	16835
911.259	16809
911.374	16828
911.489	16622
911.604	16717
911.718	16580
911.833	16481
911.947	16367
912.062	16432
912.176	16519
912.291	16599
912.405	16637
912.519	16702
912.633	16729
912.748	16470
912.862	16432
912.976	16379
913.09	16238
913.204	16371
913.318	16348
913.431	16432
913.545	16405
913.659	16386
913.772	16276
913.886	16173
914	16124
914.113	16204
914.226	16181
914.34	16131
914.453	16040
914.566	16071
914.68	16120
914.793	16017
914.906	15819
915.019	15709
915.132	15774
915.245	15660
915.358	15797
915.47	15835
915.583	15599
915.696	15774
915.809	15915
915.921	15873
916.034	15648
916.146	15587
916.259	15622
916.371	15644
916.483	15663
916.595	15564
916.708	15595
916.82	15454
916.932	15511
917.044	15462
917.156	15447
917.268	15351
917.38	15306
917.491	15294
917.603	15317
917.715	15351
917.826	15439
917.938	15268
918.049	15203
918.161	15313
918.272	15389
918.384	15363
918.495	15264
918.606	15165
918.717	15093
918.828	15112
918.939	15123
919.05	15036
919.161	15112
919.272	14902
919.383	14899
919.494	15112
919.604	15317
919.715	15081
919.826	14944
919.936	15066
920.047	15184
920.157	15028
920.267	15180
920.378	15104
920.488	15097
920.598	15169
920.708	15359
920.818	15195
920.928	15119
921.038	15313
921.148	15214
921.258	15047
921.368	14853
921.477	14834
921.587	14765
921.697	14575
921.806	14769
921.916	14667
922.025	14495
922.134	14454
922.244	14301
922.353	14400
922.462	14377
922.571	14221
922.68	14035
922.789	14012
922.898	14027
923.007	14020
923.116	14046
923.224	14123
923.333	13955
923.442	13909
923.55	13818
923.659	13890
923.767	13898
923.876	13769
923.984	13856
924.092	13765
924.201	13780
924.309	13757
924.417	13772
924.525	13677
924.633	13818
924.741	14537
924.849	13510
924.956	13620
925.064	13460
925.172	13407
925.279	13468
925.387	13506
925.494	13362
925.602	13548
925.709	13468
925.816	13301
925.924	13301
926.031	13331
926.138	13308
926.245	13365
926.352	13232
926.459	13346
926.566	13343
926.673	13346
926.779	13244
926.886	13080
926.993	13057
927.099	12973
927.206	12909
927.312	12894
927.419	12947
927.525	12981
927.631	12970
927.737	12859
927.843	12810
927.95	12665
928.056	12802
928.162	12779
928.267	12916
928.373	13346
928.479	12814
928.585	12612
928.69	12722
928.796	12821
928.901	12597
929.007	12448
929.112	12574
929.218	12639
929.323	12517
929.428	12483
929.533	12593
929.638	12479
929.743	12422
929.848	12422
929.953	12422
930.058	12346
930.163	12178
930.267	12144
930.372	12277
930.477	12186
930.581	12334
930.685	12167
930.79	12098
930.894	12140
930.998	12034
931.103	12159
931.207	11695
931.311	11714
931.415	11566
931.519	11440
931.623	11391
