Data from test_V78500241_2701.txt Node
Date: Fri Mar 25 15:28:40 CST 2022
User: usil
Spectrometer: V785-0024
Trigger mode: 0
Integration Time (sec): 4.000000E-1
Scans to average: 1
Nonlinearity correction enabled: false
Boxcar width: 0
Storing dark spectrum: false
XAxis mode: Wavelengths
Number of Pixels in Spectrum: 1024
>>>>>Begin Spectral Data<<<<<
801.071	27157
801.214	27161
801.356	26868
801.499	26834
801.641	26678
801.783	26712
801.926	26769
802.068	26606
802.211	26609
802.353	26564
802.496	26271
802.638	26351
802.78	26362
802.923	26412
803.065	26161
803.208	26324
803.35	26206
803.492	26492
803.635	26446
803.777	26286
803.919	26434
804.061	26773
804.204	26419
804.346	26339
804.488	26446
804.63	26438
804.773	26343
804.915	26533
805.057	26632
805.199	26343
805.341	26461
805.483	26571
805.626	26579
805.768	26495
805.91	26651
806.052	26621
806.194	26415
806.336	26651
806.478	26568
806.62	26541
806.762	26533
806.904	26731
807.046	27074
807.188	26948
807.33	26910
807.472	26963
807.614	26895
807.756	26906
807.898	26781
808.04	26670
808.182	26762
808.324	26872
808.465	26819
808.607	27001
808.749	27176
808.891	27389
809.033	27279
809.174	27241
809.316	27127
809.458	27294
809.6	27138
809.741	27279
809.883	27249
810.025	27325
810.166	27287
810.308	27401
810.45	27359
810.591	27237
810.733	27173
810.875	27157
811.016	26967
811.158	27024
811.299	27256
811.441	27386
811.582	27427
811.724	27214
811.865	27032
812.007	27043
812.148	27096
812.29	27112
812.431	27222
812.573	27473
812.714	27466
812.855	27698
812.997	27663
813.138	27717
813.279	27572
813.421	27504
813.562	27473
813.703	27450
813.845	27287
813.986	27047
814.127	26960
814.268	26697
814.41	26758
814.551	26785
814.692	26967
814.833	26682
814.974	26750
815.115	26731
815.256	26693
815.397	26651
815.539	26724
815.68	26632
815.821	26511
815.962	26613
816.103	26648
816.244	26328
816.385	26480
816.526	26324
816.666	26054
816.807	26077
816.948	26161
817.089	26183
817.23	26050
817.371	26027
817.512	26088
817.653	26096
817.793	26024
817.934	25966
818.075	26054
818.216	26027
818.356	25970
818.497	25890
818.638	25704
818.778	25704
818.919	25932
819.06	25871
819.2	25894
819.341	26016
819.481	26126
819.622	26172
819.762	26351
819.903	26298
820.043	26221
820.184	26130
820.324	26161
820.465	26069
820.605	26073
820.746	26267
820.886	25966
821.026	25986
821.167	26206
821.307	26233
821.447	26195
821.588	25928
821.728	25769
821.868	25651
822.008	25529
822.149	25506
822.289	25483
822.429	25236
822.569	25213
822.709	25255
822.849	25034
822.99	24996
823.13	24932
823.27	24935
823.41	24768
823.55	24757
823.69	24837
823.83	24814
823.97	24764
824.11	24681
824.25	24623
824.389	24719
824.529	24734
824.669	24760
824.809	24760
824.949	24681
825.089	24791
825.228	24597
825.368	24505
825.508	24403
825.648	24574
825.787	24559
825.927	24528
826.067	24612
826.206	24475
826.346	24555
826.485	24475
826.625	24578
826.765	24734
826.904	24578
827.044	24254
827.183	24334
827.323	24197
827.462	24174
827.601	24292
827.741	24159
827.88	24174
828.02	24076
828.159	24251
828.298	24304
828.437	24300
828.577	24034
828.716	24334
828.855	24155
828.994	23920
829.134	24011
829.273	23916
829.412	23885
829.551	23771
829.69	23988
829.829	23939
829.968	23999
830.107	23977
830.246	23893
830.385	23996
830.524	23824
830.663	23699
830.802	23615
830.941	23505
831.08	23497
831.219	23585
831.357	23611
831.496	23866
831.635	23497
831.774	23558
831.913	23493
832.051	23242
832.19	23288
832.329	23414
832.467	23223
832.606	23140
832.744	23242
832.883	23113
833.022	23159
833.16	23223
833.299	23273
833.437	23204
833.576	23315
833.714	23315
833.852	23200
833.991	23326
834.129	23220
834.267	23353
834.406	23311
834.544	23429
834.682	23520
834.821	23296
834.959	23402
835.097	23200
835.235	23364
835.373	23326
835.511	23159
835.65	23151
835.788	23220
835.926	22949
836.064	22820
836.202	23010
836.34	23143
836.478	23292
836.615	23117
836.753	23136
836.891	23269
837.029	23090
837.167	23178
837.305	23018
837.443	23048
837.58	23041
837.718	22957
837.856	23067
837.993	22896
838.131	22911
838.269	22881
838.406	23010
838.544	22949
838.681	22717
838.819	22565
838.956	22599
839.094	22390
839.231	22512
839.369	22687
839.506	22782
839.643	22710
839.781	22474
839.918	22440
840.055	22371
840.193	22306
840.33	22280
840.467	22447
840.604	22519
840.742	22706
840.879	22287
841.016	22333
841.153	22356
841.29	22413
841.427	22314
841.564	22508
841.701	22318
841.838	22265
841.975	22238
842.112	22360
842.249	22120
842.385	22234
842.522	22360
842.659	22246
842.796	22112
842.933	22261
843.069	22166
843.206	22131
843.343	22185
843.479	22234
843.616	22116
843.752	21987
843.889	21960
844.025	22063
844.162	21911
844.298	21987
844.435	21823
844.571	21949
844.708	22032
844.844	22128
844.98	22032
845.117	22025
845.253	21861
845.389	21835
845.525	21861
845.661	21736
845.798	21625
845.934	21797
846.07	21583
846.206	21694
846.342	21759
846.478	21663
846.614	21557
846.75	21408
846.886	21321
847.022	21530
847.158	21519
847.294	21466
847.429	21583
847.565	21348
847.701	21591
847.837	21165
847.972	21017
848.108	21222
848.244	21154
848.379	20963
848.515	21039
848.65	21047
848.786	21058
848.921	20998
849.057	21131
849.192	21043
849.328	20990
849.463	20902
849.598	21005
849.734	20921
849.869	20921
850.004	20678
850.14	20815
850.275	20800
850.41	20697
850.545	20769
850.68	20701
850.815	20667
850.95	20834
851.085	20948
851.22	20876
851.355	20701
851.49	20724
851.625	20674
851.76	20746
851.895	20712
852.03	20693
852.165	20758
852.299	20754
852.434	20781
852.569	20743
852.703	20693
852.838	20872
852.973	20899
853.107	20895
853.242	20621
853.376	20655
853.511	20530
853.645	20541
853.78	20758
853.914	20533
854.048	20549
854.183	20594
854.317	20541
854.451	20785
854.585	20541
854.72	20625
854.854	20735
854.988	20533
855.122	20606
855.256	20320
855.39	20537
855.524	20724
855.658	20686
855.792	20552
855.926	20469
856.06	20636
856.194	20594
856.327	20579
856.461	20518
856.595	20518
856.729	20484
856.862	20644
856.996	20594
857.13	20727
857.263	20583
857.397	20590
857.53	20632
857.664	20594
857.797	20594
857.931	20629
858.064	20594
858.197	20564
858.331	20598
858.464	20556
858.597	20431
858.731	20442
858.864	20499
858.997	20526
859.13	20651
859.263	20632
859.396	20678
859.529	20571
859.662	20564
859.795	20514
859.928	20560
860.061	20765
860.194	20743
860.327	20636
860.46	20621
860.592	20724
860.725	20712
860.858	20644
860.99	20530
861.123	20495
861.256	20549
861.388	20564
861.521	21233
861.653	20533
861.786	20351
861.918	20434
862.05	20454
862.183	20450
862.315	20560
862.447	20495
862.58	20400
862.712	20294
862.844	20229
862.976	20351
863.108	20370
863.24	20785
863.372	20183
863.504	20320
863.636	20374
863.768	20267
863.9	20282
864.032	20252
864.164	20233
864.296	20168
864.428	20366
864.559	20385
864.691	20317
864.823	20298
864.954	20180
865.086	20298
865.217	20282
865.349	20092
865.48	20157
865.612	20199
865.743	20317
865.875	20195
866.006	20103
866.137	20164
866.269	20221
866.4	20145
866.531	20164
866.662	20134
866.793	20084
866.924	20214
867.055	20111
867.186	20290
867.317	20084
867.448	19989
867.579	20107
867.71	20062
867.841	20024
867.972	20195
868.103	20183
868.233	20191
868.364	20107
868.495	20142
868.625	20339
868.756	20469
868.886	20240
869.017	20446
869.147	20522
869.278	20480
869.408	20282
869.539	20336
869.669	20530
869.799	20461
869.929	20484
870.06	20442
870.19	20686
870.32	20636
870.45	20800
870.58	20807
870.71	20845
870.84	20864
870.97	20735
871.1	20743
871.23	20914
871.36	20929
871.489	20876
871.619	21032
871.749	21055
871.879	20967
872.008	21104
872.138	20975
872.267	20925
872.397	20804
872.526	20891
872.656	20921
872.785	20807
872.915	21017
873.044	21093
873.173	21005
873.303	20982
873.432	21100
873.561	21036
873.69	20994
873.819	21089
873.948	20941
874.077	20929
874.206	20868
874.335	20990
874.464	21142
874.593	21275
874.722	21142
874.851	21310
874.979	21332
875.108	21329
875.237	21272
875.365	21260
875.494	21256
875.623	21329
875.751	21374
875.88	21298
876.008	21389
876.136	21466
876.265	21690
876.393	21926
876.521	21625
876.65	21629
876.778	21648
876.906	21576
877.034	21682
877.162	21583
877.29	21553
877.418	21587
877.546	21622
877.674	21572
877.802	21625
877.93	21576
878.058	21637
878.185	21549
878.313	21591
878.441	21568
878.568	21561
878.696	21599
878.824	21660
878.951	21625
879.079	21873
879.206	21953
879.333	21819
879.461	21667
879.588	21622
879.715	21953
879.842	21895
879.97	21781
880.097	21420
880.224	21393
880.351	21538
880.478	21359
880.605	21583
880.732	21553
880.859	21641
880.986	21481
881.112	21523
881.239	21412
881.366	21230
881.493	21112
881.619	21017
881.746	21100
881.872	21039
881.999	21009
882.125	21047
882.252	21127
882.378	20990
882.505	21135
882.631	20948
882.757	20815
882.883	20762
883.01	20750
883.136	20773
883.262	20629
883.388	20724
883.514	20754
883.64	20731
883.766	20697
883.892	20644
884.018	20663
884.143	20804
884.269	20815
884.395	20549
884.52	20347
884.646	20400
884.772	20317
884.897	20351
885.023	20514
885.148	20522
885.274	20537
885.399	20514
885.524	20347
885.65	20415
885.775	20423
885.9	20351
886.025	20476
886.15	20404
886.275	20351
886.4	20381
886.525	20313
886.65	20256
886.775	20313
886.9	20454
887.025	20590
887.149	20389
887.274	20153
887.399	20115
887.523	20092
887.648	20138
887.773	20161
887.897	20214
888.021	20328
888.146	20065
888.27	20164
888.395	20275
888.519	20233
888.643	20119
888.767	20259
888.891	20039
889.015	19951
889.139	19997
889.263	19982
889.387	20069
889.511	20221
889.635	20134
889.759	19909
889.883	19986
890.006	20058
890.13	20008
890.254	19963
890.377	19928
890.501	19837
890.624	19799
890.748	19875
890.871	19677
890.995	19567
891.118	19491
891.241	19472
891.364	19601
891.488	19727
891.611	19521
891.734	19483
891.857	19628
891.98	19613
892.103	19575
892.226	19594
892.349	19518
892.471	19434
892.594	19518
892.717	19616
892.839	19506
892.962	19502
893.085	19472
893.207	19457
893.33	19434
893.452	19434
893.575	19514
893.697	19419
893.819	19670
893.941	19658
894.064	19510
894.186	19430
894.308	19407
894.43	19616
894.552	19601
894.674	19613
894.796	19354
894.918	19464
895.04	19518
895.161	19518
895.283	19445
895.405	19392
895.526	19464
895.648	19438
895.769	19460
895.891	19540
896.012	19525
896.134	19597
896.255	19480
896.376	19540
896.498	19441
896.619	19601
896.74	19430
896.861	19635
896.982	19723
897.103	20027
897.224	19830
897.345	19734
897.466	19647
897.587	19696
897.708	19761
897.828	19719
897.949	19689
898.07	19559
898.19	19643
898.311	19811
898.431	19727
898.552	19742
898.672	19818
898.792	19776
898.913	19765
899.033	19597
899.153	19510
899.273	19472
899.393	19464
899.513	19586
899.633	19529
899.753	19506
899.873	19411
899.993	19510
900.113	19335
900.232	19594
900.352	19457
900.472	19285
900.591	19285
900.711	19255
900.83	19240
900.95	19350
901.069	19350
901.189	19171
901.308	18886
901.427	18741
901.546	18932
901.665	18905
901.784	18947
901.904	18768
902.023	18650
902.141	18547
902.26	18418
902.379	18498
902.498	18327
902.617	18357
902.735	18407
902.854	18289
902.973	18407
903.091	18079
903.21	18163
903.328	18026
903.446	18007
903.565	17824
903.683	17923
903.801	17832
903.919	17920
904.038	17828
904.156	17646
904.274	17775
904.392	17665
904.51	17699
904.627	17577
904.745	17775
904.863	17592
904.981	17459
905.098	17341
905.216	17368
905.334	17478
905.451	17364
905.569	17292
905.686	17398
905.803	17223
905.921	17147
906.038	17212
906.155	17189
906.272	17041
906.389	17010
906.506	16877
906.623	16980
906.74	16839
906.857	16805
906.974	16694
907.091	16946
907.208	17056
907.324	16805
907.441	16736
907.557	16645
907.674	16512
907.79	16550
907.907	16584
908.023	16573
908.139	16573
908.256	16550
908.372	16516
908.488	16459
908.604	16432
908.72	16303
908.836	16409
908.952	16268
909.068	16299
909.184	16341
909.3	16253
909.415	16310
909.531	16287
909.647	16074
909.762	16090
909.878	15930
909.993	16013
910.108	16048
910.224	15926
910.339	15994
910.454	15831
910.57	15827
910.685	15808
910.8	15994
910.915	15876
911.03	15831
911.145	15682
911.259	15538
911.374	15641
911.489	15515
911.604	15485
911.718	15302
911.833	15336
911.947	15233
912.062	15241
912.176	15424
912.291	15492
912.405	15450
912.519	15660
912.633	15538
912.748	15382
912.862	15359
912.976	15093
913.09	15093
913.204	15150
913.318	15192
913.431	15249
913.545	15230
913.659	15291
913.772	15116
913.886	15009
914	15001
914.113	15005
914.226	15020
914.34	15142
914.453	14937
914.566	15013
914.68	14933
914.793	14929
914.906	14724
915.019	14739
915.132	14484
915.245	14655
915.358	14785
915.47	14640
915.583	14693
915.696	14617
915.809	14667
915.921	14743
916.034	14598
916.146	14476
916.259	14545
916.371	14583
916.483	14670
916.595	14522
916.708	14526
916.82	14469
916.932	14400
917.044	14313
917.156	14412
917.268	14332
917.38	14355
917.491	14370
917.603	14351
917.715	14267
917.826	14385
917.938	14199
918.049	14145
918.161	14256
918.272	14362
918.384	14256
918.495	14218
918.606	14103
918.717	14016
918.828	14100
918.939	14100
919.05	13940
919.161	14035
919.272	13845
919.383	13898
919.494	14016
919.604	14282
919.715	14096
919.826	13917
919.936	14020
920.047	14069
920.157	14035
920.267	14096
920.378	14031
920.488	13982
920.598	14202
920.708	14259
920.818	14081
920.928	14195
921.038	14320
921.148	14305
921.258	13925
921.368	13993
921.477	13784
921.587	13757
921.697	13647
921.806	13837
921.916	13719
922.025	13464
922.134	13384
922.244	13430
922.353	13434
922.462	13301
922.571	13259
922.68	13034
922.789	13095
922.898	13069
923.007	12977
923.116	13091
923.224	13141
923.333	12970
923.442	12897
923.55	12867
923.659	12966
923.767	12882
923.876	12859
923.984	12932
924.092	12837
924.201	12882
924.309	12844
924.417	12768
924.525	12795
924.633	12924
924.741	13639
924.849	12608
924.956	12688
925.064	12547
925.172	12479
925.279	12559
925.387	12662
925.494	12536
925.602	12703
925.709	12574
925.816	12551
925.924	12475
926.031	12566
926.138	12429
926.245	12467
926.352	12426
926.459	12494
926.566	12585
926.673	12456
926.779	12300
926.886	12247
926.993	12106
927.099	12098
927.206	12117
927.312	12049
927.419	12167
927.525	12091
927.631	12030
927.737	11969
927.843	11999
927.95	11840
928.056	11866
928.162	12003
928.267	11950
928.373	12544
928.479	11946
928.585	11809
928.69	11901
928.796	11965
928.901	11836
929.007	11703
929.112	11790
929.218	11805
929.323	11707
929.428	11604
929.533	11790
929.638	11577
929.743	11672
929.848	11691
929.953	11615
930.058	11478
930.163	11307
930.267	11448
930.372	11547
930.477	11337
930.581	11539
930.685	11417
930.79	11265
930.894	11284
930.998	11216
931.103	11406
931.207	10991
931.311	10972
931.415	10942
931.519	10694
931.623	10607
