Data from test_V78500241_1797.txt Node
Date: Fri Mar 25 15:22:22 CST 2022
User: usil
Spectrometer: V785-0024
Trigger mode: 0
Integration Time (sec): 4.000000E-1
Scans to average: 1
Nonlinearity correction enabled: false
Boxcar width: 0
Storing dark spectrum: false
XAxis mode: Wavelengths
Number of Pixels in Spectrum: 1024
>>>>>Begin Spectral Data<<<<<
801.071	27808
801.214	27831
801.356	27542
801.499	27538
801.641	27504
801.783	27431
801.926	27466
802.068	27260
802.211	27298
802.353	27313
802.496	27176
802.638	27039
802.78	27001
802.923	27077
803.065	27001
803.208	26990
803.35	27081
803.492	27116
803.635	27306
803.777	27123
803.919	27302
804.061	27485
804.204	27150
804.346	27222
804.488	27108
804.63	27287
804.773	27344
804.915	27268
805.057	27443
805.199	27169
805.341	27275
805.483	27473
805.626	27233
805.768	27283
805.91	27355
806.052	27378
806.194	27203
806.336	27557
806.478	27363
806.62	27492
806.762	27561
806.904	27603
807.046	27800
807.188	27762
807.33	27762
807.472	27812
807.614	27701
807.756	27884
807.898	27736
808.04	27572
808.182	27717
808.324	27637
808.465	27766
808.607	27899
808.749	28131
808.891	28032
809.033	28181
809.174	28109
809.316	28128
809.458	28048
809.6	27934
809.741	28226
809.883	28063
810.025	28238
810.166	28394
810.308	28200
810.45	28280
810.591	28230
810.733	28128
810.875	27888
811.016	27831
811.158	27835
811.299	27994
811.441	28173
811.582	28196
811.724	28006
811.865	28002
812.007	27956
812.148	27930
812.29	27994
812.431	28135
812.573	28280
812.714	28409
812.855	28470
812.997	28649
813.138	28679
813.279	28706
813.421	28508
813.562	28527
813.703	28337
813.845	28139
813.986	27888
814.127	27785
814.268	27705
814.41	27739
814.551	27679
814.692	27698
814.833	27660
814.974	27694
815.115	27637
815.256	27667
815.397	27523
815.539	27564
815.68	27534
815.821	27435
815.962	27545
816.103	27488
816.244	27348
816.385	27233
816.526	27241
816.666	27142
816.807	27066
816.948	27077
817.089	27062
817.23	26998
817.371	27017
817.512	27001
817.653	26971
817.793	26899
817.934	26948
818.075	27001
818.216	27001
818.356	26971
818.497	26830
818.638	26670
818.778	26731
818.919	26609
819.06	26773
819.2	26921
819.341	27100
819.481	27055
819.622	27207
819.762	27317
819.903	27233
820.043	27135
820.184	27150
820.324	27096
820.465	27058
820.605	27176
820.746	27188
820.886	26883
821.026	27058
821.167	27127
821.307	27051
821.447	27017
821.588	26990
821.728	26720
821.868	26682
822.008	26469
822.149	26530
822.289	26492
822.429	26351
822.569	26221
822.709	26161
822.849	26149
822.99	25849
823.13	25879
823.27	25940
823.41	25727
823.55	25681
823.69	25811
823.83	25784
823.97	25681
824.11	25674
824.25	25506
824.389	25693
824.529	25738
824.669	25784
824.809	25700
824.949	25666
825.089	25712
825.228	25651
825.368	25457
825.508	25487
825.648	25571
825.787	25518
825.927	25590
826.067	25502
826.206	25403
826.346	25537
826.485	25460
826.625	25411
826.765	25685
826.904	25616
827.044	25274
827.183	25278
827.323	25259
827.462	25316
827.601	25217
827.741	25228
827.88	25289
828.02	25088
828.159	25217
828.298	25137
828.437	25339
828.577	25289
828.716	25343
828.855	25141
828.994	24924
829.134	24890
829.273	24966
829.412	24966
829.551	24886
829.69	24894
829.829	25069
829.968	25084
830.107	25126
830.246	24844
830.385	24985
830.524	24814
830.663	24798
830.802	24692
830.941	24483
831.08	24540
831.219	24650
831.357	24601
831.496	24798
831.635	24654
831.774	24597
831.913	24547
832.051	24330
832.19	24296
832.329	24319
832.467	24251
832.606	24262
832.744	24273
832.883	24251
833.022	24235
833.16	24178
833.299	24365
833.437	24167
833.576	24388
833.714	24353
833.852	24334
833.991	24323
834.129	24361
834.267	24426
834.406	24350
834.544	24334
834.682	24216
834.821	24251
834.959	24486
835.097	24235
835.235	24441
835.373	24300
835.511	24262
835.65	24159
835.788	23969
835.926	23996
836.064	23897
836.202	24003
836.34	24239
836.478	24140
836.615	24076
836.753	24155
836.891	24144
837.029	24190
837.167	24262
837.305	24068
837.443	23999
837.58	24182
837.718	24064
837.856	23958
837.993	23954
838.131	24018
838.269	23729
838.406	23912
838.544	23908
838.681	23718
838.819	23581
838.956	23303
839.094	23448
839.231	23490
839.369	23741
839.506	23866
839.643	23642
839.781	23562
839.918	23493
840.055	23425
840.193	23463
840.33	23273
840.467	23459
840.604	23410
840.742	23570
840.879	23280
841.016	23265
841.153	23242
841.29	23478
841.427	23429
841.564	23330
841.701	23425
841.838	23250
841.975	23307
842.112	23277
842.249	23258
842.385	23064
842.522	23349
842.659	23250
842.796	23094
842.933	23079
843.069	23216
843.206	23143
843.343	23155
843.479	23151
843.616	23185
843.752	22984
843.889	22930
844.025	23098
844.162	22858
844.298	22930
844.435	22869
844.571	23003
844.708	22934
844.844	23197
844.98	23022
845.117	23014
845.253	22862
845.389	22592
845.525	22820
845.661	22812
845.798	22550
845.934	22698
846.07	22721
846.206	22630
846.342	22805
846.478	22561
846.614	22500
846.75	22413
846.886	22325
847.022	22390
847.158	22322
847.294	22310
847.429	22470
847.565	22379
847.701	22672
847.837	22192
847.972	22063
848.108	22253
848.244	22166
848.379	22044
848.515	21854
848.65	21907
848.786	22025
848.921	22044
849.057	22070
849.192	21934
849.328	22101
849.463	21991
849.598	22013
849.734	21892
849.869	21739
850.004	21701
850.14	21660
850.275	21812
850.41	21641
850.545	21698
850.68	21720
850.815	21797
850.95	21622
851.085	21778
851.22	21960
851.355	21656
851.49	21663
851.625	21759
851.76	21603
851.895	21633
852.03	21614
852.165	21705
852.299	21656
852.434	21774
852.569	21759
852.703	21625
852.838	21766
852.973	21922
853.107	21751
853.242	21679
853.376	21629
853.511	21439
853.645	21614
853.78	21781
853.914	21591
854.048	21401
854.183	21462
854.317	21641
854.451	21724
854.585	21492
854.72	21606
854.854	21717
854.988	21386
855.122	21633
855.256	21443
855.39	21561
855.524	21545
855.658	21595
855.792	21599
855.926	21511
856.06	21614
856.194	21618
856.327	21576
856.461	21462
856.595	21492
856.729	21515
856.862	21652
856.996	21720
857.13	21614
857.263	21614
857.397	21614
857.53	21572
857.664	21549
857.797	21561
857.931	21690
858.064	21564
858.197	21583
858.331	21618
858.464	21485
858.597	21412
858.731	21530
858.864	21564
858.997	21447
859.13	21428
859.263	21629
859.396	21641
859.529	21530
859.662	21481
859.795	21481
859.928	21599
860.061	21682
860.194	21800
860.327	21614
860.46	21553
860.592	21713
860.725	21762
860.858	21842
860.99	21648
861.123	21485
861.256	21462
861.388	21572
861.521	22219
861.653	21504
861.786	21424
861.918	21420
862.05	21367
862.183	21447
862.315	21511
862.447	21583
862.58	21500
862.712	21199
862.844	21142
862.976	21344
863.108	21302
863.24	21595
863.372	21180
863.504	21173
863.636	21233
863.768	21169
863.9	21283
864.032	21173
864.164	21184
864.296	21275
864.428	21386
864.559	21351
864.691	21287
864.823	21150
864.954	21252
865.086	21116
865.217	21184
865.349	21089
865.48	21131
865.612	21180
865.743	21287
865.875	21237
866.006	21070
866.137	21230
866.269	21176
866.4	21211
866.531	21199
866.662	20963
866.793	20918
866.924	21104
867.055	21089
867.186	21039
867.317	21089
867.448	20963
867.579	21077
867.71	20963
867.841	20990
867.972	20990
868.103	21062
868.233	20982
868.364	21062
868.495	21039
868.625	21332
868.756	21435
868.886	21287
869.017	21249
869.147	21412
869.278	21507
869.408	21302
869.539	21332
869.669	21363
869.799	21488
869.929	21393
870.06	21469
870.19	21682
870.32	21549
870.45	21644
870.58	21663
870.71	21720
870.84	21873
870.97	21785
871.1	21766
871.23	21857
871.36	21869
871.489	21857
871.619	21934
871.749	21941
871.879	21934
872.008	21907
872.138	21759
872.267	21926
872.397	21778
872.526	21838
872.656	21747
872.785	21732
872.915	21953
873.044	22055
873.173	21838
873.303	21907
873.432	22025
873.561	22188
873.69	21983
873.819	21972
873.948	22051
874.077	22048
874.206	21918
874.335	21903
874.464	21945
874.593	22223
874.722	22074
874.851	22257
874.979	22166
875.108	22204
875.237	22086
875.365	22101
875.494	22067
875.623	22124
875.751	22112
875.88	22124
876.008	22284
876.136	22280
876.265	22542
876.393	22634
876.521	22580
876.65	22653
876.778	22478
876.906	22618
877.034	22421
877.162	22554
877.29	22512
877.418	22527
877.546	22440
877.674	22493
877.802	22527
877.93	22497
878.058	22451
878.185	22386
878.313	22424
878.441	22371
878.568	22352
878.696	22421
878.824	22637
878.951	22577
879.079	22497
879.206	22744
879.333	22630
879.461	22474
879.588	22577
879.715	22630
879.842	22736
879.97	22569
880.097	22234
880.224	22265
880.351	22306
880.478	22341
880.605	22405
880.732	22276
880.859	22573
880.986	22261
881.112	22276
881.239	22261
881.366	22002
881.493	21975
881.619	21998
881.746	22093
881.872	21934
881.999	21865
882.125	21926
882.252	21994
882.378	21861
882.505	21956
882.631	21694
882.757	21671
882.883	21732
883.01	21553
883.136	21561
883.262	21511
883.388	21481
883.514	21698
883.64	21633
883.766	21515
883.892	21500
884.018	21348
884.143	21549
884.269	21599
884.395	21344
884.52	21135
884.646	21207
884.772	21142
884.897	21138
885.023	21245
885.148	21298
885.274	21370
885.399	21344
885.524	21138
885.65	21207
885.775	21298
885.9	21184
886.025	21321
886.15	21313
886.275	21230
886.4	21062
886.525	21123
886.65	21077
886.775	21211
886.9	21237
887.025	21500
887.149	21180
887.274	21020
887.399	20994
887.523	20902
887.648	20941
887.773	20762
887.897	21047
888.021	21074
888.146	20857
888.27	21207
888.395	21051
888.519	20910
888.643	21020
888.767	21077
888.891	20941
889.015	20906
889.139	20758
889.263	20705
889.387	20872
889.511	21013
889.635	20868
889.759	20758
889.883	20792
890.006	20777
890.13	20769
890.254	20769
890.377	20712
890.501	20609
890.624	20457
890.748	20549
890.871	20438
890.995	20328
891.118	20324
891.241	20370
891.364	20431
891.488	20522
891.611	20355
891.734	20355
891.857	20442
891.98	20332
892.103	20313
892.226	20450
892.349	20252
892.471	20183
892.594	20286
892.717	20278
892.839	20256
892.962	20343
893.085	20317
893.207	20320
893.33	20115
893.452	20187
893.575	20313
893.697	20305
893.819	20377
893.941	20537
894.064	20389
894.186	20229
894.308	20275
894.43	20362
894.552	20438
894.674	20282
894.796	20142
894.918	20290
895.04	20084
895.161	20305
895.283	20278
895.405	20164
895.526	20263
895.648	20149
895.769	20332
895.891	20149
896.012	20278
896.134	20355
896.255	20183
896.376	20240
896.498	20229
896.619	20278
896.74	20313
896.861	20339
896.982	20579
897.103	20708
897.224	20549
897.345	20514
897.466	20454
897.587	20533
897.708	20556
897.828	20408
897.949	20412
898.07	20362
898.19	20408
898.311	20602
898.431	20434
898.552	20503
898.672	20336
898.792	20636
898.913	20461
899.033	20381
899.153	20339
899.273	20172
899.393	20252
899.513	20172
899.633	20206
899.753	20248
899.873	20195
899.993	20275
900.113	20180
900.232	20233
900.352	20020
900.472	19978
900.591	20054
900.711	19951
900.83	19944
900.95	20100
901.069	20027
901.189	19887
901.308	19750
901.427	19601
901.546	19491
901.665	19616
901.784	19548
901.904	19544
902.023	19339
902.141	19095
902.26	19114
902.379	19133
902.498	19076
902.617	19126
902.735	19015
902.854	18939
902.973	19000
903.091	18711
903.21	18768
903.328	18856
903.446	18715
903.565	18635
903.683	18669
903.801	18479
903.919	18445
904.038	18525
904.156	18346
904.274	18437
904.392	18357
904.51	18346
904.627	18266
904.745	18350
904.863	18414
904.981	18159
905.098	18076
905.216	17988
905.334	17946
905.451	17984
905.569	18121
905.686	17996
905.803	18053
905.921	17809
906.038	17908
906.155	17752
906.272	17661
906.389	17718
906.506	17532
906.623	17638
906.74	17421
906.857	17368
906.974	17360
907.091	17551
907.208	17676
907.324	17539
907.441	17433
907.557	17345
907.674	17269
907.79	17147
907.907	17269
908.023	17250
908.139	17265
908.256	17098
908.372	17155
908.488	17124
908.604	17064
908.72	16881
908.836	16987
908.952	16866
909.068	16987
909.184	17071
909.3	16923
909.415	17022
909.531	16919
909.647	16691
909.762	16596
909.878	16611
909.993	16531
910.108	16561
910.224	16664
910.339	16592
910.454	16481
910.57	16508
910.685	16451
910.8	16656
910.915	16573
911.03	16447
911.145	16409
911.259	16310
911.374	16325
911.489	16204
911.604	16109
911.718	16097
911.833	16029
911.947	15930
912.062	15793
912.176	16002
912.291	15987
912.405	15876
912.519	16238
912.633	16150
912.748	16017
912.862	15892
912.976	15770
913.09	15637
913.204	15743
913.318	15850
913.431	15937
913.545	15857
913.659	15831
913.772	15724
913.886	15637
914	15625
914.113	15644
914.226	15724
914.34	15603
914.453	15416
914.566	15561
914.68	15515
914.793	15481
914.906	15291
915.019	15249
915.132	15226
915.245	15222
915.358	15317
915.47	15226
915.583	15252
915.696	15260
915.809	15275
915.921	15363
916.034	15089
916.146	15062
916.259	15047
916.371	15245
916.483	15135
916.595	15036
916.708	15085
916.82	14975
916.932	15062
917.044	15108
917.156	14891
917.268	14773
917.38	14918
917.491	14941
917.603	14952
917.715	14910
917.826	14876
917.938	14849
918.049	14655
918.161	14804
918.272	15009
918.384	14944
918.495	14762
918.606	14537
918.717	14602
918.828	14716
918.939	14564
919.05	14473
919.161	14648
919.272	14370
919.383	14526
919.494	14625
919.604	14891
919.715	14556
919.826	14522
919.936	14492
920.047	14617
920.157	14560
920.267	14758
920.378	14511
920.488	14552
920.598	14648
920.708	14811
920.818	14777
920.928	14564
921.038	14857
921.148	14788
921.258	14480
921.368	14408
921.477	14324
921.587	14339
921.697	14191
921.806	14282
921.916	14202
922.025	14031
922.134	13951
922.244	13989
922.353	13974
922.462	13826
922.571	13693
922.68	13674
922.789	13529
922.898	13597
923.007	13563
923.116	13567
923.224	13605
923.333	13514
923.442	13434
923.55	13407
923.659	13453
923.767	13518
923.876	13377
923.984	13449
924.092	13289
924.201	13301
924.309	13346
924.417	13415
924.525	13194
924.633	13335
924.741	14248
924.849	13000
924.956	13209
925.064	13034
925.172	12981
925.279	12985
925.387	13076
925.494	13034
925.602	13183
925.709	12973
925.816	12916
925.924	12897
926.031	12924
926.138	12875
926.245	13004
926.352	12798
926.459	13012
926.566	12932
926.673	12806
926.779	12768
926.886	12722
926.993	12696
927.099	12517
927.206	12528
927.312	12608
927.419	12597
927.525	12570
927.631	12544
927.737	12384
927.843	12338
927.95	12296
928.056	12315
928.162	12403
928.267	12410
928.373	13034
928.479	12456
928.585	12266
928.69	12376
928.796	12361
928.901	12216
929.007	12095
929.112	12220
929.218	12194
929.323	12159
929.428	12091
929.533	12266
929.638	12030
929.743	12038
929.848	12125
929.953	12102
930.058	11984
930.163	11859
930.267	11843
930.372	11923
930.477	11760
930.581	11984
930.685	11779
930.79	11676
930.894	11680
930.998	11707
931.103	11783
931.207	11383
931.311	11395
931.415	11284
931.519	11067
931.623	11052
