Data from test_V78500241_2181.txt Node
Date: Fri Mar 25 15:25:02 CST 2022
User: usil
Spectrometer: V785-0024
Trigger mode: 0
Integration Time (sec): 4.000000E-1
Scans to average: 1
Nonlinearity correction enabled: false
Boxcar width: 0
Storing dark spectrum: false
XAxis mode: Wavelengths
Number of Pixels in Spectrum: 1024
>>>>>Begin Spectral Data<<<<<
801.071	27713
801.214	27686
801.356	27504
801.499	27287
801.641	27279
801.783	27226
801.926	27249
802.068	27237
802.211	27207
802.353	27192
802.496	27131
802.638	26956
802.78	26876
802.923	27009
803.065	27028
803.208	26826
803.35	26944
803.492	27062
803.635	27249
803.777	26998
803.919	27085
804.061	27401
804.204	27245
804.346	27104
804.488	26933
804.63	27020
804.773	27108
804.915	27157
805.057	27192
805.199	27108
805.341	27116
805.483	27260
805.626	27348
805.768	27195
805.91	27230
806.052	27260
806.194	27317
806.336	27348
806.478	27313
806.62	27218
806.762	27416
806.904	27545
807.046	27732
807.188	27682
807.33	27629
807.472	27652
807.614	27595
807.756	27534
807.898	27496
808.04	27523
808.182	27572
808.324	27542
808.465	27462
808.607	27724
808.749	27873
808.891	27895
809.033	27914
809.174	27987
809.316	27728
809.458	27857
809.6	27869
809.741	28055
809.883	27941
810.025	28112
810.166	28044
810.308	28272
810.45	28017
810.591	28207
810.733	27812
810.875	27762
811.016	27625
811.158	27663
811.299	27907
811.441	27991
811.582	28051
811.724	27911
811.865	27880
812.007	27975
812.148	27743
812.29	27751
812.431	27941
812.573	28196
812.714	28299
812.855	28344
812.997	28386
813.138	28580
813.279	28630
813.421	28405
813.562	28238
813.703	28223
813.845	28063
813.986	27930
814.127	27644
814.268	27515
814.41	27633
814.551	27466
814.692	27629
814.833	27561
814.974	27530
815.115	27606
815.256	27496
815.397	27496
815.539	27427
815.68	27268
815.821	27275
815.962	27237
816.103	27298
816.244	27157
816.385	27108
816.526	27245
816.666	26975
816.807	26830
816.948	26868
817.089	26883
817.23	26899
817.371	26773
817.512	26876
817.653	26754
817.793	26697
817.934	26769
818.075	26796
818.216	26811
818.356	26750
818.497	26769
818.638	26476
818.778	26560
818.919	26644
819.06	26720
819.2	26659
819.341	26773
819.481	26872
819.622	26975
819.762	27233
819.903	26960
820.043	26933
820.184	26861
820.324	27036
820.465	26948
820.605	27047
820.746	26899
820.886	26781
821.026	26906
821.167	26830
821.307	27013
821.447	26838
821.588	26758
821.728	26651
821.868	26552
822.008	26199
822.149	26351
822.289	26343
822.429	26031
822.569	25925
822.709	26062
822.849	25772
822.99	25826
823.13	25734
823.27	25757
823.41	25681
823.55	25514
823.69	25708
823.83	25628
823.97	25578
824.11	25396
824.25	25308
824.389	25381
824.529	25594
824.669	25419
824.809	25655
824.949	25499
825.089	25510
825.228	25506
825.368	25270
825.508	25358
825.648	25282
825.787	25335
825.927	25278
826.067	25285
826.206	25259
826.346	25388
826.485	25301
826.625	25278
826.765	25476
826.904	25213
827.044	25103
827.183	25091
827.323	24966
827.462	25126
827.601	25069
827.741	24966
827.88	24920
828.02	24776
828.159	25004
828.298	25053
828.437	25088
828.577	24992
828.716	25042
828.855	25061
828.994	24715
829.134	24772
829.273	24734
829.412	24612
829.551	24734
829.69	24692
829.829	24582
829.968	24768
830.107	24772
830.246	24681
830.385	24631
830.524	24578
830.663	24635
830.802	24399
830.941	24243
831.08	24304
831.219	24422
831.357	24315
831.496	24563
831.635	24376
831.774	24171
831.913	24110
832.051	24232
832.19	24064
832.329	24110
832.467	24057
832.606	24015
832.744	23965
832.883	23927
833.022	23950
833.16	23920
833.299	23996
833.437	23946
833.576	24015
833.714	24079
833.852	24060
833.991	24049
834.129	24171
834.267	23988
834.406	23908
834.544	24095
834.682	24072
834.821	24003
834.959	24159
835.097	23908
835.235	24171
835.373	24167
835.511	23977
835.65	23897
835.788	23931
835.926	23661
836.064	23630
836.202	23741
836.34	23912
836.478	23908
836.615	23836
836.753	24011
836.891	23908
837.029	24011
837.167	23790
837.305	23794
837.443	23718
837.58	23748
837.718	23764
837.856	23741
837.993	23562
838.131	23668
838.269	23585
838.406	23707
838.544	23653
838.681	23448
838.819	23345
838.956	23181
839.094	23140
839.231	23216
839.369	23220
839.506	23558
839.643	23421
839.781	23208
839.918	23060
840.055	23064
840.193	23208
840.33	23136
840.467	23105
840.604	23231
840.742	23288
840.879	22869
841.016	22991
841.153	23064
841.29	23140
841.427	23025
841.564	23071
841.701	23048
841.838	22953
841.975	22949
842.112	22919
842.249	22873
842.385	22793
842.522	22972
842.659	22831
842.796	22820
842.933	22896
843.069	22873
843.206	22748
843.343	22812
843.479	22850
843.616	22949
843.752	22607
843.889	22630
844.025	22824
844.162	22691
844.298	22622
844.435	22478
844.571	22577
844.708	22679
844.844	22790
844.98	22831
845.117	22675
845.253	22535
845.389	22459
845.525	22481
845.661	22474
845.798	22348
845.934	22440
846.07	22322
846.206	22375
846.342	22421
846.478	22329
846.614	22017
846.75	22067
846.886	22131
847.022	22116
847.158	22063
847.294	22025
847.429	22169
847.565	21945
847.701	22348
847.837	21838
847.972	21667
848.108	21774
848.244	21880
848.379	21739
848.515	21667
848.65	21599
848.786	21755
848.921	21606
849.057	21835
849.192	21667
849.328	21591
849.463	21629
849.598	21603
849.734	21610
849.869	21477
850.004	21450
850.14	21477
850.275	21401
850.41	21488
850.545	21249
850.68	21207
850.815	21344
850.95	21443
851.085	21641
851.22	21412
851.355	21458
851.49	21393
851.625	21477
851.76	21397
851.895	21374
852.03	21408
852.165	21462
852.299	21370
852.434	21568
852.569	21466
852.703	21435
852.838	21416
852.973	21496
853.107	21477
853.242	21374
853.376	21378
853.511	21146
853.645	21146
853.78	21408
853.914	21241
854.048	21310
854.183	21184
854.317	21203
854.451	21370
854.585	21135
854.72	21294
854.854	21344
854.988	21108
855.122	21279
855.256	21165
855.39	21188
855.524	21351
855.658	21332
855.792	21370
855.926	21332
856.06	21351
856.194	21291
856.327	21233
856.461	21317
856.595	21192
856.729	21207
856.862	21344
856.996	21306
857.13	21367
857.263	21412
857.397	21272
857.53	21306
857.664	21294
857.797	21367
857.931	21298
858.064	21256
858.197	21332
858.331	21264
858.464	21188
858.597	21176
858.731	21199
858.864	21207
858.997	21116
859.13	21302
859.263	21294
859.396	21382
859.529	21218
859.662	21176
859.795	21081
859.928	21142
860.061	21382
860.194	21405
860.327	21222
860.46	21245
860.592	21329
860.725	21351
860.858	21367
860.99	21230
861.123	21173
861.256	21112
861.388	21188
861.521	21869
861.653	21188
861.786	21036
861.918	21032
862.05	21104
862.183	21058
862.315	21047
862.447	21268
862.58	21123
862.712	20960
862.844	20899
862.976	21085
863.108	21005
863.24	21488
863.372	20872
863.504	20876
863.636	20971
863.768	20929
863.9	20861
864.032	20849
864.164	20891
864.296	20853
864.428	21039
864.559	21028
864.691	21036
864.823	20971
864.954	20830
865.086	20948
865.217	20788
865.349	20758
865.48	20849
865.612	20842
865.743	20914
865.875	20876
866.006	20914
866.137	20804
866.269	20921
866.4	20826
866.531	20826
866.662	20785
866.793	20796
866.924	20754
867.055	20746
867.186	20899
867.317	20830
867.448	20644
867.579	20750
867.71	20689
867.841	20667
867.972	20731
868.103	20682
868.233	20762
868.364	20773
868.495	20849
868.625	21066
868.756	21074
868.886	20967
869.017	20990
869.147	21119
869.278	21119
869.408	21123
869.539	21017
869.669	21119
869.799	21024
869.929	21226
870.06	21138
870.19	21469
870.32	21351
870.45	21287
870.58	21412
870.71	21428
870.84	21496
870.97	21504
871.1	21359
871.23	21583
871.36	21637
871.489	21561
871.619	21652
871.749	21599
871.879	21644
872.008	21656
872.138	21648
872.267	21686
872.397	21519
872.526	21313
872.656	21416
872.785	21485
872.915	21633
873.044	21724
873.173	21549
873.303	21622
873.432	21686
873.561	21774
873.69	21663
873.819	21747
873.948	21641
874.077	21580
874.206	21549
874.335	21671
874.464	21819
874.593	21892
874.722	21857
874.851	21953
874.979	21968
875.108	21850
875.237	21876
875.365	21720
875.494	21865
875.623	22002
875.751	21762
875.88	21888
876.008	22063
876.136	22082
876.265	22265
876.393	22371
876.521	22306
876.65	22394
876.778	22306
876.906	22249
877.034	22063
877.162	22310
877.29	22204
877.418	22086
877.546	22280
877.674	22200
877.802	22150
877.93	22154
878.058	22318
878.185	22044
878.313	22036
878.441	22196
878.568	22040
878.696	22223
878.824	22090
878.951	22257
879.079	22481
879.206	22440
879.333	22295
879.461	22306
879.588	22356
879.715	22348
879.842	22569
879.97	22150
880.097	22097
880.224	22139
880.351	22150
880.478	22048
880.605	21956
880.732	22070
880.859	22223
880.986	22112
881.112	21975
881.239	21915
881.366	21755
881.493	21781
881.619	21587
881.746	21679
881.872	21606
881.999	21595
882.125	21477
882.252	21500
882.378	21583
882.505	21766
882.631	21412
882.757	21272
882.883	21325
883.01	21237
883.136	21275
883.262	21199
883.388	21302
883.514	21256
883.64	21272
883.766	21176
883.892	21112
884.018	21173
884.143	21291
884.269	21256
884.395	21066
884.52	20902
884.646	21074
884.772	20906
884.897	20864
885.023	20906
885.148	21017
885.274	20967
885.399	21055
885.524	21017
885.65	20933
885.775	20899
885.9	20902
886.025	21047
886.15	20982
886.275	20880
886.4	20868
886.525	20918
886.65	20849
886.775	20937
886.9	21017
887.025	21165
887.149	20918
887.274	20720
887.399	20773
887.523	20670
887.648	20663
887.773	20842
887.897	20849
888.021	20807
888.146	20655
888.27	20845
888.395	20735
888.519	20842
888.643	20800
888.767	20781
888.891	20613
889.015	20514
889.139	20602
889.263	20492
889.387	20537
889.511	20716
889.635	20606
889.759	20564
889.883	20537
890.006	20606
890.13	20587
890.254	20503
890.377	20370
890.501	20324
890.624	20263
890.748	20355
890.871	20298
890.995	20138
891.118	20111
891.241	20050
891.364	20100
891.488	20081
891.611	19986
891.734	20031
891.857	20073
891.98	20031
892.103	20069
892.226	20008
892.349	20008
892.471	19906
892.594	19925
892.717	19928
892.839	19913
892.962	19959
893.085	20077
893.207	20073
893.33	19814
893.452	20027
893.575	20054
893.697	19970
893.819	20111
893.941	20225
894.064	20100
894.186	19921
894.308	19871
894.43	20111
894.552	20119
894.674	20176
894.796	19890
894.918	19978
895.04	20107
895.161	20054
895.283	20024
895.405	19860
895.526	20035
895.648	19978
895.769	20024
895.891	20088
896.012	20012
896.134	19982
896.255	19921
896.376	19982
896.498	19906
896.619	19887
896.74	19932
896.861	20138
896.982	20336
897.103	20381
897.224	20400
897.345	20168
897.466	20180
897.587	20142
897.708	20431
897.828	20305
897.949	20046
898.07	19932
898.19	20073
898.311	20275
898.431	20122
898.552	20290
898.672	20275
898.792	20294
898.913	20263
899.033	20130
899.153	20100
899.273	19868
899.393	20119
899.513	19986
899.633	19993
899.753	19947
899.873	19841
899.993	19974
900.113	19932
900.232	19894
900.352	19879
900.472	19776
900.591	19647
900.711	19830
900.83	19689
900.95	19826
901.069	19921
901.189	19734
901.308	19438
901.427	19297
901.546	19308
901.665	19434
901.784	19377
901.904	19289
902.023	19179
902.141	18973
902.26	18833
902.379	18966
902.498	18935
902.617	18745
902.735	18924
902.854	18787
902.973	18768
903.091	18642
903.21	18506
903.328	18403
903.446	18414
903.565	18365
903.683	18350
903.801	18330
903.919	18258
904.038	18338
904.156	18167
904.274	18228
904.392	18201
904.51	18034
904.627	18144
904.745	18068
904.863	18114
904.981	17980
905.098	17802
905.216	17729
905.334	17851
905.451	17710
905.569	17733
905.686	17828
905.803	17786
905.921	17547
906.038	17630
906.155	17589
906.272	17417
906.389	17372
906.506	17322
906.623	17379
906.74	17326
906.857	17197
906.974	17254
907.091	17429
907.208	17467
907.324	17349
907.441	17307
907.557	17140
907.674	17090
907.79	16987
907.907	16995
908.023	17037
908.139	17033
908.256	17029
908.372	16919
908.488	16930
908.604	16908
908.72	16694
908.836	16752
908.952	16713
909.068	16626
909.184	16771
909.3	16668
909.415	16668
909.531	16653
909.647	16523
909.762	16535
909.878	16325
909.993	16466
910.108	16375
910.224	16440
910.339	16443
910.454	16276
910.57	16337
910.685	16211
910.8	16459
910.915	16363
911.03	16325
911.145	16036
911.259	16071
911.374	16105
911.489	16013
911.604	15953
911.718	15720
911.833	15857
911.947	15625
912.062	15587
912.176	15793
912.291	15831
912.405	15641
912.519	16002
912.633	15915
912.748	15819
912.862	15679
912.976	15648
913.09	15477
913.204	15606
913.318	15614
913.431	15717
913.545	15637
913.659	15652
913.772	15576
913.886	15526
914	15466
914.113	15443
914.226	15557
914.34	15424
914.453	15275
914.566	15473
914.68	15294
914.793	15237
914.906	15146
915.019	14986
915.132	15043
915.245	14952
915.358	14990
915.47	14986
915.583	14990
915.696	15028
915.809	15100
915.921	15119
916.034	14990
916.146	14857
916.259	14948
916.371	14937
916.483	14986
916.595	14864
916.708	14834
916.82	14880
916.932	14800
917.044	14796
917.156	14819
917.268	14712
917.38	14758
917.491	14640
917.603	14716
917.715	14804
917.826	14754
917.938	14571
918.049	14511
918.161	14610
918.272	14712
918.384	14762
918.495	14632
918.606	14530
918.717	14415
918.828	14488
918.939	14374
919.05	14313
919.161	14393
919.272	14199
919.383	14263
919.494	14545
919.604	14617
919.715	14396
919.826	14237
919.936	14431
920.047	14370
920.157	14336
920.267	14579
920.378	14415
920.488	14400
920.598	14526
920.708	14670
920.818	14560
920.928	14511
921.038	14712
921.148	14686
921.258	14389
921.368	14305
921.477	14206
921.587	14084
921.697	14062
921.806	14126
921.916	13989
922.025	13860
922.134	13708
922.244	13696
922.353	13909
922.462	13674
922.571	13537
922.68	13415
922.789	13362
922.898	13388
923.007	13354
923.116	13411
923.224	13426
923.333	13426
923.442	13274
923.55	13282
923.659	13400
923.767	13400
923.876	13240
923.984	13270
924.092	13160
924.201	13251
924.309	13149
924.417	13141
924.525	13129
924.633	13141
924.741	13883
924.849	12875
924.956	13061
925.064	12875
925.172	12764
925.279	12920
925.387	12894
925.494	12806
925.602	12939
925.709	12935
925.816	12772
925.924	12825
926.031	12867
926.138	12783
926.245	12867
926.352	12696
926.459	12878
926.566	12928
926.673	12730
926.779	12578
926.886	12593
926.993	12490
927.099	12388
927.206	12418
927.312	12327
927.419	12452
927.525	12311
927.631	12509
927.737	12334
927.843	12350
927.95	12095
928.056	12197
928.162	12235
928.267	12247
928.373	12875
928.479	12342
928.585	12022
928.69	12235
928.796	12296
928.901	12106
929.007	11939
929.112	12053
929.218	12038
929.323	11969
929.428	11923
929.533	12072
929.638	11859
929.743	11931
929.848	11977
929.953	11927
930.058	11805
930.163	11729
930.267	11710
930.372	11703
930.477	11661
930.581	11821
930.685	11752
930.79	11547
930.894	11665
930.998	11516
931.103	11615
931.207	11258
931.311	11208
931.415	11067
931.519	11056
931.623	10889
