Data from test_V78500241_3572.txt Node
Date: Fri Mar 25 15:34:43 CST 2022
User: usil
Spectrometer: V785-0024
Trigger mode: 0
Integration Time (sec): 4.000000E-1
Scans to average: 1
Nonlinearity correction enabled: false
Boxcar width: 0
Storing dark spectrum: false
XAxis mode: Wavelengths
Number of Pixels in Spectrum: 1024
>>>>>Begin Spectral Data<<<<<
801.071	27272
801.214	27161
801.356	27032
801.499	26979
801.641	26861
801.783	26754
801.926	26914
802.068	26777
802.211	26735
802.353	26606
802.496	26606
802.638	26461
802.78	26385
802.923	26446
803.065	26370
803.208	26370
803.35	26438
803.492	26514
803.635	26727
803.777	26568
803.919	26674
804.061	26811
804.204	26644
804.346	26594
804.488	26560
804.63	26670
804.773	26590
804.915	26571
805.057	26830
805.199	26587
805.341	26785
805.483	26712
805.626	26781
805.768	26792
805.91	26750
806.052	26845
806.194	26708
806.336	26982
806.478	26800
806.62	26800
806.762	26796
806.904	27024
807.046	27370
807.188	27138
807.33	27180
807.472	27230
807.614	27108
807.756	27188
807.898	27001
808.04	27028
808.182	26990
808.324	27036
808.465	27138
808.607	27112
808.749	27355
808.891	27542
809.033	27496
809.174	27424
809.316	27176
809.458	27405
809.6	27192
809.741	27325
809.883	27473
810.025	27454
810.166	27770
810.308	27591
810.45	27568
810.591	27496
810.733	27313
810.875	27355
811.016	27218
811.158	27203
811.299	27348
811.441	27507
811.582	27500
811.724	27272
811.865	27302
812.007	27306
812.148	27260
812.29	27458
812.431	27431
812.573	27720
812.714	27899
812.855	27869
812.997	27964
813.138	28154
813.279	27991
813.421	27911
813.562	27823
813.703	27717
813.845	27622
813.986	27317
814.127	27051
814.268	27017
814.41	27211
814.551	26902
814.692	27104
814.833	27001
814.974	26986
815.115	26929
815.256	27028
815.397	26868
815.539	27039
815.68	26861
815.821	26640
815.962	26754
816.103	26940
816.244	26549
816.385	26488
816.526	26530
816.666	26438
816.807	26214
816.948	26374
817.089	26362
817.23	26404
817.371	26324
817.512	26176
817.653	26237
817.793	26282
817.934	26286
818.075	26374
818.216	26381
818.356	26195
818.497	26183
818.638	26081
818.778	26020
818.919	26092
819.06	26134
819.2	26157
819.341	26259
819.481	26164
819.622	26480
819.762	26697
819.903	26480
820.043	26457
820.184	26431
820.324	26389
820.465	26438
820.605	26336
820.746	26271
820.886	26252
821.026	26244
821.167	26385
821.307	26400
821.447	26286
821.588	26221
821.728	25944
821.868	25928
822.008	25868
822.149	25830
822.289	25700
822.429	25575
822.569	25506
822.709	25384
822.849	25266
822.99	25190
823.13	25274
823.27	25259
823.41	25129
823.55	25015
823.69	25152
823.83	25168
823.97	25050
824.11	24932
824.25	24928
824.389	24924
824.529	24966
824.669	24935
824.809	25061
824.949	24966
825.089	25046
825.228	24920
825.368	24825
825.508	24848
825.648	24795
825.787	24954
825.927	24875
826.067	24829
826.206	24768
826.346	24886
826.485	24875
826.625	24764
826.765	25000
826.904	24779
827.044	24696
827.183	24589
827.323	24494
827.462	24532
827.601	24623
827.741	24475
827.88	24460
828.02	24388
828.159	24498
828.298	24547
828.437	24505
828.577	24509
828.716	24642
828.855	24391
828.994	24224
829.134	24136
829.273	24292
829.412	24186
829.551	24098
829.69	24205
829.829	24266
829.968	24342
830.107	24262
830.246	24346
830.385	24273
830.524	24087
830.663	24057
830.802	24022
830.941	23832
831.08	23821
831.219	23882
831.357	23878
831.496	23999
831.635	23733
831.774	23695
831.913	23585
832.051	23562
832.19	23634
832.329	23752
832.467	23638
832.606	23463
832.744	23429
832.883	23478
833.022	23448
833.16	23672
833.299	23596
833.437	23501
833.576	23703
833.714	23657
833.852	23668
833.991	23623
834.129	23592
834.267	23600
834.406	23604
834.544	23649
834.682	23581
834.821	23528
834.959	23646
835.097	23391
835.235	23691
835.373	23630
835.511	23474
835.65	23455
835.788	23455
835.926	23315
836.064	23307
836.202	23250
836.34	23520
836.478	23421
836.615	23410
836.753	23353
836.891	23459
837.029	23478
837.167	23299
837.305	23368
837.443	23414
837.58	23197
837.718	23410
837.856	23261
837.993	23212
838.131	23425
838.269	23113
838.406	23143
838.544	23067
838.681	23056
838.819	22862
838.956	22698
839.094	22839
839.231	22938
839.369	23029
839.506	23174
839.643	23014
839.781	22759
839.918	22664
840.055	22843
840.193	22843
840.33	22782
840.467	22763
840.604	22755
840.742	22968
840.879	22542
841.016	22569
841.153	22660
841.29	22721
841.427	22847
841.564	22687
841.701	22698
841.838	22580
841.975	22626
842.112	22557
842.249	22424
842.385	22478
842.522	22618
842.659	22554
842.796	22344
842.933	22382
843.069	22493
843.206	22455
843.343	22519
843.479	22531
843.616	22580
843.752	22272
843.889	22306
844.025	22417
844.162	22440
844.298	22337
844.435	22219
844.571	22314
844.708	22249
844.844	22375
844.98	22318
845.117	22478
845.253	22139
845.389	22192
845.525	22177
845.661	22063
845.798	22078
845.934	22086
846.07	21899
846.206	21991
846.342	22059
846.478	21888
846.614	21739
846.75	21656
846.886	21686
847.022	21812
847.158	21667
847.294	21762
847.429	21770
847.565	21793
847.701	22010
847.837	21477
847.972	21572
848.108	21603
848.244	21652
848.379	21249
848.515	21321
848.65	21321
848.786	21401
848.921	21336
849.057	21359
849.192	21374
849.328	21351
849.463	21298
849.598	21294
849.734	21211
849.869	21055
850.004	21051
850.14	21051
850.275	21123
850.41	21043
850.545	20979
850.68	21051
850.815	21093
850.95	21036
851.085	21245
851.22	21058
851.355	21070
851.49	21077
851.625	21138
851.76	20990
851.895	20925
852.03	21005
852.165	21100
852.299	21123
852.434	21146
852.569	21066
852.703	21009
852.838	21131
852.973	21142
853.107	21222
853.242	20937
853.376	20963
853.511	20899
853.645	20967
853.78	21112
853.914	20880
854.048	20842
854.183	20891
854.317	20895
854.451	21081
854.585	20918
854.72	20994
854.854	21119
854.988	20838
855.122	20914
855.256	20823
855.39	20921
855.524	20979
855.658	20921
855.792	20849
855.926	20891
856.06	20918
856.194	20921
856.327	20868
856.461	20842
856.595	20792
856.729	20872
856.862	21017
856.996	20941
857.13	20979
857.263	21108
857.397	20986
857.53	20872
857.664	21017
857.797	21017
857.931	20925
858.064	20876
858.197	20975
858.331	20895
858.464	20842
858.597	20765
858.731	20902
858.864	20925
858.997	20849
859.13	21047
859.263	20910
859.396	21127
859.529	20781
859.662	20876
859.795	20861
859.928	20857
860.061	21051
860.194	21116
860.327	20967
860.46	20891
860.592	21157
860.725	21055
860.858	20990
860.99	20944
861.123	20861
861.256	20849
861.388	20804
861.521	21663
861.653	20800
861.786	20716
861.918	20636
862.05	20697
862.183	20830
862.315	20864
862.447	20975
862.58	20918
862.712	20678
862.844	20511
862.976	20743
863.108	20651
863.24	21039
863.372	20632
863.504	20609
863.636	20640
863.768	20667
863.9	20629
864.032	20545
864.164	20526
864.296	20682
864.428	20701
864.559	20765
864.691	20731
864.823	20693
864.954	20583
865.086	20579
865.217	20480
865.349	20450
865.48	20408
865.612	20522
865.743	20636
865.875	20587
866.006	20454
866.137	20522
866.269	20469
866.4	20533
866.531	20541
866.662	20465
866.793	20389
866.924	20393
867.055	20507
867.186	20427
867.317	20495
867.448	20389
867.579	20442
867.71	20446
867.841	20412
867.972	20549
868.103	20298
868.233	20533
868.364	20476
868.495	20358
868.625	20514
868.756	20830
868.886	20678
869.017	20724
869.147	20796
869.278	20796
869.408	20701
869.539	20708
869.669	20754
869.799	20804
869.929	20967
870.06	20785
870.19	21055
870.32	20994
870.45	21066
870.58	21009
870.71	21169
870.84	21138
870.97	21100
871.1	21135
871.23	21233
871.36	21317
871.489	21233
871.619	21226
871.749	21291
871.879	21241
872.008	21519
872.138	21340
872.267	21355
872.397	21157
872.526	21123
872.656	21085
872.785	21123
872.915	21344
873.044	21355
873.173	21401
873.303	21401
873.432	21462
873.561	21424
873.69	21321
873.819	21355
873.948	21538
874.077	21374
874.206	21245
874.335	21367
874.464	21439
874.593	21568
874.722	21523
874.851	21671
874.979	21572
875.108	21633
875.237	21656
875.365	21511
875.494	21454
875.623	21618
875.751	21545
875.88	21561
876.008	21743
876.136	21865
876.265	22025
876.393	22116
876.521	22063
876.65	22147
876.778	22021
876.906	21979
877.034	21941
877.162	21869
877.29	21888
877.418	21907
877.546	22036
877.674	21983
877.802	21918
877.93	21911
878.058	21926
878.185	21842
878.313	21884
878.441	21911
878.568	21781
878.696	21930
878.824	22036
878.951	22036
879.079	22067
879.206	22147
879.333	22044
879.461	21880
879.588	21998
879.715	22097
879.842	22070
879.97	22067
880.097	21709
880.224	21728
880.351	21903
880.478	21842
880.605	21736
880.732	21804
880.859	21949
880.986	21739
881.112	21629
881.239	21660
881.366	21580
881.493	21439
881.619	21355
881.746	21469
881.872	21363
881.999	21367
882.125	21287
882.252	21363
882.378	21218
882.505	21435
882.631	21222
882.757	20956
882.883	21100
883.01	21154
883.136	21047
883.262	21005
883.388	20845
883.514	20982
883.64	21036
883.766	20967
883.892	20762
884.018	20773
884.143	21020
884.269	20948
884.395	20773
884.52	20765
884.646	20693
884.772	20667
884.897	20625
885.023	20708
885.148	20712
885.274	20788
885.399	20750
885.524	20842
885.65	20712
885.775	20716
885.9	20777
886.025	20807
886.15	20762
886.275	20617
886.4	20526
886.525	20583
886.65	20579
886.775	20575
886.9	20750
887.025	20838
887.149	20651
887.274	20313
887.399	20358
887.523	20374
887.648	20393
887.773	20347
887.897	20514
888.021	20503
888.146	20275
888.27	20564
888.395	20549
888.519	20442
888.643	20434
888.767	20533
888.891	20362
889.015	20404
889.139	20374
889.263	20259
889.387	20355
889.511	20522
889.635	20415
889.759	20176
889.883	20191
890.006	20339
890.13	20278
890.254	20157
890.377	20202
890.501	19951
890.624	19959
890.748	20119
890.871	19951
890.995	19757
891.118	19864
891.241	19841
891.364	19898
891.488	19928
891.611	19978
891.734	19955
891.857	20058
891.98	19784
892.103	19887
892.226	19864
892.349	19712
892.471	19658
892.594	19799
892.717	19700
892.839	19830
892.962	19807
893.085	19864
893.207	19746
893.33	19586
893.452	19651
893.575	19780
893.697	19712
893.819	19898
893.941	19875
894.064	19860
894.186	19738
894.308	19655
894.43	19830
894.552	19833
894.674	19750
894.796	19578
894.918	19681
895.04	19651
895.161	19696
895.283	19795
895.405	19662
895.526	19852
895.648	19700
895.769	19795
895.891	19761
896.012	19860
896.134	19856
896.255	19712
896.376	19693
896.498	19674
896.619	19822
896.74	19738
896.861	19761
896.982	20001
897.103	20183
897.224	20077
897.345	19925
897.466	19986
897.587	19913
897.708	20119
897.828	19982
897.949	19887
898.07	19811
898.19	19932
898.311	20065
898.431	19864
898.552	19898
898.672	20043
898.792	19955
898.913	19967
899.033	19890
899.153	19826
899.273	19738
899.393	19658
899.513	19864
899.633	19803
899.753	19738
899.873	19601
899.993	19772
900.113	19597
900.232	19700
900.352	19529
900.472	19643
900.591	19480
900.711	19480
900.83	19339
900.95	19548
901.069	19586
901.189	19350
901.308	19107
901.427	18973
901.546	19095
901.665	19126
901.784	18985
901.904	19008
902.023	18886
902.141	18658
902.26	18650
902.379	18540
902.498	18582
902.617	18525
902.735	18608
902.854	18623
902.973	18574
903.091	18369
903.21	18270
903.328	18285
903.446	18163
903.565	18098
903.683	18087
903.801	17984
903.919	18011
904.038	17931
904.156	17878
904.274	17786
904.392	17764
904.51	17847
904.627	17790
904.745	17893
904.863	17931
904.981	17634
905.098	17452
905.216	17623
905.334	17638
905.451	17543
905.569	17421
905.686	17433
905.803	17554
905.921	17303
906.038	17402
906.155	17356
906.272	17254
906.389	17277
906.506	17006
906.623	17025
906.74	17102
906.857	16923
906.974	16987
907.091	17067
907.208	17067
907.324	17067
907.441	16896
907.557	16847
907.674	16812
907.79	16702
907.907	16763
908.023	16790
908.139	16786
908.256	16782
908.372	16668
908.488	16637
908.604	16565
908.72	16504
908.836	16573
908.952	16436
909.068	16550
909.184	16653
909.3	16607
909.415	16470
909.531	16481
909.647	16215
909.762	16257
909.878	16230
909.993	16257
910.108	16192
910.224	16219
910.339	16154
910.454	16078
910.57	16082
910.685	15987
910.8	16211
910.915	16223
911.03	16025
911.145	15915
911.259	15842
911.374	15808
911.489	15789
911.604	15736
911.718	15629
911.833	15603
911.947	15557
912.062	15431
912.176	15519
912.291	15682
912.405	15591
912.519	15713
912.633	15720
912.748	15606
912.862	15584
912.976	15477
913.09	15252
913.204	15302
913.318	15401
913.431	15435
913.545	15458
913.659	15511
913.772	15393
913.886	15241
914	15207
914.113	15344
914.226	15367
914.34	15302
914.453	15146
914.566	15214
914.68	15100
914.793	15039
914.906	14944
915.019	14834
915.132	14800
915.245	14727
915.358	14758
915.47	14804
915.583	14792
915.696	14872
915.809	14929
915.921	14921
916.034	14811
916.146	14731
916.259	14727
916.371	14804
916.483	14754
916.595	14655
916.708	14613
916.82	14682
916.932	14587
917.044	14629
917.156	14617
917.268	14461
917.38	14545
917.491	14495
917.603	14575
917.715	14526
917.826	14583
917.938	14355
918.049	14282
918.161	14381
918.272	14526
918.384	14514
918.495	14404
918.606	14301
918.717	14107
918.828	14263
918.939	14309
919.05	14161
919.161	14259
919.272	14039
919.383	14134
919.494	14229
919.604	14294
919.715	14305
919.826	14084
919.936	14218
920.047	14298
920.157	14153
920.267	14427
920.378	14145
920.488	14123
920.598	14336
920.708	14579
920.818	14393
920.928	14389
921.038	14560
921.148	14461
921.258	14157
921.368	14096
921.477	13963
921.587	13879
921.697	13875
921.806	13947
921.916	13712
922.025	13677
922.134	13578
922.244	13586
922.353	13616
922.462	13453
922.571	13365
922.68	13221
922.789	13247
922.898	13297
923.007	13179
923.116	13282
923.224	13232
923.333	13312
923.442	13168
923.55	13038
923.659	13084
923.767	13084
923.876	13050
923.984	13076
924.092	12913
924.201	12958
924.309	13110
924.417	12985
924.525	12844
924.633	12939
924.741	13921
924.849	12677
924.956	12894
925.064	12768
925.172	12574
925.279	12620
925.387	12772
925.494	12631
925.602	12779
925.709	12745
925.816	12620
925.924	12601
926.031	12734
926.138	12589
926.245	12635
926.352	12509
926.459	12612
926.566	12711
926.673	12658
926.779	12475
926.886	12509
926.993	12338
927.099	12216
927.206	12209
927.312	12213
927.419	12258
927.525	12228
927.631	12239
927.737	12022
927.843	12114
927.95	12041
928.056	12057
928.162	12026
928.267	12148
928.373	12650
928.479	12098
928.585	11946
928.69	12049
928.796	12007
928.901	11996
929.007	11756
929.112	12007
929.218	11988
929.323	11897
929.428	11760
929.533	11923
929.638	11748
929.743	11710
929.848	11847
929.953	11828
930.058	11589
930.163	11528
930.267	11501
930.372	11722
930.477	11543
930.581	11767
930.685	11585
930.79	11387
930.894	11372
930.998	11258
931.103	11573
931.207	11029
931.311	11045
931.415	10991
931.519	10835
931.623	10759
