Data from test_V78500241_1951.txt Node
Date: Fri Mar 25 15:23:26 CST 2022
User: usil
Spectrometer: V785-0024
Trigger mode: 0
Integration Time (sec): 4.000000E-1
Scans to average: 1
Nonlinearity correction enabled: false
Boxcar width: 0
Storing dark spectrum: false
XAxis mode: Wavelengths
Number of Pixels in Spectrum: 1024
>>>>>Begin Spectral Data<<<<<
801.071	27644
801.214	27755
801.356	27427
801.499	27378
801.641	27211
801.783	27142
801.926	27211
802.068	27298
802.211	27188
802.353	27112
802.496	26933
802.638	26811
802.78	26998
802.923	26796
803.065	26663
803.208	26788
803.35	26899
803.492	26944
803.635	27157
803.777	27009
803.919	27108
804.061	27363
804.204	27146
804.346	27013
804.488	27036
804.63	27032
804.773	26971
804.915	26925
805.057	27176
805.199	27104
805.341	27165
805.483	27279
805.626	27157
805.768	27146
805.91	27157
806.052	27207
806.194	27112
806.336	27272
806.478	27252
806.62	27199
806.762	27207
806.904	27363
807.046	27629
807.188	27671
807.33	27599
807.472	27625
807.614	27500
807.756	27648
807.898	27549
808.04	27526
808.182	27374
808.324	27466
808.465	27424
808.607	27720
808.749	27823
808.891	27869
809.033	27914
809.174	27850
809.316	27785
809.458	27789
809.6	27724
809.741	28048
809.883	28010
810.025	28090
810.166	28120
810.308	28131
810.45	28010
810.591	28078
810.733	27789
810.875	27831
811.016	27690
811.158	27690
811.299	27755
811.441	27800
811.582	27949
811.724	27717
811.865	27720
812.007	27732
812.148	27789
812.29	27808
812.431	27922
812.573	28082
812.714	28143
812.855	28398
812.997	28230
813.138	28481
813.279	28367
813.421	28367
813.562	28253
813.703	28128
813.845	28021
813.986	27766
814.127	27595
814.268	27378
814.41	27576
814.551	27408
814.692	27447
814.833	27325
814.974	27618
815.115	27526
815.256	27439
815.397	27389
815.539	27401
815.68	27294
815.821	27203
815.962	27157
816.103	27272
816.244	27150
816.385	26967
816.526	27036
816.666	26880
816.807	26716
816.948	26823
817.089	26743
817.23	26815
817.371	26811
817.512	26849
817.653	26743
817.793	26545
817.934	26868
818.075	26849
818.216	26834
818.356	26606
818.497	26724
818.638	26556
818.778	26473
818.919	26499
819.06	26598
819.2	26693
819.341	26800
819.481	26792
819.622	26902
819.762	27112
819.903	27005
820.043	26952
820.184	26952
820.324	26918
820.465	26940
820.605	26804
820.746	26864
820.886	26716
821.026	26906
821.167	26716
821.307	26956
821.447	26781
821.588	26587
821.728	26480
821.868	26434
822.008	26328
822.149	26183
822.289	26024
822.429	25986
822.569	25833
822.709	25917
822.849	25632
822.99	25674
823.13	25643
823.27	25639
823.41	25525
823.55	25525
823.69	25670
823.83	25616
823.97	25460
824.11	25445
824.25	25331
824.389	25388
824.529	25457
824.669	25388
824.809	25415
824.949	25537
825.089	25491
825.228	25350
825.368	25187
825.508	25209
825.648	25266
825.787	25335
825.927	25297
826.067	25046
826.206	25232
826.346	25236
826.485	25236
826.625	25274
826.765	25331
826.904	25285
827.044	24939
827.183	24973
827.323	24844
827.462	24916
827.601	25004
827.741	24977
827.88	25015
828.02	24753
828.159	24859
828.298	24996
828.437	25015
828.577	24840
828.716	25038
828.855	24840
828.994	24719
829.134	24654
829.273	24658
829.412	24616
829.551	24616
829.69	24563
829.829	24623
829.968	24688
830.107	24627
830.246	24585
830.385	24616
830.524	24426
830.663	24399
830.802	24551
830.941	24285
831.08	24243
831.219	24327
831.357	24399
831.496	24456
831.635	24277
831.774	24190
831.913	24197
832.051	24083
832.19	24171
832.329	23980
832.467	23965
832.606	23866
832.744	23855
832.883	23984
833.022	24011
833.16	23954
833.299	24003
833.437	23977
833.576	24034
833.714	24045
833.852	24018
833.991	24072
834.129	24011
834.267	24007
834.406	24022
834.544	24140
834.682	24072
834.821	23996
834.959	24114
835.097	23969
835.235	23984
835.373	23961
835.511	23977
835.65	23939
835.788	23779
835.926	23741
836.064	23630
836.202	23729
836.34	23764
836.478	24022
836.615	23908
836.753	23745
836.891	23840
837.029	23920
837.167	23882
837.305	23794
837.443	23748
837.58	23764
837.718	23707
837.856	23718
837.993	23676
838.131	23729
838.269	23501
838.406	23714
838.544	23497
838.681	23379
838.819	23299
838.956	23155
839.094	23041
839.231	23208
839.369	23410
839.506	23562
839.643	23421
839.781	23258
839.918	23117
840.055	23181
840.193	23075
840.33	23181
840.467	23174
840.604	23223
840.742	23353
840.879	23056
841.016	22984
841.153	22934
841.29	23143
841.427	23064
841.564	23086
841.701	23094
841.838	22953
841.975	22885
842.112	22984
842.249	22866
842.385	22702
842.522	23075
842.659	22949
842.796	22843
842.933	22892
843.069	22900
843.206	22900
843.343	22987
843.479	22809
843.616	22820
843.752	22561
843.889	22702
844.025	22607
844.162	22622
844.298	22729
844.435	22497
844.571	22573
844.708	22675
844.844	22774
844.98	22713
845.117	22641
845.253	22470
845.389	22523
845.525	22485
845.661	22443
845.798	22341
845.934	22402
846.07	22440
846.206	22249
846.342	22451
846.478	22390
846.614	22124
846.75	21994
846.886	22086
847.022	22166
847.158	22051
847.294	22006
847.429	22090
847.565	22078
847.701	22394
847.837	21835
847.972	21888
848.108	21880
848.244	21926
848.379	21717
848.515	21625
848.65	21713
848.786	21724
848.921	21770
849.057	21694
849.192	21800
849.328	21724
849.463	21705
849.598	21660
849.734	21549
849.869	21545
850.004	21397
850.14	21485
850.275	21412
850.41	21325
850.545	21431
850.68	21367
850.815	21530
850.95	21416
851.085	21568
851.22	21504
851.355	21450
851.49	21534
851.625	21382
851.76	21443
851.895	21378
852.03	21382
852.165	21408
852.299	21485
852.434	21523
852.569	21462
852.703	21454
852.838	21492
852.973	21633
853.107	21545
853.242	21340
853.376	21279
853.511	21135
853.645	21218
853.78	21389
853.914	21173
854.048	21329
854.183	21199
854.317	21241
854.451	21374
854.585	21150
854.72	21256
854.854	21367
854.988	21199
855.122	21203
855.256	21100
855.39	21256
855.524	21344
855.658	21332
855.792	21317
855.926	21294
856.06	21272
856.194	21313
856.327	21279
856.461	21207
856.595	21268
856.729	21116
856.862	21405
856.996	21192
857.13	21283
857.263	21393
857.397	21420
857.53	21272
857.664	21306
857.797	21275
857.931	21355
858.064	21287
858.197	21329
858.331	21272
858.464	21104
858.597	21165
858.731	21176
858.864	21116
858.997	21245
859.13	21279
859.263	21214
859.396	21241
859.529	21226
859.662	21119
859.795	21336
859.928	21199
860.061	21504
860.194	21443
860.327	21351
860.46	21260
860.592	21507
860.725	21370
860.858	21462
860.99	21298
861.123	21123
861.256	21195
861.388	21355
861.521	21972
861.653	21051
861.786	21089
861.918	21020
862.05	21138
862.183	21184
862.315	21154
862.447	21317
862.58	21199
862.712	21104
862.844	20986
862.976	21043
863.108	21074
863.24	21370
863.372	20872
863.504	20921
863.636	21039
863.768	21009
863.9	20994
864.032	20933
864.164	20914
864.296	20990
864.428	21039
864.559	21028
864.691	20971
864.823	20956
864.954	20971
865.086	20842
865.217	20887
865.349	20800
865.48	20807
865.612	20948
865.743	21009
865.875	20914
866.006	20883
866.137	20921
866.269	20910
866.4	20906
866.531	20689
866.662	20758
866.793	20811
866.924	20800
867.055	20800
867.186	20746
867.317	20731
867.448	20804
867.579	20792
867.71	20777
867.841	20735
867.972	20823
868.103	20826
868.233	20765
868.364	20746
868.495	20853
868.625	21020
868.756	21146
868.886	20971
869.017	21096
869.147	21138
869.278	21089
869.408	21154
869.539	21001
869.669	21165
869.799	20994
869.929	21096
870.06	21024
870.19	21325
870.32	21199
870.45	21321
870.58	21428
870.71	21500
870.84	21397
870.97	21275
871.1	21363
871.23	21523
871.36	21709
871.489	21557
871.619	21633
871.749	21648
871.879	21545
872.008	21732
872.138	21656
872.267	21534
872.397	21454
872.526	21450
872.656	21428
872.785	21428
872.915	21778
873.044	21770
873.173	21686
873.303	21671
873.432	21660
873.561	21854
873.69	21675
873.819	21633
873.948	21781
874.077	21656
874.206	21511
874.335	21701
874.464	21717
874.593	21915
874.722	21873
874.851	22002
874.979	21793
875.108	21953
875.237	21880
875.365	21766
875.494	21884
875.623	21930
875.751	21854
875.88	21907
876.008	22086
876.136	21987
876.265	22398
876.393	22249
876.521	22291
876.65	22360
876.778	22363
876.906	22284
877.034	22200
877.162	22188
877.29	22070
877.418	22162
877.546	22207
877.674	22196
877.802	22257
877.93	22291
878.058	22185
878.185	22055
878.313	22154
878.441	22185
878.568	22109
878.696	22139
878.824	22124
878.951	22284
879.079	22417
879.206	22565
879.333	22360
879.461	22341
879.588	22280
879.715	22375
879.842	22390
879.97	22234
880.097	22116
880.224	22021
880.351	22032
880.478	22048
880.605	22002
880.732	21994
880.859	22344
880.986	22105
881.112	21941
881.239	22010
881.366	21701
881.493	21701
881.619	21606
881.746	21679
881.872	21614
881.999	21595
882.125	21447
882.252	21629
882.378	21576
882.505	21572
882.631	21496
882.757	21420
882.883	21420
883.01	21393
883.136	21310
883.262	21203
883.388	21237
883.514	21321
883.64	21317
883.766	21199
883.892	21161
884.018	21104
884.143	21291
884.269	21222
884.395	21100
884.52	20819
884.646	20868
884.772	21001
884.897	20971
885.023	20895
885.148	21043
885.274	21127
885.399	21005
885.524	20925
885.65	20872
885.775	21032
885.9	20956
886.025	21100
886.15	20990
886.275	20937
886.4	20982
886.525	20925
886.65	20830
886.775	20819
886.9	21119
887.025	21169
887.149	20925
887.274	20785
887.399	20842
887.523	20804
887.648	20667
887.773	20667
887.897	20724
888.021	20853
888.146	20727
888.27	20857
888.395	20899
888.519	20857
888.643	20697
888.767	20864
888.891	20651
889.015	20571
889.139	20514
889.263	20511
889.387	20705
889.511	20697
889.635	20644
889.759	20446
889.883	20488
890.006	20556
890.13	20617
890.254	20427
890.377	20450
890.501	20324
890.624	20317
890.748	20412
890.871	20218
890.995	20191
891.118	20073
891.241	20176
891.364	20069
891.488	20225
891.611	20153
891.734	20126
891.857	20202
891.98	20092
892.103	20157
892.226	20161
892.349	20005
892.471	20016
892.594	20065
892.717	19982
892.839	19963
892.962	19921
893.085	20088
893.207	19982
893.33	19868
893.452	19890
893.575	20122
893.697	20001
893.819	20218
893.941	20161
894.064	20115
894.186	19982
894.308	19982
894.43	20043
894.552	20134
894.674	20119
894.796	19921
894.918	19982
895.04	20035
895.161	19928
895.283	20122
895.405	20005
895.526	19982
895.648	19986
895.769	20039
895.891	20092
896.012	20153
896.134	20073
896.255	20005
896.376	19925
896.498	19997
896.619	20176
896.74	20065
896.861	20088
896.982	20259
897.103	20457
897.224	20324
897.345	20191
897.466	20263
897.587	20092
897.708	20336
897.828	20298
897.949	20256
898.07	20081
898.19	20183
898.311	20301
898.431	20145
898.552	20214
898.672	20271
898.792	20301
898.913	20305
899.033	20202
899.153	20142
899.273	20035
899.393	19951
899.513	20027
899.633	20054
899.753	20027
899.873	20008
899.993	19944
900.113	19906
900.232	19978
900.352	19921
900.472	19906
900.591	19708
900.711	19708
900.83	19791
900.95	19811
901.069	19906
901.189	19674
901.308	19411
901.427	19335
901.546	19331
901.665	19388
901.784	19316
901.904	19179
902.023	19099
902.141	18958
902.26	18954
902.379	19015
902.498	18837
902.617	18776
902.735	18894
902.854	18798
902.973	18764
903.091	18506
903.21	18483
903.328	18536
903.446	18414
903.565	18346
903.683	18418
903.801	18224
903.919	18239
904.038	18346
904.156	18098
904.274	18220
904.392	18117
904.51	18091
904.627	18140
904.745	18106
904.863	18114
904.981	17946
905.098	17817
905.216	17726
905.334	17794
905.451	17817
905.569	17729
905.686	17809
905.803	17752
905.921	17611
906.038	17707
906.155	17657
906.272	17520
906.389	17619
906.506	17414
906.623	17379
906.74	17360
906.857	17166
906.974	17242
907.091	17387
907.208	17474
907.324	17364
907.441	17250
907.557	17079
907.674	17143
907.79	17006
907.907	17052
908.023	16987
908.139	16972
908.256	16934
908.372	16999
908.488	16949
908.604	16812
908.72	16691
908.836	16687
908.952	16744
909.068	16828
909.184	16896
909.3	16706
909.415	16729
909.531	16805
909.647	16508
909.762	16413
909.878	16508
909.993	16470
910.108	16512
910.224	16352
910.339	16451
910.454	16299
910.57	16234
910.685	16169
910.8	16428
910.915	16295
911.03	16234
911.145	15987
911.259	16040
911.374	16093
911.489	15960
911.604	15915
911.718	15724
911.833	15876
911.947	15694
912.062	15553
912.176	15816
912.291	15762
912.405	15694
912.519	15869
912.633	16013
912.748	15831
912.862	15838
912.976	15622
913.09	15599
913.204	15572
913.318	15584
913.431	15682
913.545	15641
913.659	15694
913.772	15553
913.886	15439
914	15393
914.113	15542
914.226	15507
914.34	15500
914.453	15298
914.566	15412
914.68	15336
914.793	15188
914.906	14990
915.019	15032
915.132	14960
915.245	15036
915.358	15070
915.47	15058
915.583	15028
915.696	15119
915.809	15131
915.921	15161
916.034	14910
916.146	14986
916.259	14902
916.371	14975
916.483	15047
916.595	14830
916.708	14838
916.82	14872
916.932	14678
917.044	14731
917.156	14727
917.268	14678
917.38	14735
917.491	14682
917.603	14667
917.715	14743
917.826	14735
917.938	14674
918.049	14594
918.161	14610
918.272	14708
918.384	14731
918.495	14518
918.606	14446
918.717	14366
918.828	14446
918.939	14434
919.05	14366
919.161	14374
919.272	14347
919.383	14339
919.494	14488
919.604	14587
919.715	14495
919.826	14301
919.936	14309
920.047	14545
920.157	14488
920.267	14556
920.378	14473
920.488	14343
920.598	14492
920.708	14750
920.818	14606
920.928	14514
921.038	14678
921.148	14617
921.258	14343
921.368	14244
921.477	14103
921.587	14214
921.697	13982
921.806	14138
921.916	14027
922.025	13822
922.134	13799
922.244	13734
922.353	13761
922.462	13655
922.571	13548
922.68	13480
922.789	13464
922.898	13438
923.007	13346
923.116	13445
923.224	13400
923.333	13434
923.442	13301
923.55	13198
923.659	13331
923.767	13373
923.876	13190
923.984	13320
924.092	13152
924.201	13179
924.309	13145
924.417	13183
924.525	13133
924.633	13107
924.741	13909
924.849	12890
924.956	13038
925.064	12935
925.172	12779
925.279	12753
925.387	12875
925.494	12795
925.602	12985
925.709	12871
925.816	12681
925.924	12772
926.031	12787
926.138	12817
926.245	12787
926.352	12658
926.459	12871
926.566	12859
926.673	12760
926.779	12494
926.886	12673
926.993	12388
927.099	12464
927.206	12429
927.312	12372
927.419	12369
927.525	12479
927.631	12486
927.737	12388
927.843	12220
927.95	12159
928.056	12197
928.162	12266
928.267	12311
928.373	12760
928.479	12418
928.585	12083
928.69	12186
928.796	12228
928.901	12148
929.007	11931
929.112	12068
929.218	12011
929.323	12022
929.428	12030
929.533	12098
929.638	11889
929.743	11935
929.848	11916
929.953	11961
930.058	11794
930.163	11684
930.267	11665
930.372	11851
930.477	11589
930.581	11836
930.685	11748
930.79	11566
930.894	11604
930.998	11562
931.103	11627
931.207	11406
931.311	11242
931.415	11166
931.519	10987
931.623	10976
