Data from test_V78500241_2453.txt Node
Date: Fri Mar 25 15:26:56 CST 2022
User: usil
Spectrometer: V785-0024
Trigger mode: 0
Integration Time (sec): 4.000000E-1
Scans to average: 1
Nonlinearity correction enabled: false
Boxcar width: 0
Storing dark spectrum: false
XAxis mode: Wavelengths
Number of Pixels in Spectrum: 1024
>>>>>Begin Spectral Data<<<<<
801.071	26998
801.214	26925
801.356	26773
801.499	26701
801.641	26453
801.783	26571
801.926	26522
802.068	26495
802.211	26488
802.353	26453
802.496	26191
802.638	26081
802.78	26107
802.923	25959
803.065	26172
803.208	26043
803.35	26263
803.492	26225
803.635	26157
803.777	26263
803.919	26370
804.061	26606
804.204	26396
804.346	26294
804.488	26240
804.63	26313
804.773	26214
804.915	26343
805.057	26381
805.199	26225
805.341	26556
805.483	26427
805.626	26495
805.768	26313
805.91	26313
806.052	26495
806.194	26351
806.336	26533
806.478	26355
806.62	26545
806.762	26389
806.904	26651
807.046	26929
807.188	26708
807.33	26739
807.472	26971
807.614	26720
807.756	26807
807.898	26720
808.04	26686
808.182	26556
808.324	26621
808.465	26746
808.607	26853
808.749	26944
808.891	26967
809.033	27195
809.174	27024
809.316	26834
809.458	26963
809.6	26948
809.741	27047
809.883	27154
810.025	27188
810.166	27070
810.308	27226
810.45	27222
810.591	27116
810.733	27024
810.875	26925
811.016	26861
811.158	26743
811.299	27089
811.441	27036
811.582	27074
811.724	27013
811.865	26918
812.007	26883
812.148	26880
812.29	26982
812.431	27074
812.573	27279
812.714	27427
812.855	27496
812.997	27542
813.138	27603
813.279	27538
813.421	27504
813.562	27355
813.703	27306
813.845	27146
813.986	26937
814.127	26754
814.268	26682
814.41	26655
814.551	26514
814.692	26731
814.833	26659
814.974	26731
815.115	26670
815.256	26526
815.397	26492
815.539	26438
815.68	26381
815.821	26419
815.962	26457
816.103	26305
816.244	26244
816.385	26199
816.526	26069
816.666	26088
816.807	26016
816.948	25814
817.089	26081
817.23	25974
817.371	25906
817.512	25826
817.653	25947
817.793	25849
817.934	25925
818.075	25951
818.216	25902
818.356	25784
818.497	25582
818.638	25639
818.778	25597
818.919	25575
819.06	25772
819.2	25761
819.341	25784
819.481	25856
819.622	26065
819.762	26142
819.903	26126
820.043	26073
820.184	26043
820.324	26043
820.465	26081
820.605	25925
820.746	25966
820.886	25894
821.026	26008
821.167	25845
821.307	26126
821.447	25841
821.588	25826
821.728	25643
821.868	25464
822.008	25422
822.149	25392
822.289	25209
822.429	25103
822.569	25091
822.709	25129
822.849	24973
822.99	24844
823.13	24924
823.27	24867
823.41	24764
823.55	24661
823.69	24544
823.83	24627
823.97	24597
824.11	24661
824.25	24437
824.389	24490
824.529	24707
824.669	24486
824.809	24593
824.949	24688
825.089	24513
825.228	24494
825.368	24369
825.508	24342
825.648	24407
825.787	24388
825.927	24395
826.067	24315
826.206	24270
826.346	24452
826.485	24467
826.625	24357
826.765	24547
826.904	24532
827.044	24038
827.183	24098
827.323	24072
827.462	24171
827.601	24121
827.741	24098
827.88	24106
828.02	23999
828.159	24034
828.298	24140
828.437	24015
828.577	23999
828.716	24053
828.855	24015
828.994	23798
829.134	23783
829.273	23779
829.412	23901
829.551	23684
829.69	23798
829.829	23828
829.968	23748
830.107	23817
830.246	23805
830.385	23786
830.524	23726
830.663	23638
830.802	23417
830.941	23501
831.08	23474
831.219	23512
831.357	23425
831.496	23562
831.635	23440
831.774	23395
831.913	23296
832.051	23204
832.19	23147
832.329	23220
832.467	23159
832.606	23067
832.744	23056
832.883	23067
833.022	23117
833.16	23143
833.299	23170
833.437	23147
833.576	23193
833.714	23178
833.852	23166
833.991	23246
834.129	23109
834.267	23124
834.406	23261
834.544	23280
834.682	23269
834.821	23064
834.959	23364
835.097	23079
835.235	23132
835.373	23117
835.511	23197
835.65	23018
835.788	22854
835.926	22984
836.064	22839
836.202	22854
836.34	22984
836.478	23056
836.615	22957
836.753	23006
836.891	22972
837.029	23060
837.167	23029
837.305	22946
837.443	22889
837.58	22984
837.718	22904
837.856	23044
837.993	22816
838.131	22828
838.269	22774
838.406	22850
838.544	22634
838.681	22489
838.819	22523
838.956	22325
839.094	22257
839.231	22322
839.369	22440
839.506	22672
839.643	22554
839.781	22287
839.918	22325
840.055	22344
840.193	22344
840.33	22314
840.467	22344
840.604	22238
840.742	22527
840.879	22207
841.016	22181
841.153	22192
841.29	22261
841.427	22097
841.564	22158
841.701	22249
841.838	22207
841.975	22188
842.112	22234
842.249	21975
842.385	22059
842.522	22238
842.659	22158
842.796	22124
842.933	21979
843.069	22017
843.206	22128
843.343	22063
843.479	22032
843.616	22063
843.752	21857
843.889	21945
844.025	22017
844.162	21816
844.298	21884
844.435	21941
844.571	21770
844.708	21781
844.844	22032
844.98	21884
845.117	21770
845.253	21766
845.389	21686
845.525	21724
845.661	21713
845.798	21549
845.934	21682
846.07	21511
846.206	21534
846.342	21587
846.478	21606
846.614	21416
846.75	21119
846.886	21123
847.022	21336
847.158	21294
847.294	21268
847.429	21279
847.565	21165
847.701	21572
847.837	21005
847.972	20990
848.108	21096
848.244	21161
848.379	20834
848.515	20857
848.65	20880
848.786	20902
848.921	20868
849.057	20929
849.192	20933
849.328	20845
849.463	20807
849.598	20807
849.734	20819
849.869	20788
850.004	20769
850.14	20598
850.275	20609
850.41	20640
850.545	20632
850.68	20686
850.815	20579
850.95	20632
851.085	20921
851.22	20785
851.355	20739
851.49	20629
851.625	20609
851.76	20511
851.895	20454
852.03	20602
852.165	20701
852.299	20678
852.434	20667
852.569	20625
852.703	20636
852.838	20686
852.973	20754
853.107	20750
853.242	20590
853.376	20522
853.511	20347
853.645	20385
853.78	20598
853.914	20431
854.048	20434
854.183	20571
854.317	20446
854.451	20598
854.585	20594
854.72	20427
854.854	20568
854.988	20385
855.122	20511
855.256	20355
855.39	20381
855.524	20530
855.658	20492
855.792	20552
855.926	20549
856.06	20659
856.194	20526
856.327	20476
856.461	20442
856.595	20374
856.729	20511
856.862	20438
856.996	20625
857.13	20469
857.263	20469
857.397	20598
857.53	20480
857.664	20526
857.797	20522
857.931	20571
858.064	20541
858.197	20484
858.331	20473
858.464	20290
858.597	20484
858.731	20446
858.864	20434
858.997	20385
859.13	20377
859.263	20526
859.396	20434
859.529	20358
859.662	20465
859.795	20419
859.928	20541
860.061	20537
860.194	20644
860.327	20549
860.46	20423
860.592	20583
860.725	20507
860.858	20606
860.99	20575
861.123	20351
861.256	20415
861.388	20427
861.521	21070
861.653	20298
861.786	20195
861.918	20259
862.05	20377
862.183	20339
862.315	20450
862.447	20412
862.58	20469
862.712	20130
862.844	20157
862.976	20191
863.108	20309
863.24	20583
863.372	20153
863.504	20225
863.636	20195
863.768	20195
863.9	20259
864.032	19993
864.164	20138
864.296	20225
864.428	20313
864.559	20278
864.691	20240
864.823	20237
864.954	20202
865.086	20210
865.217	20103
865.349	19982
865.48	20088
865.612	20088
865.743	20210
865.875	20214
866.006	20054
866.137	20050
866.269	20020
866.4	20115
866.531	19959
866.662	20039
866.793	20005
866.924	19978
867.055	20050
867.186	20012
867.317	19986
867.448	20035
867.579	19940
867.71	19913
867.841	19970
867.972	20069
868.103	20024
868.233	19940
868.364	19925
868.495	20180
868.625	20336
868.756	20290
868.886	20164
869.017	20138
869.147	20370
869.278	20355
869.408	20256
869.539	20275
869.669	20324
869.799	20362
869.929	20400
870.06	20423
870.19	20587
870.32	20469
870.45	20503
870.58	20632
870.71	20823
870.84	20781
870.97	20796
871.1	20697
871.23	20880
871.36	20834
871.489	20804
871.619	20933
871.749	20857
871.879	20948
872.008	21001
872.138	20918
872.267	20861
872.397	20693
872.526	20708
872.656	20762
872.785	20773
872.915	20830
873.044	21013
873.173	20963
873.303	20921
873.432	20891
873.561	20990
873.69	20925
873.819	20899
873.948	20998
874.077	20982
874.206	20880
874.335	20990
874.464	21039
874.593	21066
874.722	21119
874.851	21218
874.979	21165
875.108	21211
875.237	21070
875.365	20963
875.494	20975
875.623	21074
875.751	21157
875.88	21317
876.008	21256
876.136	21355
876.265	21458
876.393	21675
876.521	21671
876.65	21644
876.778	21557
876.906	21511
877.034	21500
877.162	21660
877.29	21485
877.418	21534
877.546	21462
877.674	21439
877.802	21488
877.93	21485
878.058	21431
878.185	21401
878.313	21473
878.441	21477
878.568	21321
878.696	21386
878.824	21447
878.951	21568
879.079	21671
879.206	21911
879.333	21671
879.461	21576
879.588	21622
879.715	21759
879.842	21823
879.97	21591
880.097	21310
880.224	21287
880.351	21329
880.478	21348
880.605	21317
880.732	21363
880.859	21595
880.986	21393
881.112	21298
881.239	21150
881.366	21066
881.493	20933
881.619	20902
881.746	20868
881.872	20887
881.999	20849
882.125	20781
882.252	20887
882.378	20899
882.505	21074
882.631	20868
882.757	20697
882.883	20674
883.01	20663
883.136	20495
883.262	20488
883.388	20492
883.514	20689
883.64	20697
883.766	20526
883.892	20469
884.018	20530
884.143	20560
884.269	20663
884.395	20320
884.52	20336
884.646	20237
884.772	20252
884.897	20157
885.023	20320
885.148	20423
885.274	20492
885.399	20438
885.524	20218
885.65	20374
885.775	20328
885.9	20176
886.025	20400
886.15	20381
886.275	20237
886.4	20240
886.525	20263
886.65	20191
886.775	20240
886.9	20343
887.025	20381
887.149	20339
887.274	20027
887.399	19989
887.523	20027
887.648	20039
887.773	19890
887.897	20092
888.021	20214
888.146	19986
888.27	20149
888.395	20191
888.519	20126
888.643	20073
888.767	20077
888.891	19928
889.015	19852
889.139	19826
889.263	19894
889.387	19974
889.511	19970
889.635	19951
889.759	19807
889.883	19826
890.006	19799
890.13	19849
890.254	19757
890.377	19803
890.501	19674
890.624	19616
890.748	19700
890.871	19651
890.995	19339
891.118	19464
891.241	19373
891.364	19438
891.488	19548
891.611	19392
891.734	19529
891.857	19487
891.98	19449
892.103	19487
892.226	19449
892.349	19369
892.471	19335
892.594	19499
892.717	19460
892.839	19198
892.962	19255
893.085	19487
893.207	19369
893.33	19228
893.452	19274
893.575	19293
893.697	19247
893.819	19411
893.941	19510
894.064	19525
894.186	19346
894.308	19266
894.43	19350
894.552	19537
894.674	19449
894.796	19190
894.918	19476
895.04	19225
895.161	19476
895.283	19388
895.405	19335
895.526	19285
895.648	19396
895.769	19312
895.891	19350
896.012	19449
896.134	19430
896.255	19445
896.376	19350
896.498	19460
896.619	19362
896.74	19434
896.861	19438
896.982	19738
897.103	19822
897.224	19578
897.345	19563
897.466	19518
897.587	19632
897.708	19712
897.828	19635
897.949	19635
898.07	19483
898.19	19613
898.311	19670
898.431	19556
898.552	19567
898.672	19689
898.792	19655
898.913	19704
899.033	19514
899.153	19354
899.273	19331
899.393	19369
899.513	19282
899.633	19308
899.753	19297
899.873	19221
899.993	19487
900.113	19304
900.232	19373
900.352	19282
900.472	19145
900.591	19202
900.711	19171
900.83	19084
900.95	19228
901.069	19133
901.189	19076
901.308	18890
901.427	18753
901.546	18734
901.665	18779
901.784	18711
901.904	18540
902.023	18517
902.141	18350
902.26	18342
902.379	18380
902.498	18281
902.617	18239
902.735	18281
902.854	18194
902.973	18129
903.091	18057
903.21	17889
903.328	18053
903.446	17920
903.565	17794
903.683	17760
903.801	17623
903.919	17767
904.038	17634
904.156	17623
904.274	17634
904.392	17623
904.51	17455
904.627	17543
904.745	17623
904.863	17589
904.981	17303
905.098	17299
905.216	17330
905.334	17254
905.451	17121
905.569	17181
905.686	17178
905.803	17200
905.921	16934
906.038	17010
906.155	17022
906.272	16831
906.389	16957
906.506	16733
906.623	16752
906.74	16721
906.857	16694
906.974	16626
907.091	16786
907.208	16854
907.324	16790
907.441	16550
907.557	16497
907.674	16432
907.79	16356
907.907	16447
908.023	16500
908.139	16409
908.256	16462
908.372	16436
908.488	16204
908.604	16291
908.72	16185
908.836	16223
908.952	16242
909.068	16242
909.184	16287
909.3	16150
909.415	16154
909.531	16284
909.647	15983
909.762	15827
909.878	15915
909.993	15979
910.108	15922
910.224	15838
910.339	15819
910.454	15800
910.57	15759
910.685	15648
910.8	15953
910.915	15865
911.03	15728
911.145	15576
911.259	15538
911.374	15549
911.489	15519
911.604	15310
911.718	15298
911.833	15340
911.947	15146
912.062	15112
912.176	15249
912.291	15249
912.405	15256
912.519	15374
912.633	15355
912.748	15233
912.862	15230
912.976	15161
913.09	14895
913.204	15043
913.318	15142
913.431	15176
913.545	15108
913.659	15146
913.772	15043
913.886	15009
914	14868
914.113	14975
914.226	15047
914.34	14982
914.453	14811
914.566	14921
914.68	14804
914.793	14735
914.906	14613
915.019	14571
915.132	14419
915.245	14606
915.358	14522
915.47	14590
915.583	14526
915.696	14568
915.809	14575
915.921	14686
916.034	14454
916.146	14408
916.259	14336
916.371	14499
916.483	14518
916.595	14374
916.708	14396
916.82	14362
916.932	14393
917.044	14218
917.156	14275
917.268	14134
917.38	14263
917.491	14138
917.603	14244
917.715	14267
917.826	14301
917.938	14096
918.049	14069
918.161	14157
918.272	14206
918.384	14149
918.495	14176
918.606	13997
918.717	13955
918.828	13997
918.939	13993
919.05	13944
919.161	13967
919.272	13795
919.383	13795
919.494	14024
919.604	14218
919.715	13986
919.826	13849
919.936	13849
920.047	14016
920.157	13940
920.267	14039
920.378	14001
920.488	13921
920.598	14031
920.708	14233
920.818	14039
920.928	14065
921.038	14123
921.148	14191
921.258	13928
921.368	13799
921.477	13677
921.587	13643
921.697	13559
921.806	13734
921.916	13616
922.025	13396
922.134	13304
922.244	13278
922.353	13419
922.462	13232
922.571	13107
922.68	13012
922.789	13023
922.898	12973
923.007	12989
923.116	12958
923.224	12985
923.333	13042
923.442	12806
923.55	12764
923.659	12859
923.767	12966
923.876	12757
923.984	12901
924.092	12631
924.201	12772
924.309	12779
924.417	12764
924.525	12650
924.633	12623
924.741	13620
924.849	12517
924.956	12620
925.064	12479
925.172	12384
925.279	12464
925.387	12422
925.494	12563
925.602	12597
925.709	12555
925.816	12437
925.924	12464
926.031	12479
926.138	12437
926.245	12460
926.352	12319
926.459	12403
926.566	12456
926.673	12315
926.779	12159
926.886	12232
926.993	12053
927.099	12030
927.206	12011
927.312	12019
927.419	12095
927.525	11946
927.631	11996
927.737	11969
927.843	11939
927.95	11752
928.056	11767
928.162	11870
928.267	11866
928.373	12639
928.479	11908
928.585	11745
928.69	11809
928.796	11771
928.901	11756
929.007	11627
929.112	11760
929.218	11760
929.323	11627
929.428	11615
929.533	11672
929.638	11547
929.743	11570
929.848	11570
929.953	11505
930.058	11444
930.163	11254
930.267	11330
930.372	11463
930.477	11334
930.581	11493
930.685	11307
930.79	11193
930.894	11204
930.998	11140
931.103	11311
931.207	10961
931.311	10908
931.415	10683
931.519	10611
931.623	10626
