Data from test_V78500241_1789.txt Node
Date: Fri Mar 25 15:22:18 CST 2022
User: usil
Spectrometer: V785-0024
Trigger mode: 0
Integration Time (sec): 4.000000E-1
Scans to average: 1
Nonlinearity correction enabled: false
Boxcar width: 0
Storing dark spectrum: false
XAxis mode: Wavelengths
Number of Pixels in Spectrum: 1024
>>>>>Begin Spectral Data<<<<<
801.071	27698
801.214	27766
801.356	27458
801.499	27504
801.641	27302
801.783	27382
801.926	27298
802.068	27389
802.211	27218
802.353	27203
802.496	26952
802.638	26986
802.78	27142
802.923	26921
803.065	26937
803.208	26861
803.35	26960
803.492	27226
803.635	27093
803.777	27013
803.919	27195
804.061	27515
804.204	27291
804.346	27127
804.488	27135
804.63	27249
804.773	27154
804.915	27245
805.057	27317
805.199	27157
805.341	27203
805.483	27325
805.626	27298
805.768	27169
805.91	27233
806.052	27180
806.194	27268
806.336	27549
806.478	27332
806.62	27275
806.762	27416
806.904	27447
807.046	27804
807.188	27819
807.33	27720
807.472	27861
807.614	27690
807.756	27682
807.898	27576
808.04	27545
808.182	27599
808.324	27618
808.465	27614
808.607	27861
808.749	27926
808.891	27979
809.033	27979
809.174	27945
809.316	27850
809.458	27766
809.6	27838
809.741	27983
809.883	28044
810.025	28188
810.166	28200
810.308	28169
810.45	28135
810.591	28021
810.733	27922
810.875	27945
811.016	27804
811.158	27793
811.299	27945
811.441	27968
811.582	28086
811.724	27914
811.865	27857
812.007	27781
812.148	27857
812.29	27926
812.431	28139
812.573	28306
812.714	28341
812.855	28493
812.997	28432
813.138	28713
813.279	28653
813.421	28356
813.562	28504
813.703	28135
813.845	28074
813.986	27922
814.127	27804
814.268	27713
814.41	27564
814.551	27450
814.692	27690
814.833	27606
814.974	27500
815.115	27591
815.256	27439
815.397	27599
815.539	27591
815.68	27542
815.821	27427
815.962	27378
816.103	27310
816.244	27085
816.385	27169
816.526	27188
816.666	26975
816.807	26864
816.948	26940
817.089	27020
817.23	26838
817.371	26724
817.512	26895
817.653	26857
817.793	26796
817.934	26811
818.075	26895
818.216	26906
818.356	26887
818.497	26769
818.638	26590
818.778	26609
818.919	26469
819.06	26667
819.2	26693
819.341	26872
819.481	26895
819.622	27009
819.762	27317
819.903	27074
820.043	27112
820.184	27036
820.324	26921
820.465	27104
820.605	26933
820.746	27017
820.886	26781
821.026	26906
821.167	27028
821.307	27017
821.447	26948
821.588	26716
821.728	26735
821.868	26533
822.008	26427
822.149	26381
822.289	26336
822.429	26122
822.569	26054
822.709	25963
822.849	25811
822.99	25887
823.13	25841
823.27	25685
823.41	25696
823.55	25628
823.69	25753
823.83	25681
823.97	25616
824.11	25426
824.25	25411
824.389	25514
824.529	25723
824.669	25499
824.809	25632
824.949	25689
825.089	25464
825.228	25537
825.368	25293
825.508	25388
825.648	25304
825.787	25438
825.927	25552
826.067	25327
826.206	25434
826.346	25346
826.485	25407
826.625	25285
826.765	25449
826.904	25396
827.044	25213
827.183	25179
827.323	25095
827.462	25228
827.601	25046
827.741	25107
827.88	25247
828.02	24882
828.159	25091
828.298	25103
828.437	25251
828.577	25110
828.716	25209
828.855	25061
828.994	24825
829.134	24829
829.273	24935
829.412	24772
829.551	24768
829.69	24833
829.829	24798
829.968	24947
830.107	24882
830.246	24829
830.385	24707
830.524	24715
830.663	24646
830.802	24650
830.941	24353
831.08	24460
831.219	24429
831.357	24437
831.496	24760
831.635	24437
831.774	24338
831.913	24380
832.051	24201
832.19	24197
832.329	24292
832.467	24110
832.606	23969
832.744	23973
832.883	24152
833.022	23935
833.16	23954
833.299	24034
833.437	24060
833.576	24247
833.714	24243
833.852	24224
833.991	24205
834.129	24285
834.267	24254
834.406	24136
834.544	24186
834.682	24201
834.821	24114
834.959	24292
835.097	24144
835.235	24133
835.373	24159
835.511	24125
835.65	24038
835.788	24083
835.926	23813
836.064	23756
836.202	23859
836.34	24060
836.478	24045
836.615	23832
836.753	24087
836.891	24174
837.029	24091
837.167	23836
837.305	23885
837.443	23954
837.58	23874
837.718	23904
837.856	23847
837.993	23672
838.131	23908
838.269	23718
838.406	23779
838.544	23710
838.681	23490
838.819	23486
838.956	23376
839.094	23235
839.231	23551
839.369	23551
839.506	23760
839.643	23551
839.781	23406
839.918	23204
840.055	23391
840.193	23360
840.33	23296
840.467	23307
840.604	23265
840.742	23520
840.879	23170
841.016	23193
841.153	23159
841.29	23277
841.427	23223
841.564	23239
841.701	23204
841.838	23166
841.975	23189
842.112	23102
842.249	23143
842.385	23041
842.522	23227
842.659	23048
842.796	22965
842.933	23071
843.069	22957
843.206	22915
843.343	22968
843.479	23014
843.616	23067
843.752	22828
843.889	22740
844.025	22923
844.162	22660
844.298	22957
844.435	22752
844.571	22801
844.708	22809
844.844	22957
844.98	22976
845.117	22908
845.253	22637
845.389	22672
845.525	22752
845.661	22733
845.798	22538
845.934	22649
846.07	22436
846.206	22478
846.342	22626
846.478	22402
846.614	22455
846.75	22306
846.886	22322
847.022	22299
847.158	22223
847.294	22215
847.429	22272
847.565	22223
847.701	22478
847.837	21994
847.972	21865
848.108	22109
848.244	22181
848.379	21949
848.515	21709
848.65	21835
848.786	21709
848.921	21850
849.057	21861
849.192	22017
849.328	21934
849.463	21930
849.598	21785
849.734	21861
849.869	21663
850.004	21713
850.14	21614
850.275	21610
850.41	21587
850.545	21526
850.68	21625
850.815	21572
850.95	21496
851.085	21857
851.22	21675
851.355	21583
851.49	21698
851.625	21580
851.76	21542
851.895	21488
852.03	21580
852.165	21610
852.299	21633
852.434	21675
852.569	21618
852.703	21591
852.838	21717
852.973	21728
853.107	21618
853.242	21492
853.376	21382
853.511	21439
853.645	21401
853.78	21374
853.914	21469
854.048	21386
854.183	21424
854.317	21481
854.451	21606
854.585	21481
854.72	21439
854.854	21526
854.988	21332
855.122	21443
855.256	21287
855.39	21340
855.524	21530
855.658	21564
855.792	21473
855.926	21431
856.06	21485
856.194	21405
856.327	21386
856.461	21313
856.595	21405
856.729	21367
856.862	21656
856.996	21428
857.13	21530
857.263	21496
857.397	21488
857.53	21264
857.664	21450
857.797	21542
857.931	21606
858.064	21435
858.197	21477
858.331	21530
858.464	21302
858.597	21321
858.731	21496
858.864	21397
858.997	21340
859.13	21344
859.263	21431
859.396	21557
859.529	21401
859.662	21317
859.795	21310
859.928	21443
860.061	21538
860.194	21705
860.327	21389
860.46	21481
860.592	21603
860.725	21557
860.858	21603
860.99	21302
861.123	21401
861.256	21260
861.388	21458
861.521	21979
861.653	21294
861.786	21249
861.918	21294
862.05	21313
862.183	21401
862.315	21382
862.447	21329
862.58	21386
862.712	21127
862.844	21043
862.976	21260
863.108	21199
863.24	21504
863.372	21058
863.504	21150
863.636	21207
863.768	21051
863.9	21230
864.032	21096
864.164	21001
864.296	21226
864.428	21245
864.559	21195
864.691	21184
864.823	21173
864.954	21077
865.086	21176
865.217	21165
865.349	20967
865.48	20925
865.612	21047
865.743	21214
865.875	21058
866.006	21081
866.137	20986
866.269	21085
866.4	21085
866.531	20937
866.662	20887
866.793	20948
866.924	20956
867.055	20883
867.186	20990
867.317	20921
867.448	20804
867.579	20849
867.71	20921
867.841	20758
867.972	21123
868.103	20963
868.233	20883
868.364	21005
868.495	21036
868.625	21252
868.756	21458
868.886	21100
869.017	21150
869.147	21401
869.278	21291
869.408	21256
869.539	21150
869.669	21169
869.799	21203
869.929	21325
870.06	21378
870.19	21462
870.32	21580
870.45	21462
870.58	21610
870.71	21614
870.84	21709
870.97	21603
871.1	21648
871.23	21747
871.36	21827
871.489	21682
871.619	21800
871.749	21827
871.879	21827
872.008	21907
872.138	21713
872.267	21778
872.397	21595
872.526	21690
872.656	21682
872.785	21603
872.915	21835
873.044	21922
873.173	21846
873.303	21846
873.432	21842
873.561	21857
873.69	21903
873.819	21892
873.948	21831
874.077	21869
874.206	21785
874.335	21816
874.464	21873
874.593	21937
874.722	22059
874.851	22021
874.979	22067
875.108	22090
875.237	22044
875.365	22021
875.494	22070
875.623	22112
875.751	22086
875.88	21998
876.008	22200
876.136	22169
876.265	22474
876.393	22523
876.521	22481
876.65	22489
876.778	22447
876.906	22360
877.034	22356
877.162	22405
877.29	22242
877.418	22546
877.546	22409
877.674	22299
877.802	22356
877.93	22424
878.058	22249
878.185	22169
878.313	22432
878.441	22333
878.568	22215
878.696	22246
878.824	22459
878.951	22394
879.079	22531
879.206	22664
879.333	22531
879.461	22413
879.588	22382
879.715	22474
879.842	22668
879.97	22348
880.097	22234
880.224	22204
880.351	22379
880.478	22207
880.605	22173
880.732	22257
880.859	22356
880.986	22196
881.112	22147
881.239	22067
881.366	22010
881.493	21941
881.619	21755
881.746	21861
881.872	21838
881.999	21732
882.125	21762
882.252	21812
882.378	21709
882.505	21934
882.631	21705
882.757	21458
882.883	21526
883.01	21496
883.136	21351
883.262	21374
883.388	21287
883.514	21469
883.64	21405
883.766	21428
883.892	21283
884.018	21344
884.143	21454
884.269	21447
884.395	21249
884.52	21218
884.646	21154
884.772	21138
884.897	21131
885.023	21055
885.148	21256
885.274	21218
885.399	21199
885.524	21131
885.65	21142
885.775	21150
885.9	21150
886.025	21256
886.15	21199
886.275	21089
886.4	21093
886.525	20994
886.65	20941
886.775	21096
886.9	21294
887.025	21355
887.149	21173
887.274	20990
887.399	20960
887.523	20956
887.648	20857
887.773	20929
887.897	20952
888.021	20902
888.146	20743
888.27	20986
888.395	21032
888.519	20921
888.643	20902
888.767	20906
888.891	20826
889.015	20693
889.139	20785
889.263	20625
889.387	20857
889.511	20861
889.635	20853
889.759	20648
889.883	20632
890.006	20648
890.13	20849
890.254	20625
890.377	20594
890.501	20514
890.624	20526
890.748	20522
890.871	20317
890.995	20233
891.118	20187
891.241	20244
891.364	20267
891.488	20400
891.611	20400
891.734	20256
891.857	20332
891.98	20358
892.103	20339
892.226	20233
892.349	20248
892.471	20111
892.594	20172
892.717	20286
892.839	20096
892.962	20008
893.085	20134
893.207	20130
893.33	19963
893.452	20096
893.575	20157
893.697	20111
893.819	20377
893.941	20370
894.064	20320
894.186	20084
894.308	20065
894.43	20400
894.552	20381
894.674	20240
894.796	20084
894.918	20157
895.04	20111
895.161	20142
895.283	20202
895.405	20088
895.526	20191
895.648	20164
895.769	20107
895.891	20176
896.012	20358
896.134	20199
896.255	20191
896.376	20138
896.498	20100
896.619	20256
896.74	20130
896.861	20214
896.982	20465
897.103	20533
897.224	20408
897.345	20473
897.466	20240
897.587	20332
897.708	20518
897.828	20374
897.949	20244
898.07	20199
898.19	20244
898.311	20393
898.431	20275
898.552	20332
898.672	20499
898.792	20343
898.913	20366
899.033	20221
899.153	20233
899.273	20138
899.393	20065
899.513	20218
899.633	20130
899.753	20027
899.873	20096
899.993	20096
900.113	19928
900.232	20081
900.352	20031
900.472	19967
900.591	19890
900.711	19811
900.83	19693
900.95	19917
901.069	19909
901.189	19860
901.308	19620
901.427	19548
901.546	19529
901.665	19445
901.784	19350
901.904	19221
902.023	19183
902.141	18932
902.26	18932
902.379	19110
902.498	19061
902.617	18932
902.735	18882
902.854	18882
902.973	18859
903.091	18772
903.21	18665
903.328	18604
903.446	18612
903.565	18509
903.683	18426
903.801	18399
903.919	18498
904.038	18285
904.156	18209
904.274	18369
904.392	18194
904.51	18258
904.627	18144
904.745	18254
904.863	18224
904.981	18068
905.098	17859
905.216	17908
905.334	17889
905.451	17965
905.569	17847
905.686	17908
905.803	17950
905.921	17714
906.038	17916
906.155	17756
906.272	17562
906.389	17608
906.506	17463
906.623	17467
906.74	17452
906.857	17318
906.974	17273
907.091	17368
907.208	17516
907.324	17490
907.441	17337
907.557	17193
907.674	17231
907.79	17102
907.907	17056
908.023	17208
908.139	17216
908.256	17102
908.372	17010
908.488	17018
908.604	16873
908.72	16839
908.836	16824
908.952	16889
909.068	16854
909.184	16843
909.3	16835
909.415	16862
909.531	16869
909.647	16653
909.762	16687
909.878	16561
909.993	16664
910.108	16615
910.224	16516
910.339	16508
910.454	16485
910.57	16394
910.685	16333
910.8	16603
910.915	16561
911.03	16451
911.145	16200
911.259	16219
911.374	16143
911.489	16207
911.604	16017
911.718	15899
911.833	15972
911.947	15823
912.062	15838
912.176	15953
912.291	15884
912.405	15953
912.519	16063
912.633	16131
912.748	16048
912.862	15838
912.976	15804
913.09	15667
913.204	15766
913.318	15690
913.431	15797
913.545	15751
913.659	15819
913.772	15667
913.886	15614
914	15458
914.113	15701
914.226	15682
914.34	15576
914.453	15454
914.566	15500
914.68	15477
914.793	15351
914.906	15313
915.019	15146
915.132	15100
915.245	15104
915.358	15188
915.47	15222
915.583	15123
915.696	15127
915.809	15310
915.921	15165
916.034	15058
916.146	15017
916.259	15081
916.371	15135
916.483	15024
916.595	14998
916.708	14998
916.82	14906
916.932	14899
917.044	14921
917.156	14952
917.268	14807
917.38	14758
917.491	14746
917.603	14773
917.715	14895
917.826	14906
917.938	14769
918.049	14552
918.161	14750
918.272	14819
918.384	14838
918.495	14739
918.606	14594
918.717	14530
918.828	14594
918.939	14621
919.05	14347
919.161	14514
919.272	14339
919.383	14336
919.494	14606
919.604	14651
919.715	14469
919.826	14374
919.936	14495
920.047	14560
920.157	14579
920.267	14655
920.378	14465
920.488	14465
920.598	14701
920.708	14785
920.818	14602
920.928	14693
921.038	14705
921.148	14754
921.258	14488
921.368	14290
921.477	14343
921.587	14248
921.697	14157
921.806	14313
921.916	14134
922.025	13967
922.134	13818
922.244	13742
922.353	13845
922.462	13746
922.571	13734
922.68	13624
922.789	13529
922.898	13529
923.007	13460
923.116	13514
923.224	13525
923.333	13476
923.442	13388
923.55	13324
923.659	13403
923.767	13434
923.876	13331
923.984	13419
924.092	13297
924.201	13179
924.309	13263
924.417	13240
924.525	13209
924.633	13099
924.741	14191
924.849	12993
924.956	13149
925.064	12977
925.172	12913
925.279	12981
925.387	13080
925.494	12939
925.602	13137
925.709	13023
925.816	12913
925.924	12875
926.031	12970
926.138	12829
926.245	13008
926.352	12734
926.459	12924
926.566	12993
926.673	12852
926.779	12696
926.886	12604
926.993	12578
927.099	12566
927.206	12467
927.312	12475
927.419	12525
927.525	12475
927.631	12483
927.737	12380
927.843	12327
927.95	12251
928.056	12273
928.162	12285
928.267	12285
928.373	12962
928.479	12460
928.585	12125
928.69	12197
928.796	12315
928.901	12235
929.007	12079
929.112	12228
929.218	12163
929.323	12102
929.428	12079
929.533	12148
929.638	12019
929.743	11942
929.848	12045
929.953	11988
930.058	11889
930.163	11786
930.267	11798
930.372	11882
930.477	11710
930.581	11942
930.685	11847
930.79	11661
930.894	11680
930.998	11642
931.103	11699
931.207	11406
931.311	11254
931.415	11223
931.519	11117
931.623	10991
