Data from test_V78500241_3603.txt Node
Date: Fri Mar 25 15:34:56 CST 2022
User: usil
Spectrometer: V785-0024
Trigger mode: 0
Integration Time (sec): 4.000000E-1
Scans to average: 1
Nonlinearity correction enabled: false
Boxcar width: 0
Storing dark spectrum: false
XAxis mode: Wavelengths
Number of Pixels in Spectrum: 1024
>>>>>Begin Spectral Data<<<<<
801.071	27329
801.214	27275
801.356	27058
801.499	26982
801.641	26716
801.783	26910
801.926	26956
802.068	26758
802.211	26716
802.353	26800
802.496	26587
802.638	26514
802.78	26594
802.923	26476
803.065	26298
803.208	26275
803.35	26442
803.492	26564
803.635	26693
803.777	26530
803.919	26651
804.061	27085
804.204	26872
804.346	26545
804.488	26457
804.63	26708
804.773	26526
804.915	26667
805.057	26727
805.199	26613
805.341	26769
805.483	26811
805.626	26750
805.768	26545
805.91	26697
806.052	26864
806.194	26621
806.336	26864
806.478	26796
806.62	26549
806.762	26800
806.904	27066
807.046	27420
807.188	27256
807.33	27169
807.472	27340
807.614	27058
807.756	27089
807.898	26933
808.04	26910
808.182	27058
808.324	26952
808.465	26994
808.607	27310
808.749	27374
808.891	27534
809.033	27492
809.174	27427
809.316	27393
809.458	27268
809.6	27275
809.741	27378
809.883	27450
810.025	27542
810.166	27709
810.308	27545
810.45	27625
810.591	27587
810.733	27408
810.875	27454
811.016	27256
811.158	27249
811.299	27382
811.441	27462
811.582	27412
811.724	27477
811.865	27222
812.007	27317
812.148	27389
812.29	27408
812.431	27591
812.573	27671
812.714	27663
812.855	27854
812.997	27895
813.138	27888
813.279	27907
813.421	27865
813.562	27892
813.703	27709
813.845	27519
813.986	27291
814.127	27203
814.268	27036
814.41	26990
814.551	26842
814.692	27173
814.833	26925
814.974	27074
815.115	27192
815.256	27009
815.397	26849
815.539	26823
815.68	26811
815.821	26765
815.962	26754
816.103	26731
816.244	26686
816.385	26594
816.526	26590
816.666	26210
816.807	26396
816.948	26362
817.089	26225
817.23	26305
817.371	26446
817.512	26294
817.653	26290
817.793	26206
817.934	26187
818.075	26145
818.216	26389
818.356	26362
818.497	26157
818.638	26046
818.778	26039
818.919	25970
819.06	26027
819.2	26275
819.341	26290
819.481	26309
819.622	26404
819.762	26541
819.903	26621
820.043	26507
820.184	26507
820.324	26385
820.465	26480
820.605	26465
820.746	26393
820.886	26191
821.026	26389
821.167	26358
821.307	26450
821.447	26278
821.588	26218
821.728	26096
821.868	25799
822.008	25727
822.149	25647
822.289	25594
822.429	25460
822.569	25434
822.709	25464
822.849	25221
822.99	25251
823.13	25164
823.27	25228
823.41	25107
823.55	24935
823.69	25095
823.83	25072
823.97	24992
824.11	24958
824.25	24951
824.389	24749
824.529	24973
824.669	24916
824.809	25019
824.949	24951
825.089	25061
825.228	24894
825.368	24726
825.508	24684
825.648	24901
825.787	24821
825.927	24829
826.067	24772
826.206	24802
826.346	24825
826.485	24935
826.625	24749
826.765	24741
826.904	24886
827.044	24593
827.183	24639
827.323	24532
827.462	24464
827.601	24509
827.741	24464
827.88	24547
828.02	24327
828.159	24452
828.298	24486
828.437	24494
828.577	24399
828.716	24445
828.855	24330
828.994	24106
829.134	24194
829.273	24194
829.412	24083
829.551	24095
829.69	24346
829.829	24251
829.968	24292
830.107	24194
830.246	24205
830.385	24148
830.524	24167
830.663	23996
830.802	23874
830.941	23703
831.08	23726
831.219	23783
831.357	23828
831.496	24106
831.635	23653
831.774	23729
831.913	23760
832.051	23585
832.19	23512
832.329	23661
832.467	23535
832.606	23414
832.744	23406
832.883	23562
833.022	23547
833.16	23383
833.299	23482
833.437	23433
833.576	23581
833.714	23505
833.852	23585
833.991	23585
834.129	23627
834.267	23657
834.406	23634
834.544	23562
834.682	23520
834.821	23566
834.959	23760
835.097	23467
835.235	23619
835.373	23497
835.511	23600
835.65	23406
835.788	23581
835.926	23197
836.064	23258
836.202	23246
836.34	23383
836.478	23490
836.615	23406
836.753	23444
836.891	23341
837.029	23634
837.167	23208
837.305	23212
837.443	23258
837.58	23356
837.718	23414
837.856	23261
837.993	23151
838.131	23353
838.269	23166
838.406	23132
838.544	23079
838.681	22885
838.819	22946
838.956	22771
839.094	22721
839.231	22858
839.369	22957
839.506	23185
839.643	22946
839.781	22740
839.918	22641
840.055	22740
840.193	22691
840.33	22645
840.467	22675
840.604	22778
840.742	22942
840.879	22443
841.016	22557
841.153	22649
841.29	22702
841.427	22755
841.564	22607
841.701	22664
841.838	22679
841.975	22523
842.112	22508
842.249	22588
842.385	22523
842.522	22637
842.659	22481
842.796	22451
842.933	22459
843.069	22421
843.206	22405
843.343	22485
843.479	22440
843.616	22432
843.752	22204
843.889	22310
844.025	22344
844.162	22204
844.298	22211
844.435	22185
844.571	22215
844.708	22249
844.844	22322
844.98	22242
845.117	22284
845.253	22135
845.389	21972
845.525	22067
845.661	21998
845.798	22036
845.934	21968
846.07	21968
846.206	22010
846.342	22040
846.478	21857
846.614	21759
846.75	21633
846.886	21606
847.022	21827
847.158	21774
847.294	21781
847.429	21762
847.565	21709
847.701	21918
847.837	21462
847.972	21405
848.108	21462
848.244	21454
848.379	21313
848.515	21359
848.65	21294
848.786	21351
848.921	21287
849.057	21340
849.192	21279
849.328	21363
849.463	21298
849.598	21188
849.734	21169
849.869	21100
850.004	20963
850.14	21085
850.275	21055
850.41	20933
850.545	20952
850.68	21024
850.815	21138
850.95	21009
851.085	21222
851.22	21081
851.355	21062
851.49	21013
851.625	21039
851.76	20944
851.895	20883
852.03	20975
852.165	20956
852.299	21017
852.434	21119
852.569	21070
852.703	21142
852.838	21195
852.973	21154
853.107	21096
853.242	20910
853.376	20956
853.511	20807
853.645	20872
853.78	21001
853.914	20769
854.048	20720
854.183	20781
854.317	20952
854.451	21108
854.585	20956
854.72	20902
854.854	20982
854.988	20914
855.122	20895
855.256	20739
855.39	20830
855.524	20853
855.658	20868
855.792	20929
855.926	20872
856.06	20971
856.194	20921
856.327	20788
856.461	20872
856.595	20773
856.729	20906
856.862	20933
856.996	20967
857.13	20811
857.263	20925
857.397	21013
857.53	20880
857.664	20971
857.797	20868
857.931	20933
858.064	20876
858.197	20925
858.331	20956
858.464	20781
858.597	20785
858.731	20864
858.864	20880
858.997	20826
859.13	20785
859.263	20937
859.396	21001
859.529	20823
859.662	20792
859.795	20800
859.928	20937
860.061	21150
860.194	21066
860.327	20914
860.46	20868
860.592	20891
860.725	21146
860.858	20944
860.99	20895
861.123	20762
861.256	20815
861.388	20887
861.521	21739
861.653	20731
861.786	20587
861.918	20640
862.05	20762
862.183	20773
862.315	20849
862.447	20948
862.58	20758
862.712	20617
862.844	20621
862.976	20659
863.108	20697
863.24	20804
863.372	20564
863.504	20511
863.636	20469
863.768	20670
863.9	20613
864.032	20488
864.164	20583
864.296	20686
864.428	20708
864.559	20716
864.691	20617
864.823	20541
864.954	20602
865.086	20541
865.217	20575
865.349	20408
865.48	20495
865.612	20545
865.743	20629
865.875	20594
866.006	20423
866.137	20545
866.269	20511
866.4	20400
866.531	20465
866.662	20408
866.793	20457
866.924	20457
867.055	20473
867.186	20389
867.317	20400
867.448	20400
867.579	20454
867.71	20381
867.841	20328
867.972	20549
868.103	20473
868.233	20393
868.364	20579
868.495	20609
868.625	20785
868.756	20705
868.886	20552
869.017	20659
869.147	20765
869.278	20868
869.408	20602
869.539	20606
869.669	20792
869.799	20872
869.929	20842
870.06	20830
870.19	20925
870.32	20842
870.45	21001
870.58	21173
870.71	21116
870.84	21180
870.97	21009
871.1	21062
871.23	21256
871.36	21363
871.489	21195
871.619	21256
871.749	21241
871.879	21298
872.008	21370
872.138	21302
872.267	21306
872.397	21146
872.526	21055
872.656	20979
872.785	21184
872.915	21279
873.044	21355
873.173	21237
873.303	21370
873.432	21401
873.561	21287
873.69	21294
873.819	21260
873.948	21340
874.077	21169
874.206	21241
874.335	21310
874.464	21359
874.593	21492
874.722	21439
874.851	21542
874.979	21614
875.108	21759
875.237	21488
875.365	21325
875.494	21500
875.623	21770
875.751	21580
875.88	21595
876.008	21694
876.136	21705
876.265	21915
876.393	22059
876.521	22070
876.65	22048
876.778	21968
876.906	21926
877.034	21903
877.162	22006
877.29	21713
877.418	21911
877.546	21865
877.674	22013
877.802	21770
877.93	21736
878.058	21800
878.185	21778
878.313	21949
878.441	21865
878.568	21808
878.696	21941
878.824	21842
878.951	21934
879.079	22067
879.206	22173
879.333	22036
879.461	21903
879.588	22120
879.715	22017
879.842	22128
879.97	22048
880.097	21755
880.224	21720
880.351	21698
880.478	21759
880.605	21698
880.732	21797
880.859	21838
880.986	21747
881.112	21679
881.239	21466
881.366	21443
881.493	21401
881.619	21241
881.746	21325
881.872	21298
881.999	21272
882.125	21142
882.252	21348
882.378	21230
882.505	21431
882.631	21188
882.757	21047
882.883	21123
883.01	21028
883.136	20975
883.262	20845
883.388	20724
883.514	21036
883.64	21017
883.766	21005
883.892	20746
884.018	20804
884.143	21055
884.269	21066
884.395	20750
884.52	20590
884.646	20613
884.772	20587
884.897	20663
885.023	20682
885.148	20705
885.274	20834
885.399	20724
885.524	20731
885.65	20720
885.775	20754
885.9	20674
886.025	20777
886.15	20781
886.275	20609
886.4	20530
886.525	20667
886.65	20457
886.775	20552
886.9	20807
887.025	20918
887.149	20511
887.274	20495
887.399	20393
887.523	20412
887.648	20423
887.773	20480
887.897	20598
888.021	20469
888.146	20419
888.27	20492
888.395	20606
888.519	20518
888.643	20434
888.767	20492
888.891	20221
889.015	20145
889.139	20290
889.263	20081
889.387	20305
889.511	20343
889.635	20320
889.759	20172
889.883	20256
890.006	20309
890.13	20351
890.254	20206
890.377	20176
890.501	20016
890.624	19974
890.748	20043
890.871	19921
890.995	19753
891.118	19864
891.241	19917
891.364	19860
891.488	19917
891.611	19780
891.734	19860
891.857	19856
891.98	19780
892.103	19860
892.226	19818
892.349	19746
892.471	19590
892.594	19803
892.717	19594
892.839	19746
892.962	19685
893.085	19780
893.207	19647
893.33	19540
893.452	19655
893.575	19830
893.697	19719
893.819	19830
893.941	19852
894.064	19909
894.186	19723
894.308	19552
894.43	19780
894.552	19765
894.674	19814
894.796	19594
894.918	19784
895.04	19731
895.161	19898
895.283	19776
895.405	19784
895.526	19776
895.648	19704
895.769	19700
895.891	19849
896.012	19753
896.134	19791
896.255	19719
896.376	19723
896.498	19757
896.619	19666
896.74	19647
896.861	19822
896.982	20134
897.103	20039
897.224	19978
897.345	19925
897.466	19833
897.587	20005
897.708	20100
897.828	19879
897.949	19978
898.07	19738
898.19	19898
898.311	19940
898.431	19856
898.552	19871
898.672	20039
898.792	19986
898.913	19993
899.033	19803
899.153	19738
899.273	19658
899.393	19712
899.513	19723
899.633	19582
899.753	19776
899.873	19540
899.993	19700
900.113	19586
900.232	19597
900.352	19521
900.472	19590
900.591	19487
900.711	19449
900.83	19377
900.95	19586
901.069	19537
901.189	19312
901.308	19103
901.427	18905
901.546	19114
901.665	19175
901.784	19126
901.904	18875
902.023	18951
902.141	18738
902.26	18623
902.379	18612
902.498	18623
902.617	18563
902.735	18601
902.854	18494
902.973	18532
903.091	18281
903.21	18239
903.328	18235
903.446	18121
903.565	18163
903.683	18152
903.801	17965
903.919	18178
904.038	18091
904.156	17847
904.274	17889
904.392	17855
904.51	17843
904.627	17802
904.745	17817
904.863	17866
904.981	17676
905.098	17490
905.216	17566
905.334	17520
905.451	17524
905.569	17535
905.686	17471
905.803	17402
905.921	17345
906.038	17429
906.155	17406
906.272	17212
906.389	17216
906.506	17041
906.623	17178
906.74	17018
906.857	16934
906.974	17006
907.091	17102
907.208	17242
907.324	17132
907.441	16877
907.557	16816
907.674	16793
907.79	16778
907.907	16797
908.023	16729
908.139	16782
908.256	16729
908.372	16618
908.488	16622
908.604	16580
908.72	16497
908.836	16462
908.952	16470
909.068	16538
909.184	16615
909.3	16584
909.415	16478
909.531	16485
909.647	16246
909.762	16230
909.878	16230
909.993	16143
910.108	16109
910.224	16112
910.339	16287
910.454	16074
910.57	16032
910.685	15956
910.8	16154
910.915	16086
911.03	16074
911.145	15918
911.259	15819
911.374	15793
911.489	15812
911.604	15755
911.718	15587
911.833	15606
911.947	15496
912.062	15519
912.176	15660
912.291	15542
912.405	15614
912.519	15831
912.633	15739
912.748	15610
912.862	15568
912.976	15332
913.09	15230
913.204	15306
913.318	15393
913.431	15466
913.545	15378
913.659	15424
913.772	15344
913.886	15188
914	15199
914.113	15203
914.226	15313
914.34	15211
914.453	15051
914.566	15203
914.68	15062
914.793	14990
914.906	14914
915.019	14838
915.132	14746
915.245	14895
915.358	14811
915.47	14663
915.583	14773
915.696	14834
915.809	14830
915.921	14967
916.034	14720
916.146	14701
916.259	14648
916.371	14800
916.483	14735
916.595	14629
916.708	14625
916.82	14629
916.932	14636
917.044	14564
917.156	14579
917.268	14431
917.38	14377
917.491	14450
917.603	14366
917.715	14621
917.826	14560
917.938	14366
918.049	14320
918.161	14408
918.272	14552
918.384	14511
918.495	14438
918.606	14301
918.717	14233
918.828	14187
918.939	14187
919.05	14012
919.161	14161
919.272	13993
919.383	14058
919.494	14286
919.604	14469
919.715	14191
919.826	14153
919.936	14161
920.047	14290
920.157	14191
920.267	14370
920.378	14195
920.488	14100
920.598	14389
920.708	14415
920.818	14324
920.928	14419
921.038	14518
921.148	14457
921.258	14081
921.368	14050
921.477	13959
921.587	13940
921.697	13845
921.806	13928
921.916	13807
922.025	13723
922.134	13586
922.244	13510
922.353	13636
922.462	13495
922.571	13373
922.68	13232
922.789	13225
922.898	13236
923.007	13152
923.116	13206
923.224	13263
923.333	13301
923.442	13057
923.55	12977
923.659	13129
923.767	13114
923.876	13038
923.984	13038
924.092	12825
924.201	13012
924.309	13057
924.417	12958
924.525	13042
924.633	12875
924.741	13894
924.849	12757
924.956	12840
925.064	12772
925.172	12601
925.279	12608
925.387	12749
925.494	12601
925.602	12795
925.709	12707
925.816	12566
925.924	12696
926.031	12741
926.138	12658
926.245	12669
926.352	12467
926.459	12662
926.566	12715
926.673	12544
926.779	12486
926.886	12426
926.993	12270
927.099	12213
927.206	12186
927.312	12254
927.419	12311
927.525	12091
927.631	12209
927.737	12057
927.843	12159
927.95	12007
928.056	12144
928.162	12133
928.267	12117
928.373	12631
928.479	12182
928.585	11950
928.69	12076
928.796	12041
928.901	11908
929.007	11756
929.112	11999
929.218	11912
929.323	11794
929.428	11752
929.533	11859
929.638	11737
929.743	11821
929.848	11767
929.953	11756
930.058	11646
930.163	11455
930.267	11532
930.372	11577
930.477	11501
930.581	11619
930.685	11543
930.79	11284
930.894	11425
930.998	11318
931.103	11433
931.207	11143
931.311	11071
931.415	11006
931.519	10763
931.623	10828
