Data from test_V78500241_1646.txt Node
Date: Fri Mar 25 15:21:19 CST 2022
User: usil
Spectrometer: V785-0024
Trigger mode: 0
Integration Time (sec): 4.000000E-1
Scans to average: 1
Nonlinearity correction enabled: false
Boxcar width: 0
Storing dark spectrum: false
XAxis mode: Wavelengths
Number of Pixels in Spectrum: 1024
>>>>>Begin Spectral Data<<<<<
801.071	27838
801.214	27766
801.356	27481
801.499	27481
801.641	27272
801.783	27294
801.926	27302
802.068	27454
802.211	27340
802.353	27199
802.496	27203
802.638	27020
802.78	26994
802.923	26864
803.065	26914
803.208	26975
803.35	27058
803.492	27188
803.635	27085
803.777	26940
803.919	27173
804.061	27622
804.204	27291
804.346	27127
804.488	26906
804.63	27199
804.773	27028
804.915	27230
805.057	27207
805.199	27287
805.341	27249
805.483	27298
805.626	27241
805.768	27260
805.91	27325
806.052	27348
806.194	27180
806.336	27603
806.478	27439
806.62	27336
806.762	27378
806.904	27496
807.046	27797
807.188	27679
807.33	27774
807.472	27785
807.614	27728
807.756	27663
807.898	27660
808.04	27568
808.182	27663
808.324	27686
808.465	27728
808.607	27869
808.749	27816
808.891	28013
809.033	28044
809.174	28010
809.316	27884
809.458	27831
809.6	27960
809.741	28036
809.883	28177
810.025	28211
810.166	28090
810.308	28325
810.45	28226
810.591	28036
810.733	27922
810.875	27816
811.016	27793
811.158	27800
811.299	27911
811.441	28082
811.582	28044
811.724	28013
811.865	27914
812.007	27975
812.148	27911
812.29	28010
812.431	28177
812.573	28185
812.714	28268
812.855	28531
812.997	28523
813.138	28675
813.279	28542
813.421	28573
813.562	28413
813.703	28344
813.845	28192
813.986	27994
814.127	27819
814.268	27641
814.41	27720
814.551	27519
814.692	27660
814.833	27519
814.974	27648
815.115	27656
815.256	27576
815.397	27507
815.539	27519
815.68	27389
815.821	27370
815.962	27344
816.103	27405
816.244	27298
816.385	27264
816.526	27192
816.666	27043
816.807	26948
816.948	26975
817.089	27013
817.23	27070
817.371	26853
817.512	26762
817.653	26777
817.793	26727
817.934	26971
818.075	26769
818.216	26994
818.356	26861
818.497	26655
818.638	26720
818.778	26613
818.919	26640
819.06	26701
819.2	26792
819.341	26849
819.481	26861
819.622	26998
819.762	27161
819.903	27245
820.043	27017
820.184	26940
820.324	27104
820.465	27195
820.605	27138
820.746	26902
820.886	26883
821.026	27039
821.167	27032
821.307	27043
821.447	26914
821.588	26792
821.728	26682
821.868	26587
822.008	26453
822.149	26332
822.289	26453
822.429	26214
822.569	26107
822.709	26084
822.849	25902
822.99	25890
823.13	25978
823.27	25734
823.41	25628
823.55	25624
823.69	25818
823.83	25814
823.97	25544
824.11	25525
824.25	25457
824.389	25525
824.529	25677
824.669	25616
824.809	25609
824.949	25647
825.089	25643
825.228	25487
825.368	25346
825.508	25354
825.648	25362
825.787	25468
825.927	25487
826.067	25324
826.206	25263
826.346	25506
826.485	25403
826.625	25324
826.765	25499
826.904	25472
827.044	25152
827.183	25232
827.323	25133
827.462	25042
827.601	25091
827.741	25118
827.88	25221
828.02	25004
828.159	25076
828.298	25183
828.437	25217
828.577	25129
828.716	25133
828.855	24932
828.994	24856
829.134	24719
829.273	24886
829.412	24772
829.551	24665
829.69	24814
829.829	24947
829.968	24840
830.107	24821
830.246	24840
830.385	24837
830.524	24677
830.663	24623
830.802	24494
830.941	24414
831.08	24410
831.219	24536
831.357	24391
831.496	24711
831.635	24311
831.774	24346
831.913	24327
832.051	24117
832.19	24235
832.329	24273
832.467	24144
832.606	24106
832.744	24072
832.883	24041
833.022	24030
833.16	24076
833.299	24159
833.437	24076
833.576	24171
833.714	24201
833.852	24098
833.991	24030
834.129	24300
834.267	24330
834.406	24163
834.544	24197
834.682	23996
834.821	24072
834.959	24247
835.097	24190
835.235	24152
835.373	24121
835.511	24091
835.65	24045
835.788	24106
835.926	23885
836.064	23623
836.202	23783
836.34	23893
836.478	24064
836.615	23931
836.753	23992
836.891	24049
837.029	23885
837.167	23885
837.305	23851
837.443	23904
837.58	23843
837.718	23920
837.856	23908
837.993	23764
838.131	23885
838.269	23668
838.406	23741
838.544	23577
838.681	23482
838.819	23501
838.956	23246
839.094	23315
839.231	23414
839.369	23478
839.506	23630
839.643	23634
839.781	23250
839.918	23170
840.055	23181
840.193	23269
840.33	23246
840.467	23166
840.604	23231
840.742	23410
840.879	23056
841.016	23197
841.153	23018
841.29	23185
841.427	23151
841.564	23151
841.701	23200
841.838	23216
841.975	23071
842.112	23037
842.249	23155
842.385	22934
842.522	23178
842.659	23109
842.796	22987
842.933	23029
843.069	22942
843.206	22946
843.343	23033
843.479	23014
843.616	22965
843.752	22820
843.889	22812
844.025	22911
844.162	22672
844.298	22885
844.435	22828
844.571	22774
844.708	22774
844.844	22923
844.98	22805
845.117	22892
845.253	22763
845.389	22634
845.525	22565
845.661	22588
845.798	22455
845.934	22569
846.07	22527
846.206	22424
846.342	22462
846.478	22360
846.614	22284
846.75	22207
846.886	22147
847.022	22352
847.158	22234
847.294	22261
847.429	22120
847.565	22211
847.701	22421
847.837	21785
847.972	21915
848.108	22044
848.244	21972
848.379	21915
848.515	21876
848.65	21827
848.786	21694
848.921	21854
849.057	21899
849.192	21930
849.328	21819
849.463	21720
849.598	21736
849.734	21671
849.869	21618
850.004	21515
850.14	21485
850.275	21576
850.41	21572
850.545	21671
850.68	21507
850.815	21610
850.95	21599
851.085	21774
851.22	21724
851.355	21739
851.49	21515
851.625	21564
851.76	21450
851.895	21443
852.03	21374
852.165	21519
852.299	21519
852.434	21644
852.569	21686
852.703	21690
852.838	21606
852.973	21625
853.107	21595
853.242	21389
853.376	21317
853.511	21272
853.645	21313
853.78	21504
853.914	21393
854.048	21408
854.183	21401
854.317	21450
854.451	21625
854.585	21340
854.72	21443
854.854	21462
854.988	21252
855.122	21367
855.256	21351
855.39	21340
855.524	21405
855.658	21420
855.792	21374
855.926	21382
856.06	21450
856.194	21420
856.327	21329
856.461	21348
856.595	21450
856.729	21378
856.862	21545
856.996	21447
857.13	21500
857.263	21397
857.397	21462
857.53	21382
857.664	21416
857.797	21393
857.931	21458
858.064	21443
858.197	21466
858.331	21264
858.464	21359
858.597	21268
858.731	21367
858.864	21306
858.997	21256
859.13	21294
859.263	21386
859.396	21428
859.529	21317
859.662	21378
859.795	21382
859.928	21325
860.061	21530
860.194	21561
860.327	21492
860.46	21401
860.592	21511
860.725	21538
860.858	21408
860.99	21454
861.123	21370
861.256	21230
861.388	21431
861.521	22013
861.653	21199
861.786	21252
861.918	21157
862.05	21241
862.183	21272
862.315	21272
862.447	21370
862.58	21283
862.712	21066
862.844	21036
862.976	21116
863.108	21192
863.24	21416
863.372	21047
863.504	21161
863.636	20986
863.768	21116
863.9	20971
864.032	20975
864.164	21043
864.296	21074
864.428	21146
864.559	21142
864.691	21176
864.823	21157
864.954	21119
865.086	21138
865.217	21077
865.349	20963
865.48	21066
865.612	20929
865.743	21100
865.875	20887
866.006	20941
866.137	20929
866.269	21032
866.4	20910
866.531	20956
866.662	20937
866.793	20948
866.924	20944
867.055	20929
867.186	21013
867.317	20971
867.448	20849
867.579	20906
867.71	20834
867.841	20902
867.972	20956
868.103	20830
868.233	20979
868.364	20914
868.495	20963
868.625	21203
868.756	21279
868.886	20998
869.017	21195
869.147	21264
869.278	21207
869.408	21150
869.539	21195
869.669	21317
869.799	21157
869.929	21294
870.06	21264
870.19	21454
870.32	21466
870.45	21523
870.58	21511
870.71	21637
870.84	21656
870.97	21488
871.1	21568
871.23	21739
871.36	21743
871.489	21686
871.619	21800
871.749	21751
871.879	21781
872.008	21819
872.138	21717
872.267	21698
872.397	21641
872.526	21595
872.656	21614
872.785	21625
872.915	21785
873.044	21918
873.173	21774
873.303	21774
873.432	21854
873.561	21762
873.69	21861
873.819	21747
873.948	21778
874.077	21827
874.206	21774
874.335	21781
874.464	21880
874.593	22025
874.722	21972
874.851	21918
874.979	21987
875.108	21987
875.237	21975
875.365	21915
875.494	21983
875.623	22082
875.751	22051
875.88	22109
876.008	22265
876.136	22257
876.265	22485
876.393	22440
876.521	22432
876.65	22527
876.778	22299
876.906	22314
877.034	22314
877.162	22402
877.29	22409
877.418	22272
877.546	22489
877.674	22284
877.802	22257
877.93	22192
878.058	22371
878.185	22173
878.313	22306
878.441	22318
878.568	22147
878.696	22268
878.824	22466
878.951	22413
879.079	22523
879.206	22546
879.333	22535
879.461	22367
879.588	22443
879.715	22493
879.842	22580
879.97	22367
880.097	22204
880.224	22249
880.351	22333
880.478	22226
880.605	22131
880.732	22036
880.859	22291
880.986	22249
881.112	22112
881.239	22055
881.366	21956
881.493	21709
881.619	21808
881.746	21766
881.872	21800
881.999	21720
882.125	21701
882.252	21816
882.378	21644
882.505	21816
882.631	21675
882.757	21538
882.883	21450
883.01	21504
883.136	21431
883.262	21294
883.388	21207
883.514	21397
883.64	21515
883.766	21492
883.892	21150
884.018	21203
884.143	21298
884.269	21462
884.395	21165
884.52	20990
884.646	21085
884.772	21085
884.897	21055
885.023	21123
885.148	21203
885.274	21192
885.399	21123
885.524	21039
885.65	21127
885.775	21119
885.9	21096
886.025	21154
886.15	21173
886.275	20868
886.4	21058
886.525	20956
886.65	21009
886.775	21013
886.9	21188
887.025	21241
887.149	21116
887.274	20864
887.399	20762
887.523	20857
887.648	20815
887.773	20899
887.897	20925
888.021	20804
888.146	20674
888.27	21005
888.395	20872
888.519	20902
888.643	20883
888.767	20921
888.891	20826
889.015	20689
889.139	20777
889.263	20564
889.387	20750
889.511	20826
889.635	20724
889.759	20644
889.883	20629
890.006	20701
890.13	20724
890.254	20651
890.377	20609
890.501	20385
890.624	20370
890.748	20404
890.871	20415
890.995	20218
891.118	20206
891.241	20248
891.364	20210
891.488	20377
891.611	20351
891.734	20210
891.857	20244
891.98	20256
892.103	20214
892.226	20206
892.349	20149
892.471	19974
892.594	20073
892.717	20240
892.839	20103
892.962	20096
893.085	20058
893.207	20100
893.33	20176
893.452	20039
893.575	20240
893.697	20058
893.819	20237
893.941	20275
894.064	20256
894.186	20024
894.308	20096
894.43	20183
894.552	20271
894.674	20206
894.796	20039
894.918	20153
895.04	20084
895.161	20142
895.283	20199
895.405	20077
895.526	20248
895.648	20199
895.769	20031
895.891	20168
896.012	20149
896.134	20107
896.255	20012
896.376	20077
896.498	20062
896.619	20214
896.74	20122
896.861	20126
896.982	20320
897.103	20552
897.224	20358
897.345	20450
897.466	20267
897.587	20362
897.708	20507
897.828	20412
897.949	20237
898.07	20145
898.19	20195
898.311	20408
898.431	20229
898.552	20404
898.672	20412
898.792	20339
898.913	20286
899.033	20153
899.153	20172
899.273	20058
899.393	20149
899.513	20073
899.633	20115
899.753	20008
899.873	19944
899.993	20084
900.113	20035
900.232	20077
900.352	19967
900.472	19978
900.591	19822
900.711	19928
900.83	19772
900.95	20035
901.069	20016
901.189	19746
901.308	19438
901.427	19506
901.546	19464
901.665	19434
901.784	19441
901.904	19282
902.023	19213
902.141	18966
902.26	18973
902.379	19072
902.498	19057
902.617	18909
902.735	18958
902.854	18954
902.973	18840
903.091	18604
903.21	18635
903.328	18593
903.446	18585
903.565	18521
903.683	18456
903.801	18350
903.919	18437
904.038	18308
904.156	18254
904.274	18311
904.392	18125
904.51	18144
904.627	18186
904.745	18220
904.863	18239
904.981	17996
905.098	17851
905.216	17786
905.334	17939
905.451	17847
905.569	17863
905.686	17942
905.803	17912
905.921	17589
906.038	17760
906.155	17707
906.272	17562
906.389	17516
906.506	17387
906.623	17452
906.74	17337
906.857	17318
906.974	17250
907.091	17433
907.208	17512
907.324	17379
907.441	17299
907.557	17159
907.674	17147
907.79	17056
907.907	17159
908.023	17064
908.139	17109
908.256	17010
908.372	16976
908.488	16980
908.604	16908
908.72	16896
908.836	16938
908.952	16816
909.068	16774
909.184	16957
909.3	16790
909.415	16881
909.531	16797
909.647	16561
909.762	16512
909.878	16577
909.993	16565
910.108	16550
910.224	16573
910.339	16603
910.454	16390
910.57	16451
910.685	16310
910.8	16554
910.915	16542
911.03	16265
911.145	16162
911.259	16135
911.374	16120
911.489	16109
911.604	15998
911.718	15945
911.833	15808
911.947	15835
912.062	15629
912.176	15778
912.291	15797
912.405	15880
912.519	16105
912.633	16051
912.748	15876
912.862	15819
912.976	15667
913.09	15587
913.204	15679
913.318	15739
913.431	15861
913.545	15755
913.659	15804
913.772	15637
913.886	15530
914	15485
914.113	15538
914.226	15629
914.34	15603
914.453	15344
914.566	15500
914.68	15386
914.793	15443
914.906	15195
915.019	15157
915.132	15097
915.245	15142
915.358	15135
915.47	15074
915.583	15184
915.696	15161
915.809	15157
915.921	15199
916.034	15047
916.146	15043
916.259	14990
916.371	15169
916.483	15043
916.595	15024
916.708	14925
916.82	14960
916.932	14975
917.044	14861
917.156	14842
917.268	14777
917.38	14857
917.491	14701
917.603	14739
917.715	14819
917.826	14853
917.938	14705
918.049	14648
918.161	14701
918.272	14872
918.384	14739
918.495	14594
918.606	14598
918.717	14431
918.828	14488
918.939	14522
919.05	14457
919.161	14499
919.272	14377
919.383	14404
919.494	14560
919.604	14708
919.715	14408
919.826	14415
919.936	14541
920.047	14423
920.157	14374
920.267	14716
920.378	14499
920.488	14469
920.598	14644
920.708	14872
920.818	14621
920.928	14644
921.038	14754
921.148	14686
921.258	14476
921.368	14320
921.477	14240
921.587	14191
921.697	14142
921.806	14172
921.916	14107
922.025	13951
922.134	13902
922.244	13776
922.353	13902
922.462	13712
922.571	13624
922.68	13537
922.789	13495
922.898	13491
923.007	13441
923.116	13537
923.224	13506
923.333	13457
923.442	13358
923.55	13407
923.659	13362
923.767	13377
923.876	13232
923.984	13278
924.092	13209
924.201	13343
924.309	13171
924.417	13263
924.525	13194
924.633	13122
924.741	14050
924.849	12943
924.956	13107
925.064	12977
925.172	12787
925.279	12768
925.387	12935
925.494	12977
925.602	12897
925.709	12947
925.816	12787
925.924	12875
926.031	12996
926.138	12909
926.245	12863
926.352	12806
926.459	13015
926.566	13004
926.673	12821
926.779	12711
926.886	12662
926.993	12639
927.099	12486
927.206	12422
927.312	12372
927.419	12566
927.525	12490
927.631	12471
927.737	12441
927.843	12273
927.95	12209
928.056	12254
928.162	12232
928.267	12369
928.373	12939
928.479	12350
928.585	12213
928.69	12304
928.796	12216
928.901	12148
929.007	12007
929.112	12186
929.218	12182
929.323	12091
929.428	11984
929.533	12194
929.638	11992
929.743	11916
929.848	12095
929.953	11950
930.058	11885
930.163	11745
930.267	11775
930.372	11798
930.477	11688
930.581	11916
930.685	11863
930.79	11623
930.894	11653
930.998	11547
931.103	11703
931.207	11391
931.311	11273
931.415	11155
931.519	11014
931.623	11041
