Data from test_V78500241_3405.txt Node
Date: Fri Mar 25 15:33:34 CST 2022
User: usil
Spectrometer: V785-0024
Trigger mode: 0
Integration Time (sec): 4.000000E-1
Scans to average: 1
Nonlinearity correction enabled: false
Boxcar width: 0
Storing dark spectrum: false
XAxis mode: Wavelengths
Number of Pixels in Spectrum: 1024
>>>>>Begin Spectral Data<<<<<
801.071	27287
801.214	27283
801.356	26979
801.499	26861
801.641	26819
801.783	26815
801.926	26796
802.068	26861
802.211	26739
802.353	26667
802.496	26575
802.638	26427
802.78	26396
802.923	26457
803.065	26218
803.208	26240
803.35	26408
803.492	26533
803.635	26545
803.777	26377
803.919	26579
804.061	26887
804.204	26731
804.346	26495
804.488	26579
804.63	26488
804.773	26511
804.915	26427
805.057	26724
805.199	26522
805.341	26469
805.483	26731
805.626	26716
805.768	26594
805.91	26625
806.052	26739
806.194	26606
806.336	26940
806.478	26746
806.62	26678
806.762	26811
806.904	26963
807.046	27173
807.188	27070
807.33	27123
807.472	27043
807.614	27081
807.756	27047
807.898	27043
808.04	26842
808.182	26899
808.324	26971
808.465	27005
808.607	27135
808.749	27249
808.891	27367
809.033	27523
809.174	27317
809.316	27211
809.458	27298
809.6	27214
809.741	27256
809.883	27469
810.025	27507
810.166	27538
810.308	27625
810.45	27477
810.591	27450
810.733	27249
810.875	27275
811.016	27138
811.158	27252
811.299	27397
811.441	27420
811.582	27564
811.724	27272
811.865	27245
812.007	27313
812.148	27226
812.29	27211
812.431	27488
812.573	27603
812.714	27698
812.855	27819
812.997	27804
813.138	27956
813.279	27759
813.421	27736
813.562	27660
813.703	27488
813.845	27443
813.986	27241
814.127	27028
814.268	26933
814.41	26861
814.551	26895
814.692	26925
814.833	26967
814.974	26914
815.115	26902
815.256	26727
815.397	26864
815.539	26834
815.68	26743
815.821	26651
815.962	26697
816.103	26617
816.244	26560
816.385	26461
816.526	26492
816.666	26332
816.807	26142
816.948	26324
817.089	26298
817.23	26275
817.371	26077
817.512	26138
817.653	26149
817.793	26168
817.934	26126
818.075	26221
818.216	26111
818.356	26046
818.497	26092
818.638	26016
818.778	25970
818.919	25978
819.06	25902
819.2	26077
819.341	26206
819.481	26157
819.622	26259
819.762	26552
819.903	26541
820.043	26309
820.184	26320
820.324	26275
820.465	26324
820.605	26183
820.746	26195
820.886	26176
821.026	26320
821.167	26282
821.307	26267
821.447	26328
821.588	26206
821.728	25989
821.868	25795
822.008	25693
822.149	25620
822.289	25632
822.429	25396
822.569	25274
822.709	25350
822.849	25259
822.99	25164
823.13	25129
823.27	25114
823.41	24992
823.55	24852
823.69	25046
823.83	24947
823.97	24943
824.11	24966
824.25	24730
824.389	24722
824.529	24932
824.669	24798
824.809	24913
824.949	24768
825.089	24867
825.228	24924
825.368	24612
825.508	24635
825.648	24677
825.787	24700
825.927	24749
826.067	24658
826.206	24616
826.346	24741
826.485	24741
826.625	24665
826.765	24776
826.904	24844
827.044	24593
827.183	24582
827.323	24372
827.462	24479
827.601	24414
827.741	24342
827.88	24395
828.02	24262
828.159	24429
828.298	24361
828.437	24422
828.577	24399
828.716	24563
828.855	24285
828.994	24178
829.134	24243
829.273	24167
829.412	24106
829.551	24121
829.69	24136
829.829	24148
829.968	24254
830.107	24106
830.246	24072
830.385	24011
830.524	24045
830.663	24053
830.802	23920
830.941	23824
831.08	23745
831.219	23908
831.357	23699
831.496	23977
831.635	23817
831.774	23627
831.913	23684
832.051	23619
832.19	23596
832.329	23528
832.467	23493
832.606	23273
832.744	23452
832.883	23433
833.022	23429
833.16	23459
833.299	23482
833.437	23368
833.576	23501
833.714	23490
833.852	23535
833.991	23589
834.129	23573
834.267	23596
834.406	23421
834.544	23440
834.682	23478
834.821	23535
834.959	23520
835.097	23425
835.235	23649
835.373	23600
835.511	23429
835.65	23376
835.788	23315
835.926	23185
836.064	23140
836.202	23155
836.34	23353
836.478	23482
836.615	23368
836.753	23425
836.891	23398
837.029	23360
837.167	23284
837.305	23166
837.443	23246
837.58	23189
837.718	23250
837.856	23227
837.993	23223
838.131	23064
838.269	23064
838.406	23098
838.544	22961
838.681	22854
838.819	22820
838.956	22748
839.094	22626
839.231	22854
839.369	22801
839.506	23064
839.643	22873
839.781	22733
839.918	22641
840.055	22645
840.193	22611
840.33	22607
840.467	22660
840.604	22584
840.742	22976
840.879	22489
841.016	22500
841.153	22500
841.29	22733
841.427	22698
841.564	22793
841.701	22763
841.838	22599
841.975	22481
842.112	22443
842.249	22470
842.385	22432
842.522	22706
842.659	22417
842.796	22390
842.933	22493
843.069	22352
843.206	22440
843.343	22466
843.479	22394
843.616	22337
843.752	22124
843.889	22162
844.025	22337
844.162	22013
844.298	22276
844.435	22147
844.571	22147
844.708	22230
844.844	22333
844.98	22462
845.117	22196
845.253	22109
845.389	22017
845.525	21926
845.661	22006
845.798	21808
845.934	22032
846.07	21873
846.206	22002
846.342	22044
846.478	21823
846.614	21724
846.75	21682
846.886	21625
847.022	21648
847.158	21542
847.294	21515
847.429	21728
847.565	21481
847.701	21854
847.837	21488
847.972	21298
848.108	21561
848.244	21401
848.379	21287
848.515	21233
848.65	21192
848.786	21074
848.921	21237
849.057	21291
849.192	21310
849.328	21340
849.463	21268
849.598	21089
849.734	21192
849.869	21138
850.004	21009
850.14	21013
850.275	21020
850.41	20815
850.545	21024
850.68	21009
850.815	21001
850.95	20998
851.085	21188
851.22	21249
851.355	21036
851.49	20975
851.625	20982
851.76	20944
851.895	20960
852.03	20960
852.165	20979
852.299	20994
852.434	21017
852.569	21039
852.703	20967
852.838	21112
852.973	21154
853.107	21043
853.242	20918
853.376	20857
853.511	20606
853.645	20750
853.78	20868
853.914	20845
854.048	20834
854.183	20857
854.317	20762
854.451	20982
854.585	20815
854.72	20830
854.854	20834
854.988	20674
855.122	20769
855.256	20731
855.39	20781
855.524	20921
855.658	20918
855.792	20823
855.926	20720
856.06	20990
856.194	20891
856.327	20819
856.461	20693
856.595	20777
856.729	20785
856.862	20853
856.996	20830
857.13	20861
857.263	20975
857.397	20838
857.53	20796
857.664	20864
857.797	20819
857.931	20906
858.064	20769
858.197	20819
858.331	20910
858.464	20754
858.597	20724
858.731	20708
858.864	20712
858.997	20823
859.13	20895
859.263	20785
859.396	20899
859.529	20815
859.662	20781
859.795	20712
859.928	20826
860.061	20914
860.194	21024
860.327	20796
860.46	20785
860.592	20929
860.725	20861
860.858	20895
860.99	20800
861.123	20697
861.256	20743
861.388	20746
861.521	21458
861.653	20735
861.786	20590
861.918	20629
862.05	20705
862.183	20746
862.315	20800
862.447	20823
862.58	20739
862.712	20495
862.844	20545
862.976	20606
863.108	20541
863.24	20952
863.372	20530
863.504	20545
863.636	20473
863.768	20571
863.9	20564
864.032	20514
864.164	20541
864.296	20518
864.428	20708
864.559	20549
864.691	20655
864.823	20465
864.954	20408
865.086	20343
865.217	20583
865.349	20415
865.48	20404
865.612	20461
865.743	20461
865.875	20393
866.006	20313
866.137	20355
866.269	20507
866.4	20404
866.531	20324
866.662	20259
866.793	20252
866.924	20537
867.055	20396
867.186	20400
867.317	20305
867.448	20320
867.579	20309
867.71	20313
867.841	20294
867.972	20381
868.103	20488
868.233	20366
868.364	20385
868.495	20423
868.625	20651
868.756	20769
868.886	20454
869.017	20473
869.147	20708
869.278	20804
869.408	20720
869.539	20609
869.669	20678
869.799	20579
869.929	20640
870.06	20720
870.19	20906
870.32	20925
870.45	20948
870.58	20986
870.71	21207
870.84	20998
870.97	20971
871.1	20967
871.23	21154
871.36	21146
871.489	21237
871.619	21211
871.749	21188
871.879	21268
872.008	21477
872.138	21165
872.267	21382
872.397	21131
872.526	21089
872.656	21135
872.785	21085
872.915	21237
873.044	21256
873.173	21214
873.303	21264
873.432	21241
873.561	21351
873.69	21222
873.819	21207
873.948	21294
874.077	21283
874.206	21184
874.335	21195
874.464	21302
874.593	21523
874.722	21496
874.851	21538
874.979	21469
875.108	21511
875.237	21359
875.365	21302
875.494	21454
875.623	21553
875.751	21477
875.88	21462
876.008	21477
876.136	21732
876.265	21922
876.393	22017
876.521	21888
876.65	22055
876.778	21911
876.906	21785
877.034	21816
877.162	21793
877.29	21850
877.418	21888
877.546	21831
877.674	21869
877.802	21816
877.93	21949
878.058	21766
878.185	21671
878.313	21781
878.441	21774
878.568	21709
878.696	21774
878.824	21869
878.951	21884
879.079	22029
879.206	21998
879.333	22063
879.461	21846
879.588	21983
879.715	22029
879.842	22139
879.97	21934
880.097	21622
880.224	21739
880.351	21705
880.478	21736
880.605	21614
880.732	21549
880.859	21770
880.986	21625
881.112	21625
881.239	21618
881.366	21302
881.493	21252
881.619	21344
881.746	21230
881.872	21313
881.999	21203
882.125	21268
882.252	21081
882.378	21264
882.505	21336
882.631	21093
882.757	20967
882.883	20998
883.01	20842
883.136	20842
883.262	20861
883.388	20758
883.514	20975
883.64	21062
883.766	20941
883.892	20769
884.018	20804
884.143	20895
884.269	21024
884.395	20655
884.52	20613
884.646	20636
884.772	20541
884.897	20450
885.023	20594
885.148	20731
885.274	20682
885.399	20587
885.524	20575
885.65	20651
885.775	20613
885.9	20579
886.025	20777
886.15	20488
886.275	20408
886.4	20587
886.525	20514
886.65	20473
886.775	20427
886.9	20701
887.025	20773
887.149	20556
887.274	20298
887.399	20252
887.523	20336
887.648	20275
887.773	20275
887.897	20419
888.021	20355
888.146	20313
888.27	20465
888.395	20446
888.519	20423
888.643	20389
888.767	20328
888.891	20294
889.015	20229
889.139	20206
889.263	20172
889.387	20244
889.511	20309
889.635	20225
889.759	20176
889.883	20111
890.006	20172
890.13	20210
890.254	20020
890.377	20065
890.501	19947
890.624	19940
890.748	20012
890.871	19795
890.995	19727
891.118	19693
891.241	19677
891.364	19586
891.488	19906
891.611	19693
891.734	19696
891.857	19871
891.98	19647
892.103	19723
892.226	19624
892.349	19674
892.471	19548
892.594	19681
892.717	19765
892.839	19597
892.962	19609
893.085	19681
893.207	19689
893.33	19582
893.452	19514
893.575	19746
893.697	19582
893.819	19833
893.941	19761
894.064	19761
894.186	19601
894.308	19628
894.43	19727
894.552	19803
894.674	19700
894.796	19601
894.918	19753
895.04	19597
895.161	19723
895.283	19681
895.405	19552
895.526	19651
895.648	19609
895.769	19658
895.891	19635
896.012	19791
896.134	19719
896.255	19715
896.376	19628
896.498	19571
896.619	19693
896.74	19586
896.861	19624
896.982	19978
897.103	20191
897.224	19959
897.345	19852
897.466	19849
897.587	19776
897.708	19944
897.828	19928
897.949	19788
898.07	19712
898.19	19875
898.311	19822
898.431	19807
898.552	19906
898.672	19951
898.792	19951
898.913	19830
899.033	19788
899.153	19719
899.273	19586
899.393	19590
899.513	19655
899.633	19670
899.753	19628
899.873	19506
899.993	19605
900.113	19616
900.232	19651
900.352	19499
900.472	19457
900.591	19400
900.711	19514
900.83	19362
900.95	19510
901.069	19525
901.189	19350
901.308	19122
901.427	18897
901.546	19023
901.665	19023
901.784	18913
901.904	18875
902.023	18829
902.141	18585
902.26	18528
902.379	18589
902.498	18426
902.617	18403
902.735	18620
902.854	18471
902.973	18422
903.091	18152
903.21	18197
903.328	18197
903.446	18064
903.565	17977
903.683	18038
903.801	18038
903.919	17988
904.038	17950
904.156	17855
904.274	17908
904.392	17733
904.51	17779
904.627	17756
904.745	17813
904.863	17718
904.981	17596
905.098	17406
905.216	17551
905.334	17505
905.451	17353
905.569	17444
905.686	17566
905.803	17402
905.921	17292
906.038	17452
906.155	17261
906.272	17117
906.389	17166
906.506	17022
906.623	17067
906.74	16938
906.857	16904
906.974	16911
907.091	16968
907.208	17079
907.324	17018
907.441	16961
907.557	16774
907.674	16809
907.79	16675
907.907	16740
908.023	16774
908.139	16797
908.256	16706
908.372	16611
908.488	16618
908.604	16519
908.72	16455
908.836	16474
908.952	16508
909.068	16405
909.184	16546
909.3	16440
909.415	16356
909.531	16375
909.647	16322
909.762	16143
909.878	16112
909.993	16097
910.108	16078
910.224	16067
910.339	16150
910.454	15937
910.57	15949
910.685	15876
910.8	16226
910.915	16143
911.03	15934
911.145	15827
911.259	15755
911.374	15747
911.489	15720
911.604	15686
911.718	15507
911.833	15538
911.947	15405
912.062	15359
912.176	15477
912.291	15492
912.405	15408
912.519	15709
912.633	15641
912.748	15485
912.862	15431
912.976	15439
913.09	15287
913.204	15412
913.318	15317
913.431	15256
913.545	15397
913.659	15405
913.772	15245
913.886	15150
914	15066
914.113	15214
914.226	15252
914.34	15245
914.453	14963
914.566	15097
914.68	15058
914.793	14952
914.906	14880
915.019	14705
915.132	14743
915.245	14667
915.358	14731
915.47	14678
915.583	14777
915.696	14815
915.809	14853
915.921	14891
916.034	14693
916.146	14625
916.259	14625
916.371	14785
916.483	14655
916.595	14617
916.708	14598
916.82	14549
916.932	14503
917.044	14503
917.156	14446
917.268	14419
917.38	14412
917.491	14473
917.603	14374
917.715	14434
917.826	14488
917.938	14237
918.049	14278
918.161	14374
918.272	14457
918.384	14473
918.495	14450
918.606	14092
918.717	14202
918.828	14278
918.939	14206
919.05	14191
919.161	14130
919.272	13940
919.383	14065
919.494	14187
919.604	14427
919.715	14157
919.826	14092
919.936	14111
920.047	14267
920.157	14142
920.267	14240
920.378	14134
920.488	14180
920.598	14328
920.708	14423
920.818	14313
920.928	14282
921.038	14446
921.148	14473
921.258	14176
921.368	13974
921.477	13959
921.587	13951
921.697	13734
921.806	13982
921.916	13662
922.025	13651
922.134	13533
922.244	13449
922.353	13601
922.462	13411
922.571	13331
922.68	13198
922.789	13198
922.898	13209
923.007	13202
923.116	13228
923.224	13099
923.333	13145
923.442	12962
923.55	13095
923.659	12958
923.767	13095
923.876	12985
923.984	13076
924.092	12905
924.201	13023
924.309	12875
924.417	12970
924.525	12783
924.633	12943
924.741	13852
924.849	12604
924.956	12779
925.064	12658
925.172	12566
925.279	12631
925.387	12639
925.494	12608
925.602	12783
925.709	12745
925.816	12471
925.924	12566
926.031	12760
926.138	12582
926.245	12608
926.352	12479
926.459	12559
926.566	12642
926.673	12574
926.779	12441
926.886	12433
926.993	12266
927.099	12224
927.206	12110
927.312	12167
927.419	12277
927.525	12106
927.631	12281
927.737	12190
927.843	12068
927.95	12003
928.056	12060
928.162	12133
928.267	12098
928.373	12532
928.479	12079
928.585	11912
928.69	12049
928.796	12011
928.901	11912
929.007	11718
929.112	11927
929.218	11828
929.323	11714
929.428	11802
929.533	11874
929.638	11665
929.743	11813
929.848	11684
929.953	11737
930.058	11539
930.163	11429
930.267	11452
930.372	11638
930.477	11379
930.581	11608
930.685	11539
930.79	11315
930.894	11353
930.998	11307
931.103	11436
931.207	11071
931.311	10968
931.415	11010
931.519	10801
931.623	10778
