Data from test_V78500241_849.txt Node
Date: Fri Mar 25 15:15:46 CST 2022
User: usil
Spectrometer: V785-0024
Trigger mode: 0
Integration Time (sec): 4.000000E-1
Scans to average: 1
Nonlinearity correction enabled: false
Boxcar width: 0
Storing dark spectrum: false
XAxis mode: Wavelengths
Number of Pixels in Spectrum: 1024
>>>>>Begin Spectral Data<<<<<
801.071	28265
801.214	28143
801.356	27941
801.499	27823
801.641	27675
801.783	27660
801.926	27747
802.068	27682
802.211	27675
802.353	27625
802.496	27466
802.638	27389
802.78	27431
802.923	27431
803.065	27408
803.208	27416
803.35	27382
803.492	27447
803.635	27587
803.777	27519
803.919	27686
804.061	27869
804.204	27591
804.346	27648
804.488	27424
804.63	27625
804.773	27553
804.915	27705
805.057	27778
805.199	27587
805.341	27816
805.483	27797
805.626	27679
805.768	27675
805.91	27690
806.052	27739
806.194	27603
806.336	27922
806.478	27804
806.62	27686
806.762	27949
806.904	27998
807.046	28314
807.188	28215
807.33	28097
807.472	28265
807.614	27937
807.756	27983
807.898	28086
808.04	28044
808.182	27956
808.324	27987
808.465	28105
808.607	28204
808.749	28344
808.891	28489
809.033	28584
809.174	28504
809.316	28428
809.458	28451
809.6	28386
809.741	28447
809.883	28546
810.025	28653
810.166	28573
810.308	28679
810.45	28668
810.591	28634
810.733	28497
810.875	28398
811.016	28314
811.158	28363
811.299	28497
811.441	28580
811.582	28588
811.724	28352
811.865	28421
812.007	28284
812.148	28280
812.29	28542
812.431	28721
812.573	28820
812.714	28930
812.855	28995
812.997	29079
813.138	29113
813.279	29216
813.421	29010
813.562	28938
813.703	28797
813.845	28778
813.986	28489
814.127	28276
814.268	28253
814.41	28139
814.551	28246
814.692	28154
814.833	28017
814.974	28139
815.115	28322
815.256	28059
815.397	28036
815.539	28120
815.68	27899
815.821	27850
815.962	27975
816.103	27785
816.244	27675
816.385	27671
816.526	27747
816.666	27519
816.807	27363
816.948	27492
817.089	27595
817.23	27549
817.371	27591
817.512	27329
817.653	27458
817.793	27462
817.934	27378
818.075	27431
818.216	27454
818.356	27431
818.497	27287
818.638	27211
818.778	27093
818.919	27222
819.06	27203
819.2	27504
819.341	27416
819.481	27355
819.622	27561
819.762	27854
819.903	27671
820.043	27682
820.184	27701
820.324	27447
820.465	27500
820.605	27679
820.746	27504
820.886	27344
821.026	27572
821.167	27534
821.307	27568
821.447	27477
821.588	27359
821.728	27325
821.868	27096
822.008	26883
822.149	26933
822.289	26868
822.429	26621
822.569	26670
822.709	26560
822.849	26549
822.99	26400
823.13	26465
823.27	26415
823.41	26271
823.55	26195
823.69	26252
823.83	26164
823.97	26225
824.11	26020
824.25	25940
824.389	26077
824.529	26168
824.669	26103
824.809	26202
824.949	26290
825.089	26088
825.228	26233
825.368	25868
825.508	25913
825.648	25974
825.787	25959
825.927	26073
826.067	25925
826.206	25928
826.346	25925
826.485	26092
826.625	25875
826.765	26039
826.904	25917
827.044	25750
827.183	25791
827.323	25655
827.462	25685
827.601	25719
827.741	25533
827.88	25742
828.02	25548
828.159	25655
828.298	25757
828.437	25658
828.577	25632
828.716	25803
828.855	25666
828.994	25324
829.134	25297
829.273	25449
829.412	25403
829.551	25422
829.69	25411
829.829	25426
829.968	25411
830.107	25400
830.246	25419
830.385	25293
830.524	25251
830.663	25179
830.802	25122
830.941	24970
831.08	24924
831.219	25038
831.357	25023
831.496	25209
831.635	25000
831.774	24932
831.913	24913
832.051	24791
832.19	24787
832.329	24810
832.467	24730
832.606	24741
832.744	24665
832.883	24620
833.022	24597
833.16	24639
833.299	24783
833.437	24844
833.576	24688
833.714	24764
833.852	24848
833.991	24810
834.129	24772
834.267	24817
834.406	24623
834.544	24814
834.682	24741
834.821	24840
834.959	24924
835.097	24688
835.235	24673
835.373	24696
835.511	24665
835.65	24547
835.788	24604
835.926	24376
836.064	24346
836.202	24410
836.34	24566
836.478	24631
836.615	24566
836.753	24589
836.891	24711
837.029	24688
837.167	24399
837.305	24505
837.443	24445
837.58	24528
837.718	24536
837.856	24391
837.993	24357
838.131	24308
838.269	24323
838.406	24319
838.544	24190
838.681	24102
838.819	23988
838.956	23988
839.094	23790
839.231	23885
839.369	24011
839.506	24277
839.643	24144
839.781	23939
839.918	23809
840.055	23885
840.193	23923
840.33	23794
840.467	23771
840.604	23847
840.742	24102
840.879	23710
841.016	23748
841.153	23653
841.29	23821
841.427	23707
841.564	23847
841.701	23836
841.838	23646
841.975	23627
842.112	23726
842.249	23585
842.385	23543
842.522	23794
842.659	23604
842.796	23497
842.933	23516
843.069	23558
843.206	23360
843.343	23501
843.479	23509
843.616	23535
843.752	23334
843.889	23318
844.025	23387
844.162	23326
844.298	23307
844.435	23311
844.571	23227
844.708	23444
844.844	23391
844.98	23303
845.117	23315
845.253	23223
845.389	23242
845.525	23223
845.661	23029
845.798	23075
845.934	23162
846.07	23033
846.206	23033
846.342	23166
846.478	23037
846.614	22900
846.75	22679
846.886	22740
847.022	22923
847.158	22774
847.294	22805
847.429	22782
847.565	22801
847.701	23006
847.837	22470
847.972	22478
848.108	22691
848.244	22542
848.379	22402
848.515	22306
848.65	22344
848.786	22413
848.921	22303
849.057	22489
849.192	22580
849.328	22394
849.463	22379
849.598	22394
849.734	22325
849.869	22257
850.004	22105
850.14	22230
850.275	22200
850.41	21983
850.545	22158
850.68	22090
850.815	22234
850.95	22044
851.085	22462
851.22	22173
851.355	22268
851.49	22131
851.625	22040
851.76	22044
851.895	21884
852.03	21983
852.165	22173
852.299	22109
852.434	22166
852.569	22306
852.703	22086
852.838	22196
852.973	22276
853.107	22295
853.242	22063
853.376	21895
853.511	21899
853.645	21949
853.78	22051
853.914	21895
854.048	21865
854.183	21956
854.317	21991
854.451	22265
854.585	21960
854.72	21915
854.854	22044
854.988	21915
855.122	21918
855.256	21808
855.39	21907
855.524	21987
855.658	22010
855.792	21884
855.926	21884
856.06	22010
856.194	22059
856.327	22048
856.461	21930
856.595	21979
856.729	21884
856.862	22090
856.996	21926
857.13	22188
857.263	21915
857.397	21991
857.53	21987
857.664	22006
857.797	21911
857.931	22063
858.064	21934
858.197	22135
858.331	21960
858.464	21998
858.597	21804
858.731	21953
858.864	21899
858.997	21861
859.13	21949
859.263	21956
859.396	22063
859.529	21960
859.662	21869
859.795	21895
859.928	22029
860.061	22112
860.194	22097
860.327	21876
860.46	21876
860.592	22143
860.725	22101
860.858	22040
860.99	21819
861.123	21873
861.256	22055
861.388	21930
861.521	22786
861.653	21854
861.786	21690
861.918	21709
862.05	21751
862.183	21793
862.315	21854
862.447	22093
862.58	21846
862.712	21705
862.844	21580
862.976	21660
863.108	21690
863.24	22124
863.372	21580
863.504	21564
863.636	21580
863.768	21698
863.9	21717
864.032	21637
864.164	21622
864.296	21481
864.428	21736
864.559	21629
864.691	21667
864.823	21766
864.954	21652
865.086	21557
865.217	21553
865.349	21412
865.48	21428
865.612	21488
865.743	21557
865.875	21561
866.006	21595
866.137	21401
866.269	21557
866.4	21549
866.531	21462
866.662	21526
866.793	21439
866.924	21458
867.055	21488
867.186	21424
867.317	21317
867.448	21306
867.579	21302
867.71	21389
867.841	21393
867.972	21351
868.103	21420
868.233	21420
868.364	21458
868.495	21530
868.625	21762
868.756	21736
868.886	21690
869.017	21774
869.147	21736
869.278	21755
869.408	21637
869.539	21747
869.669	21797
869.799	21797
869.929	21785
870.06	21694
870.19	22002
870.32	22021
870.45	21934
870.58	22120
870.71	22287
870.84	22287
870.97	22082
871.1	22013
871.23	22409
871.36	22402
871.489	22204
871.619	22272
871.749	22314
871.879	22318
872.008	22428
872.138	22234
872.267	22276
872.397	22044
872.526	22196
872.656	22124
872.785	22093
872.915	22348
873.044	22451
873.173	22299
873.303	22363
873.432	22402
873.561	22379
873.69	22379
873.819	22207
873.948	22249
874.077	22306
874.206	22223
874.335	22363
874.464	22386
874.593	22508
874.722	22554
874.851	22500
874.979	22653
875.108	22592
875.237	22466
875.365	22356
875.494	22542
875.623	22573
875.751	22413
875.88	22596
876.008	22554
876.136	22664
876.265	22991
876.393	22877
876.521	22957
876.65	23052
876.778	23010
876.906	22748
877.034	22869
877.162	22828
877.29	22908
877.418	22892
877.546	22858
877.674	22801
877.802	22748
877.93	22873
878.058	22831
878.185	22748
878.313	22854
878.441	22877
878.568	22774
878.696	22793
878.824	22953
878.951	22972
879.079	22991
879.206	23086
879.333	23041
879.461	22942
879.588	22987
879.715	23041
879.842	23147
879.97	22862
880.097	22672
880.224	22767
880.351	22683
880.478	22672
880.605	22641
880.732	22717
880.859	22885
880.986	22710
881.112	22683
881.239	22455
881.366	22329
881.493	22276
881.619	22303
881.746	22181
881.872	22162
881.999	22314
882.125	22196
882.252	22249
882.378	22207
882.505	22325
882.631	22196
882.757	21884
882.883	22051
883.01	21991
883.136	21888
883.262	21827
883.388	21671
883.514	21812
883.64	21979
883.766	21899
883.892	21717
884.018	21797
884.143	21953
884.269	22006
884.395	21671
884.52	21526
884.646	21583
884.772	21477
884.897	21519
885.023	21530
885.148	21625
885.274	21762
885.399	21663
885.524	21378
885.65	21469
885.775	21511
885.9	21545
886.025	21633
886.15	21652
886.275	21648
886.4	21431
886.525	21583
886.65	21519
886.775	21382
886.9	21629
887.025	21770
887.149	21629
887.274	21287
887.399	21340
887.523	21382
887.648	21363
887.773	21211
887.897	21408
888.021	21405
888.146	21317
888.27	21408
888.395	21378
888.519	21374
888.643	21393
888.767	21363
888.891	21275
889.015	21108
889.139	21131
889.263	21062
889.387	21283
889.511	21401
889.635	21176
889.759	21096
889.883	21066
890.006	21100
890.13	21279
890.254	21017
890.377	20994
890.501	20880
890.624	20781
890.748	20910
890.871	20750
890.995	20720
891.118	20716
891.241	20720
891.364	20670
891.488	20906
891.611	20754
891.734	20659
891.857	20769
891.98	20640
892.103	20807
892.226	20670
892.349	20678
892.471	20438
892.594	20667
892.717	20648
892.839	20556
892.962	20655
893.085	20648
893.207	20693
893.33	20549
893.452	20511
893.575	20488
893.697	20583
893.819	20754
893.941	20758
894.064	20648
894.186	20568
894.308	20434
894.43	20636
894.552	20651
894.674	20705
894.796	20465
894.918	20640
895.04	20590
895.161	20644
895.283	20625
895.405	20476
895.526	20575
895.648	20484
895.769	20499
895.891	20598
896.012	20750
896.134	20735
896.255	20492
896.376	20499
896.498	20552
896.619	20583
896.74	20587
896.861	20594
896.982	20788
897.103	20925
897.224	20952
897.345	20819
897.466	20781
897.587	20739
897.708	20952
897.828	20712
897.949	20686
898.07	20514
898.19	20621
898.311	20861
898.431	20788
898.552	20819
898.672	20796
898.792	20849
898.913	20667
899.033	20712
899.153	20587
899.273	20507
899.393	20518
899.513	20549
899.633	20556
899.753	20480
899.873	20370
899.993	20431
900.113	20431
900.232	20560
900.352	20408
900.472	20347
900.591	20317
900.711	20347
900.83	20290
900.95	20339
901.069	20259
901.189	20073
901.308	20027
901.427	19772
901.546	19978
901.665	19833
901.784	19784
901.904	19719
902.023	19613
902.141	19449
902.26	19388
902.379	19464
902.498	19377
902.617	19251
902.735	19472
902.854	19358
902.973	19346
903.091	19137
903.21	18932
903.328	19042
903.446	18958
903.565	18863
903.683	18875
903.801	18719
903.919	18840
904.038	18760
904.156	18700
904.274	18631
904.392	18593
904.51	18532
904.627	18582
904.745	18654
904.863	18715
904.981	18479
905.098	18281
905.216	18239
905.334	18334
905.451	18258
905.569	18285
905.686	18323
905.803	18243
905.921	18060
906.038	18114
906.155	18079
906.272	17912
906.389	18060
906.506	17863
906.623	17874
906.74	17794
906.857	17554
906.974	17710
907.091	17859
907.208	17946
907.324	17863
907.441	17767
907.557	17444
907.674	17558
907.79	17436
907.907	17478
908.023	17566
908.139	17592
908.256	17379
908.372	17425
908.488	17452
908.604	17395
908.72	17269
908.836	17258
908.952	17231
909.068	17254
909.184	17349
909.3	17277
909.415	17372
909.531	17223
909.647	16991
909.762	16984
909.878	16991
909.993	16927
910.108	16930
910.224	16923
910.339	16995
910.454	16778
910.57	16702
910.685	16687
910.8	16881
910.915	16900
911.03	16717
911.145	16489
911.259	16611
911.374	16485
911.489	16508
911.604	16348
911.718	16230
911.833	16363
911.947	16166
912.062	16032
912.176	16200
912.291	16303
912.405	16265
912.519	16325
912.633	16386
912.748	16265
912.862	16154
912.976	16078
913.09	15953
913.204	16051
913.318	15994
913.431	16177
913.545	16143
913.659	16173
913.772	16048
913.886	15861
914	15918
914.113	15960
914.226	16051
914.34	15922
914.453	15736
914.566	15930
914.68	15846
914.793	15717
914.906	15614
915.019	15450
915.132	15481
915.245	15454
915.358	15435
915.47	15389
915.583	15408
915.696	15496
915.809	15515
915.921	15568
916.034	15420
916.146	15363
916.259	15374
916.371	15416
916.483	15382
916.595	15329
916.708	15222
916.82	15233
916.932	15218
917.044	15268
917.156	15233
917.268	15047
917.38	15169
917.491	15165
917.603	15157
917.715	15127
917.826	15188
917.938	14982
918.049	14933
918.161	15005
918.272	15131
918.384	15260
918.495	15051
918.606	14902
918.717	14773
918.828	14872
918.939	14937
919.05	14758
919.161	14830
919.272	14689
919.383	14629
919.494	14876
919.604	14937
919.715	14796
919.826	14727
919.936	14773
920.047	14899
920.157	14845
920.267	15081
920.378	14807
920.488	14727
920.598	15097
920.708	15028
920.818	14880
920.928	14872
921.038	15100
921.148	15066
921.258	14781
921.368	14682
921.477	14636
921.587	14514
921.697	14393
921.806	14564
921.916	14419
922.025	14229
922.134	14157
922.244	14123
922.353	14290
922.462	14035
922.571	14001
922.68	13875
922.789	13837
922.898	13864
923.007	13738
923.116	13742
923.224	13826
923.333	13860
923.442	13757
923.55	13636
923.659	13772
923.767	13666
923.876	13632
923.984	13662
924.092	13449
924.201	13658
924.309	13559
924.417	13620
924.525	13499
924.633	13518
924.741	14282
924.849	13301
924.956	13343
925.064	13324
925.172	13247
925.279	13107
925.387	13247
925.494	13232
925.602	13312
925.709	13266
925.816	13152
925.924	13114
926.031	13324
926.138	13152
926.245	13190
926.352	13118
926.459	13129
926.566	13198
926.673	13038
926.779	12958
926.886	13034
926.993	12814
927.099	12825
927.206	12673
927.312	12783
927.419	12776
927.525	12795
927.631	12768
927.737	12726
927.843	12566
927.95	12563
928.056	12566
928.162	12570
928.267	12623
928.373	13152
928.479	12559
928.585	12403
928.69	12525
928.796	12544
928.901	12566
929.007	12327
929.112	12490
929.218	12369
929.323	12361
929.428	12228
929.533	12433
929.638	12315
929.743	12186
929.848	12228
929.953	12201
930.058	12110
930.163	11977
930.267	11923
930.372	12117
930.477	11897
930.581	12224
930.685	12034
930.79	11870
930.894	11870
930.998	11889
931.103	11923
931.207	11653
931.311	11520
931.415	11520
931.519	11250
931.623	11239
