Data from test_V78500241_304.txt Node
Date: Fri Mar 25 15:11:58 CST 2022
User: usil
Spectrometer: V785-0024
Trigger mode: 0
Integration Time (sec): 4.000000E-1
Scans to average: 1
Nonlinearity correction enabled: false
Boxcar width: 0
Storing dark spectrum: false
XAxis mode: Wavelengths
Number of Pixels in Spectrum: 1024
>>>>>Begin Spectral Data<<<<<
801.071	27880
801.214	27918
801.356	27812
801.499	27709
801.641	27751
801.783	27587
801.926	27644
802.068	27603
802.211	27363
802.353	27496
802.496	27386
802.638	27131
802.78	27176
802.923	27066
803.065	27180
803.208	27157
803.35	27176
803.492	27294
803.635	27485
803.777	27386
803.919	27435
804.061	27663
804.204	27359
804.346	27306
804.488	27294
804.63	27222
804.773	27089
804.915	27214
805.057	27466
805.199	27351
805.341	27291
805.483	27382
805.626	27401
805.768	27245
805.91	27507
806.052	27450
806.194	27439
806.336	27530
806.478	27477
806.62	27416
806.762	27644
806.904	27705
807.046	27930
807.188	27781
807.33	27774
807.472	27911
807.614	27679
807.756	27850
807.898	27770
808.04	27648
808.182	27561
808.324	27644
808.465	27686
808.607	27850
808.749	27838
808.891	28101
809.033	28291
809.174	28051
809.316	28040
809.458	28048
809.6	27991
809.741	28059
809.883	28147
810.025	28352
810.166	28158
810.308	28310
810.45	28386
810.591	28124
810.733	28059
810.875	27941
811.016	27690
811.158	27914
811.299	28120
811.441	28101
811.582	28051
811.724	28055
811.865	27987
812.007	27934
812.148	28086
812.29	28055
812.431	28192
812.573	28405
812.714	28379
812.855	28550
812.997	28668
813.138	28733
813.279	28523
813.421	28557
813.562	28630
813.703	28329
813.845	28249
813.986	27884
814.127	27778
814.268	27557
814.41	27652
814.551	27701
814.692	27648
814.833	27671
814.974	27538
815.115	27595
815.256	27496
815.397	27477
815.539	27572
815.68	27462
815.821	27469
815.962	27523
816.103	27416
816.244	27313
816.385	27245
816.526	27260
816.666	26998
816.807	26940
816.948	27013
817.089	27051
817.23	26868
817.371	26952
817.512	26914
817.653	26739
817.793	26921
817.934	26883
818.075	26857
818.216	26960
818.356	26895
818.497	26765
818.638	26701
818.778	26541
818.919	26640
819.06	26522
819.2	26682
819.341	26929
819.481	26891
819.622	27009
819.762	27184
819.903	27119
820.043	27176
820.184	26937
820.324	26925
820.465	26971
820.605	26868
820.746	26857
820.886	26788
821.026	26910
821.167	26883
821.307	26994
821.447	26975
821.588	26724
821.728	26708
821.868	26511
822.008	26419
822.149	26225
822.289	26298
822.429	26138
822.569	25936
822.709	26046
822.849	25879
822.99	25765
823.13	25788
823.27	25723
823.41	25628
823.55	25479
823.69	25616
823.83	25457
823.97	25685
824.11	25407
824.25	25457
824.389	25251
824.529	25529
824.669	25422
824.809	25594
824.949	25586
825.089	25575
825.228	25381
825.368	25198
825.508	25247
825.648	25335
825.787	25400
825.927	25377
826.067	25164
826.206	25202
826.346	25255
826.485	25297
826.625	25324
826.765	25304
826.904	25415
827.044	25015
827.183	24924
827.323	24935
827.462	25065
827.601	25069
827.741	24901
827.88	24989
828.02	24753
828.159	25000
828.298	24905
828.437	25084
828.577	24932
828.716	24886
828.855	24859
828.994	24585
829.134	24684
829.273	24711
829.412	24764
829.551	24688
829.69	24604
829.829	24650
829.968	24722
830.107	24703
830.246	24646
830.385	24502
830.524	24639
830.663	24494
830.802	24380
830.941	24289
831.08	24136
831.219	24273
831.357	24258
831.496	24391
831.635	24277
831.774	24251
831.913	24224
832.051	24057
832.19	24007
832.329	24114
832.467	23961
832.606	23889
832.744	23863
832.883	23828
833.022	23935
833.16	23904
833.299	24011
833.437	24003
833.576	24011
833.714	24091
833.852	23889
833.991	23992
834.129	24144
834.267	24030
834.406	23946
834.544	23878
834.682	23927
834.821	23874
834.959	24015
835.097	23802
835.235	23965
835.373	23965
835.511	23889
835.65	23794
835.788	23813
835.926	23646
836.064	23543
836.202	23756
836.34	23885
836.478	23794
836.615	23817
836.753	23817
836.891	23843
837.029	23794
837.167	23775
837.305	23687
837.443	23646
837.58	23710
837.718	23707
837.856	23710
837.993	23596
838.131	23695
838.269	23410
838.406	23433
838.544	23349
838.681	23265
838.819	23277
838.956	23117
839.094	23037
839.231	23181
839.369	23235
839.506	23406
839.643	23395
839.781	23044
839.918	23041
840.055	23166
840.193	22968
840.33	22942
840.467	23075
840.604	23113
840.742	23322
840.879	22923
841.016	22934
841.153	22862
841.29	23056
841.427	22885
841.564	22900
841.701	22938
841.838	22934
841.975	22759
842.112	22858
842.249	22736
842.385	22805
842.522	22877
842.659	22839
842.796	22713
842.933	22877
843.069	22683
843.206	22782
843.343	22812
843.479	22793
843.616	22835
843.752	22557
843.889	22512
844.025	22706
844.162	22390
844.298	22611
844.435	22577
844.571	22523
844.708	22519
844.844	22793
844.98	22573
845.117	22550
845.253	22417
845.389	22421
845.525	22417
845.661	22417
845.798	22166
845.934	22200
846.07	22329
846.206	22341
846.342	22379
846.478	22143
846.614	22101
846.75	21857
846.886	22010
847.022	21979
847.158	22090
847.294	21956
847.429	22013
847.565	21892
847.701	22230
847.837	21667
847.972	21720
848.108	21698
848.244	21838
848.379	21599
848.515	21507
848.65	21583
848.786	21477
848.921	21553
849.057	21705
849.192	21690
849.328	21481
849.463	21545
849.598	21538
849.734	21450
849.869	21443
850.004	21260
850.14	21310
850.275	21294
850.41	21245
850.545	21325
850.68	21298
850.815	21340
850.95	21218
851.085	21447
851.22	21496
851.355	21291
851.49	21294
851.625	21157
851.76	21249
851.895	21268
852.03	21211
852.165	21317
852.299	21332
852.434	21523
852.569	21287
852.703	21298
852.838	21386
852.973	21439
853.107	21370
853.242	21123
853.376	21089
853.511	21055
853.645	21058
853.78	21241
853.914	21131
854.048	21127
854.183	21138
854.317	21112
854.451	21131
854.585	21127
854.72	21070
854.854	21192
854.988	21058
855.122	21081
855.256	21062
855.39	21062
855.524	21226
855.658	21093
855.792	21150
855.926	21199
856.06	21100
856.194	21116
856.327	21032
856.461	21028
856.595	21009
856.729	20944
856.862	21211
856.996	21150
857.13	21203
857.263	21218
857.397	21165
857.53	21116
857.664	21154
857.797	21032
857.931	21131
858.064	21116
858.197	21199
858.331	21020
858.464	20967
858.597	21017
858.731	21119
858.864	21020
858.997	21039
859.13	21039
859.263	21157
859.396	21135
859.529	21089
859.662	21028
859.795	20990
859.928	21142
860.061	21279
860.194	21275
860.327	21104
860.46	21150
860.592	21283
860.725	21138
860.858	21199
860.99	21135
861.123	21131
861.256	21013
861.388	21058
861.521	21663
861.653	20842
861.786	20880
861.918	20971
862.05	20876
862.183	20948
862.315	21146
862.447	21131
862.58	21013
862.712	20758
862.844	20697
862.976	20823
863.108	20921
863.24	21313
863.372	20735
863.504	20727
863.636	20735
863.768	20788
863.9	20853
864.032	20750
864.164	20663
864.296	20781
864.428	20819
864.559	20796
864.691	20864
864.823	20807
864.954	20834
865.086	20834
865.217	20674
865.349	20621
865.48	20609
865.612	20598
865.743	20800
865.875	20727
866.006	20716
866.137	20731
866.269	20587
866.4	20644
866.531	20697
866.662	20568
866.793	20568
866.924	20602
867.055	20655
867.186	20632
867.317	20469
867.448	20514
867.579	20640
867.71	20552
867.841	20396
867.972	20663
868.103	20636
868.233	20568
868.364	20617
868.495	20667
868.625	20876
868.756	20914
868.886	20735
869.017	20777
869.147	20956
869.278	20960
869.408	20773
869.539	20746
869.669	20952
869.799	20998
869.929	21013
870.06	20944
870.19	21116
870.32	21070
870.45	21104
870.58	21233
870.71	21389
870.84	21154
870.97	21081
871.1	21252
871.23	21355
871.36	21389
871.489	21252
871.619	21344
871.749	21564
871.879	21485
872.008	21507
872.138	21477
872.267	21374
872.397	21382
872.526	21169
872.656	21116
872.785	21332
872.915	21401
873.044	21534
873.173	21412
873.303	21416
873.432	21606
873.561	21492
873.69	21454
873.819	21473
873.948	21606
874.077	21424
874.206	21397
874.335	21363
874.464	21447
874.593	21652
874.722	21511
874.851	21743
874.979	21701
875.108	21747
875.237	21682
875.365	21523
875.494	21614
875.623	21797
875.751	21591
875.88	21663
876.008	21762
876.136	21857
876.265	22295
876.393	22226
876.521	22154
876.65	22097
876.778	22223
876.906	22044
877.034	22032
877.162	22029
877.29	21979
877.418	22044
877.546	22109
877.674	22021
877.802	21949
877.93	22025
878.058	21972
878.185	22002
878.313	22082
878.441	21998
878.568	21972
878.696	21983
878.824	21975
878.951	22196
879.079	22268
879.206	22432
879.333	22253
879.461	22166
879.588	22086
879.715	22131
879.842	22314
879.97	22093
880.097	22013
880.224	21819
880.351	21918
880.478	21884
880.605	21819
880.732	21918
880.859	22082
880.986	21941
881.112	21915
881.239	21572
881.366	21679
881.493	21496
881.619	21519
881.746	21504
881.872	21473
881.999	21367
882.125	21401
882.252	21523
882.378	21431
882.505	21477
882.631	21294
882.757	21237
882.883	21355
883.01	21058
883.136	21123
883.262	21005
883.388	21074
883.514	21188
883.64	21294
883.766	21009
883.892	20876
884.018	20971
884.143	21112
884.269	21195
884.395	20963
884.52	20735
884.646	20834
884.772	20754
884.897	20708
885.023	20705
885.148	20872
885.274	20925
885.399	20845
885.524	20792
885.65	20739
885.775	20861
885.9	20636
886.025	20807
886.15	20963
886.275	20800
886.4	20735
886.525	20819
886.65	20743
886.775	20819
886.9	20838
887.025	21001
887.149	20781
887.274	20613
887.399	20533
887.523	20613
887.648	20492
887.773	20598
887.897	20545
888.021	20625
888.146	20499
888.27	20609
888.395	20651
888.519	20609
888.643	20636
888.767	20629
888.891	20408
889.015	20446
889.139	20438
889.263	20305
889.387	20393
889.511	20617
889.635	20545
889.759	20275
889.883	20301
890.006	20381
890.13	20514
890.254	20419
890.377	20374
890.501	20149
890.624	20050
890.748	20336
890.871	20073
890.995	19887
891.118	19917
891.241	19951
891.364	19928
891.488	20153
891.611	19955
891.734	19944
891.857	19986
891.98	19925
892.103	20024
892.226	19970
892.349	19925
892.471	19704
892.594	19898
892.717	19913
892.839	19871
892.962	19879
893.085	19963
893.207	19902
893.33	19712
893.452	19727
893.575	19909
893.697	19700
893.819	19955
893.941	20126
894.064	19928
894.186	19894
894.308	19902
894.43	19902
894.552	20111
894.674	19898
894.796	19807
894.918	19925
895.04	19818
895.161	19944
895.283	19906
895.405	19860
895.526	19890
895.648	19909
895.769	19940
895.891	19989
896.012	20024
896.134	20035
896.255	19875
896.376	19879
896.498	19967
896.619	19932
896.74	19860
896.861	20027
896.982	20286
897.103	20290
897.224	20145
897.345	19936
897.466	20062
897.587	20103
897.708	20183
897.828	20103
897.949	19940
898.07	20065
898.19	20008
898.311	20069
898.431	20024
898.552	20092
898.672	20153
898.792	20191
898.913	20092
899.033	19970
899.153	19807
899.273	19833
899.393	19795
899.513	19849
899.633	19917
899.753	19852
899.873	19677
899.993	19906
900.113	19761
900.232	19936
900.352	19807
900.472	19803
900.591	19655
900.711	19575
900.83	19563
900.95	19674
901.069	19750
901.189	19422
901.308	19228
901.427	19369
901.546	19221
901.665	19168
901.784	19198
901.904	19137
902.023	18970
902.141	18798
902.26	18772
902.379	18798
902.498	18802
902.617	18642
902.735	18753
902.854	18646
902.973	18646
903.091	18365
903.21	18361
903.328	18494
903.446	18289
903.565	18251
903.683	18205
903.801	18144
903.919	18060
904.038	18152
904.156	18026
904.274	18102
904.392	17950
904.51	17965
904.627	17954
904.745	18083
904.863	18102
904.981	17779
905.098	17703
905.216	17604
905.334	17642
905.451	17577
905.569	17589
905.686	17653
905.803	17657
905.921	17387
906.038	17429
906.155	17520
906.272	17330
906.389	17349
906.506	17231
906.623	17246
906.74	17193
906.857	17018
906.974	17109
907.091	17208
907.208	17223
907.324	17227
907.441	17105
907.557	16934
907.674	16889
907.79	16744
907.907	16831
908.023	16885
908.139	16869
908.256	16786
908.372	16828
908.488	16687
908.604	16637
908.72	16527
908.836	16599
908.952	16516
909.068	16546
909.184	16694
909.3	16641
909.415	16535
909.531	16573
909.647	16344
909.762	16386
909.878	16234
909.993	16360
910.108	16333
910.224	16246
910.339	16268
910.454	16230
910.57	16124
910.685	16006
910.8	16409
910.915	16211
911.03	16063
911.145	15941
911.259	15937
911.374	15907
911.489	15907
911.604	15797
911.718	15679
911.833	15564
911.947	15603
912.062	15614
912.176	15549
912.291	15576
912.405	15610
912.519	15781
912.633	15842
912.748	15705
912.862	15523
912.976	15496
913.09	15378
913.204	15351
913.318	15473
913.431	15561
913.545	15511
913.659	15450
913.772	15439
913.886	15275
914	15150
914.113	15386
914.226	15447
914.34	15336
914.453	15165
914.566	15321
914.68	15104
914.793	15245
914.906	14982
915.019	14872
915.132	14834
915.245	14937
915.358	14849
915.47	15001
915.583	14826
915.696	14925
915.809	14982
915.921	14990
916.034	14838
916.146	14826
916.259	14811
916.371	14849
916.483	14861
916.595	14743
916.708	14636
916.82	14632
916.932	14674
917.044	14670
917.156	14621
917.268	14522
917.38	14514
917.491	14560
917.603	14461
917.715	14522
917.826	14625
917.938	14473
918.049	14336
918.161	14404
918.272	14568
918.384	14568
918.495	14408
918.606	14202
918.717	14145
918.828	14343
918.939	14343
919.05	14180
919.161	14263
919.272	14039
919.383	14115
919.494	14218
919.604	14484
919.715	14290
919.826	14172
919.936	14233
920.047	14259
920.157	14252
920.267	14484
920.378	14286
920.488	14187
920.598	14374
920.708	14465
920.818	14393
920.928	14328
921.038	14533
921.148	14518
921.258	14229
921.368	14130
921.477	13940
921.587	13993
921.697	13803
921.806	13947
921.916	13902
922.025	13575
922.134	13537
922.244	13666
922.353	13666
922.462	13468
922.571	13457
922.68	13228
922.789	13266
922.898	13304
923.007	13217
923.116	13247
923.224	13266
923.333	13270
923.442	13057
923.55	12993
923.659	13175
923.767	13225
923.876	13069
923.984	13107
924.092	12935
924.201	12981
924.309	12932
924.417	12958
924.525	13004
924.633	12981
924.741	13712
924.849	12658
924.956	12901
925.064	12757
925.172	12616
925.279	12696
925.387	12726
925.494	12677
925.602	12878
925.709	12791
925.816	12589
925.924	12608
926.031	12753
926.138	12665
926.245	12738
926.352	12540
926.459	12604
926.566	12722
926.673	12582
926.779	12517
926.886	12498
926.993	12190
927.099	12285
927.206	12285
927.312	12243
927.419	12304
927.525	12220
927.631	12334
927.737	12216
927.843	12064
927.95	11942
928.056	12015
928.162	12136
928.267	12171
928.373	12787
928.479	12209
928.585	11855
928.69	12060
928.796	12117
928.901	11973
929.007	11836
929.112	12007
929.218	11923
929.323	11779
929.428	11786
929.533	11935
929.638	11760
929.743	11729
929.848	11821
929.953	11836
930.058	11661
930.163	11478
930.267	11520
930.372	11653
930.477	11493
930.581	11699
930.685	11608
930.79	11368
930.894	11478
930.998	11417
931.103	11516
931.207	11178
931.311	11060
931.415	10938
931.519	10812
931.623	10778
