Data from test_V78500241_1522.txt Node
Date: Fri Mar 25 15:20:27 CST 2022
User: usil
Spectrometer: V785-0024
Trigger mode: 0
Integration Time (sec): 4.000000E-1
Scans to average: 1
Nonlinearity correction enabled: false
Boxcar width: 0
Storing dark spectrum: false
XAxis mode: Wavelengths
Number of Pixels in Spectrum: 1024
>>>>>Begin Spectral Data<<<<<
801.071	28067
801.214	28048
801.356	27903
801.499	27755
801.641	27606
801.783	27705
801.926	27690
802.068	27732
802.211	27606
802.353	27431
802.496	27401
802.638	27443
802.78	27401
802.923	27291
803.065	27378
803.208	27294
803.35	27340
803.492	27485
803.635	27538
803.777	27618
803.919	27561
804.061	27930
804.204	27538
804.346	27420
804.488	27519
804.63	27500
804.773	27382
804.915	27652
805.057	27736
805.199	27603
805.341	27561
805.483	27766
805.626	27656
805.768	27614
805.91	27793
806.052	27739
806.194	27667
806.336	27850
806.478	27770
806.62	27663
806.762	27793
806.904	27873
807.046	28196
807.188	28109
807.33	28093
807.472	28226
807.614	28067
807.756	28097
807.898	27953
808.04	27838
808.182	27994
808.324	27819
808.465	28082
808.607	28268
808.749	28417
808.891	28424
809.033	28379
809.174	28375
809.316	28276
809.458	28394
809.6	28249
809.741	28599
809.883	28569
810.025	28641
810.166	28637
810.308	28542
810.45	28759
810.591	28512
810.733	28268
810.875	28310
811.016	28409
811.158	28265
811.299	28409
811.441	28622
811.582	28436
811.724	28333
811.865	28341
812.007	28405
812.148	28428
812.29	28341
812.431	28634
812.573	28854
812.714	28850
812.855	28835
812.997	29037
813.138	29124
813.279	29010
813.421	28991
813.562	28839
813.703	28782
813.845	28596
813.986	28337
814.127	28249
814.268	28154
814.41	28188
814.551	28078
814.692	28135
814.833	28055
814.974	28070
815.115	28074
815.256	28006
815.397	28063
815.539	27960
815.68	27945
815.821	27641
815.962	27945
816.103	27694
816.244	27728
816.385	27709
816.526	27610
816.666	27351
816.807	27382
816.948	27450
817.089	27450
817.23	27329
817.371	27389
817.512	27408
817.653	27302
817.793	27363
817.934	27443
818.075	27382
818.216	27329
818.356	27283
818.497	27443
818.638	27047
818.778	27188
818.919	27146
819.06	27127
819.2	27340
819.341	27466
819.481	27439
819.622	27485
819.762	27759
819.903	27705
820.043	27614
820.184	27378
820.324	27485
820.465	27542
820.605	27439
820.746	27488
820.886	27237
821.026	27473
821.167	27534
821.307	27477
821.447	27260
821.588	27268
821.728	27138
821.868	27043
822.008	26819
822.149	26845
822.289	26891
822.429	26617
822.569	26522
822.709	26545
822.849	26355
822.99	26278
823.13	26271
823.27	26298
823.41	26218
823.55	26065
823.69	26084
823.83	26043
823.97	26096
824.11	25997
824.25	25989
824.389	25845
824.529	25906
824.669	25906
824.809	26172
824.949	25982
825.089	26035
825.228	25970
825.368	25772
825.508	25887
825.648	25902
825.787	25970
825.927	25913
826.067	25947
826.206	25795
826.346	25856
826.485	25822
826.625	25750
826.765	25940
826.904	25932
827.044	25666
827.183	25529
827.323	25571
827.462	25590
827.601	25559
827.741	25575
827.88	25647
828.02	25449
828.159	25476
828.298	25479
828.437	25700
828.577	25396
828.716	25616
828.855	25426
828.994	25152
829.134	25228
829.273	25430
829.412	25129
829.551	25145
829.69	25190
829.829	25312
829.968	25396
830.107	25274
830.246	25202
830.385	25232
830.524	25183
830.663	25076
830.802	24970
830.941	24871
831.08	24837
831.219	24928
831.357	24890
831.496	24985
831.635	24783
831.774	24814
831.913	24711
832.051	24768
832.19	24650
832.329	24669
832.467	24479
832.606	24490
832.744	24403
832.883	24623
833.022	24369
833.16	24563
833.299	24494
833.437	24563
833.576	24536
833.714	24593
833.852	24612
833.991	24623
834.129	24677
834.267	24551
834.406	24505
834.544	24544
834.682	24608
834.821	24547
834.959	24768
835.097	24555
835.235	24612
835.373	24566
835.511	24654
835.65	24452
835.788	24342
835.926	24289
836.064	24216
836.202	24201
836.34	24342
836.478	24471
836.615	24384
836.753	24376
836.891	24467
837.029	24365
837.167	24273
837.305	24311
837.443	24254
837.58	24098
837.718	24308
837.856	24304
837.993	24186
838.131	24197
838.269	24197
838.406	24106
838.544	24167
838.681	23802
838.819	23824
838.956	23745
839.094	23764
839.231	23847
839.369	24053
839.506	23984
839.643	23950
839.781	23714
839.918	23707
840.055	23722
840.193	23634
840.33	23649
840.467	23634
840.604	23684
840.742	23931
840.879	23551
841.016	23627
841.153	23547
841.29	23573
841.427	23493
841.564	23745
841.701	23604
841.838	23642
841.975	23444
842.112	23638
842.249	23296
842.385	23379
842.522	23543
842.659	23383
842.796	23360
842.933	23337
843.069	23318
843.206	23379
843.343	23353
843.479	23307
843.616	23345
843.752	23071
843.889	23140
844.025	23284
844.162	23185
844.298	23235
844.435	23117
844.571	23071
844.708	23121
844.844	23303
844.98	23227
845.117	23296
845.253	23018
845.389	22999
845.525	23064
845.661	23025
845.798	22786
845.934	22965
846.07	22919
846.206	22839
846.342	22908
846.478	22812
846.614	22557
846.75	22561
846.886	22668
847.022	22649
847.158	22698
847.294	22599
847.429	22660
847.565	22531
847.701	22862
847.837	22390
847.972	22329
848.108	22367
848.244	22508
848.379	22295
848.515	22261
848.65	22173
848.786	22196
848.921	22162
849.057	22402
849.192	22139
849.328	22299
849.463	22158
849.598	22173
849.734	22150
849.869	22120
850.004	21907
850.14	22021
850.275	21949
850.41	21892
850.545	21884
850.68	21812
850.815	21972
850.95	21899
851.085	22074
851.22	22032
851.355	21956
851.49	21968
851.625	21941
851.76	21892
851.895	21838
852.03	21907
852.165	21888
852.299	21941
852.434	21994
852.569	22086
852.703	21983
852.838	21857
852.973	22036
853.107	22090
853.242	21861
853.376	21793
853.511	21660
853.645	21838
853.78	21880
853.914	21926
854.048	21720
854.183	21739
854.317	21781
854.451	21922
854.585	21781
854.72	21812
854.854	21911
854.988	21709
855.122	21766
855.256	21728
855.39	21720
855.524	21808
855.658	21762
855.792	21690
855.926	21743
856.06	21911
856.194	21888
856.327	21709
856.461	21698
856.595	21682
856.729	21804
856.862	21911
856.996	21865
857.13	21926
857.263	21922
857.397	21945
857.53	21743
857.664	21797
857.797	21823
857.931	21926
858.064	21903
858.197	21827
858.331	21713
858.464	21739
858.597	21633
858.731	21713
858.864	21648
858.997	21720
859.13	21690
859.263	21743
859.396	21838
859.529	21804
859.662	21762
859.795	21804
859.928	21865
860.061	21892
860.194	22059
860.327	21778
860.46	21800
860.592	21907
860.725	21918
860.858	21766
860.99	21743
861.123	21736
861.256	21724
861.388	21835
861.521	22588
861.653	21705
861.786	21568
861.918	21720
862.05	21507
862.183	21641
862.315	21766
862.447	21812
862.58	21656
862.712	21545
862.844	21523
862.976	21530
863.108	21648
863.24	21895
863.372	21488
863.504	21504
863.636	21462
863.768	21416
863.9	21428
864.032	21481
864.164	21374
864.296	21488
864.428	21523
864.559	21466
864.691	21656
864.823	21462
864.954	21538
865.086	21428
865.217	21370
865.349	21256
865.48	21351
865.612	21321
865.743	21504
865.875	21416
866.006	21507
866.137	21249
866.269	21405
866.4	21260
866.531	21348
866.662	21272
866.793	21279
866.924	21283
867.055	21245
867.186	21332
867.317	21241
867.448	21272
867.579	21176
867.71	21291
867.841	21226
867.972	21336
868.103	21218
868.233	21252
868.364	21348
868.495	21397
868.625	21481
868.756	21542
868.886	21412
869.017	21549
869.147	21648
869.278	21690
869.408	21523
869.539	21595
869.669	21705
869.799	21462
869.929	21709
870.06	21599
870.19	21888
870.32	21838
870.45	21724
870.58	21953
870.71	22029
870.84	21949
870.97	22013
871.1	21899
871.23	22017
871.36	22112
871.489	21956
871.619	21983
871.749	22158
871.879	22128
872.008	22299
872.138	22158
872.267	22093
872.397	21994
872.526	21915
872.656	21987
872.785	21903
872.915	22192
873.044	22173
873.173	22188
873.303	22219
873.432	22093
873.561	22299
873.69	22246
873.819	22154
873.948	22177
874.077	22230
874.206	22074
874.335	22196
874.464	22314
874.593	22443
874.722	22226
874.851	22386
874.979	22417
875.108	22462
875.237	22306
875.365	22360
875.494	22386
875.623	22417
875.751	22386
875.88	22363
876.008	22592
876.136	22516
876.265	22793
876.393	22911
876.521	22668
876.65	22831
876.778	22752
876.906	22683
877.034	22641
877.162	22683
877.29	22736
877.418	22634
877.546	22694
877.674	22771
877.802	22653
877.93	22713
878.058	22733
878.185	22653
878.313	22710
878.441	22584
878.568	22489
878.696	22649
878.824	22561
878.951	22687
879.079	22790
879.206	23071
879.333	22713
879.461	22698
879.588	22687
879.715	22790
879.842	22980
879.97	22831
880.097	22561
880.224	22523
880.351	22508
880.478	22679
880.605	22424
880.732	22573
880.859	22637
880.986	22443
881.112	22599
881.239	22295
881.366	22215
881.493	22192
881.619	22196
881.746	22162
881.872	22090
881.999	22044
882.125	21953
882.252	22173
882.378	22055
882.505	22192
882.631	21846
882.757	21774
882.883	21956
883.01	21759
883.136	21842
883.262	21504
883.388	21660
883.514	21732
883.64	21762
883.766	21774
883.892	21496
884.018	21606
884.143	21698
884.269	21789
884.395	21553
884.52	21431
884.646	21481
884.772	21466
884.897	21283
885.023	21458
885.148	21572
885.274	21622
885.399	21713
885.524	21439
885.65	21435
885.775	21416
885.9	21439
886.025	21504
886.15	21507
886.275	21393
886.4	21245
886.525	21397
886.65	21420
886.775	21424
886.9	21462
887.025	21557
887.149	21252
887.274	21252
887.399	21123
887.523	21135
887.648	21100
887.773	21089
887.897	21344
888.021	21081
888.146	21214
888.27	21325
888.395	21203
888.519	21211
888.643	21211
888.767	21222
888.891	21017
889.015	20944
889.139	21051
889.263	20899
889.387	21039
889.511	21207
889.635	21081
889.759	20963
889.883	20914
890.006	20979
890.13	21051
890.254	20960
890.377	20994
890.501	20686
890.624	20689
890.748	20838
890.871	20625
890.995	20552
891.118	20355
891.241	20636
891.364	20541
891.488	20621
891.611	20621
891.734	20507
891.857	20590
891.98	20511
892.103	20541
892.226	20602
892.349	20518
892.471	20355
892.594	20404
892.717	20492
892.839	20332
892.962	20431
893.085	20415
893.207	20351
893.33	20332
893.452	20381
893.575	20427
893.697	20370
893.819	20594
893.941	20686
894.064	20537
894.186	20309
894.308	20408
894.43	20617
894.552	20575
894.674	20396
894.796	20298
894.918	20442
895.04	20465
895.161	20606
895.283	20412
895.405	20393
895.526	20442
895.648	20450
895.769	20427
895.891	20442
896.012	20419
896.134	20556
896.255	20480
896.376	20343
896.498	20511
896.619	20495
896.74	20564
896.861	20514
896.982	20712
897.103	20811
897.224	20823
897.345	20697
897.466	20716
897.587	20689
897.708	20720
897.828	20537
897.949	20583
898.07	20427
898.19	20503
898.311	20731
898.431	20590
898.552	20792
898.672	20678
898.792	20701
898.913	20750
899.033	20480
899.153	20476
899.273	20370
899.393	20381
899.513	20473
899.633	20347
899.753	20355
899.873	20225
899.993	20495
900.113	20408
900.232	20366
900.352	20518
900.472	20130
900.591	20218
900.711	20210
900.83	20161
900.95	20271
901.069	20278
901.189	20012
901.308	19818
901.427	19772
901.546	19670
901.665	19765
901.784	19818
901.904	19734
902.023	19518
902.141	19266
902.26	19179
902.379	19327
902.498	19213
902.617	19190
902.735	19255
902.854	19221
902.973	19145
903.091	18973
903.21	19015
903.328	18951
903.446	18852
903.565	18798
903.683	18734
903.801	18608
903.919	18795
904.038	18620
904.156	18437
904.274	18593
904.392	18498
904.51	18403
904.627	18467
904.745	18448
904.863	18681
904.981	18254
905.098	18258
905.216	18209
905.334	18098
905.451	18091
905.569	18022
905.686	18144
905.803	18110
905.921	17927
906.038	18034
906.155	17996
906.272	17882
906.389	17927
906.506	17608
906.623	17672
906.74	17668
906.857	17493
906.974	17600
907.091	17764
907.208	17771
907.324	17649
907.441	17642
907.557	17509
907.674	17360
907.79	17334
907.907	17433
908.023	17459
908.139	17337
908.256	17383
908.372	17277
908.488	17337
908.604	17090
908.72	17140
908.836	17105
908.952	17037
909.068	17079
909.184	17185
909.3	17151
909.415	17132
909.531	17147
909.647	16873
909.762	16755
909.878	16816
909.993	16858
910.108	16740
910.224	16733
910.339	16752
910.454	16729
910.57	16603
910.685	16546
910.8	16812
910.915	16755
911.03	16577
911.145	16504
911.259	16390
911.374	16394
911.489	16287
911.604	16211
911.718	16090
911.833	16143
911.947	16093
912.062	16010
912.176	16059
912.291	16051
912.405	16090
912.519	16322
912.633	16257
912.748	16192
912.862	16082
912.976	16048
913.09	15831
913.204	15953
913.318	15918
913.431	16051
913.545	16074
913.659	16090
913.772	15937
913.886	15682
914	15717
914.113	15823
914.226	15895
914.34	15804
914.453	15656
914.566	15781
914.68	15671
914.793	15709
914.906	15507
915.019	15332
915.132	15325
915.245	15268
915.358	15332
915.47	15382
915.583	15291
915.696	15393
915.809	15519
915.921	15340
916.034	15287
916.146	15260
916.259	15184
916.371	15386
916.483	15279
916.595	15131
916.708	15237
916.82	15211
916.932	15252
917.044	15085
917.156	15081
917.268	14967
917.38	15104
917.491	14967
917.603	14963
917.715	15058
917.826	15001
917.938	14986
918.049	14838
918.161	14929
918.272	15036
918.384	15036
918.495	15001
918.606	14754
918.717	14758
918.828	14769
918.939	14758
919.05	14610
919.161	14762
919.272	14564
919.383	14640
919.494	14716
919.604	14868
919.715	14701
919.826	14720
919.936	14651
920.047	14804
920.157	14781
920.267	14868
920.378	14750
920.488	14701
920.598	14887
920.708	14975
920.818	14883
920.928	14807
921.038	15017
921.148	14929
921.258	14667
921.368	14499
921.477	14446
921.587	14423
921.697	14282
921.806	14431
921.916	14259
922.025	14058
922.134	14054
922.244	14058
922.353	14096
922.462	13913
922.571	13902
922.68	13719
922.789	13769
922.898	13784
923.007	13643
923.116	13696
923.224	13727
923.333	13731
923.442	13559
923.55	13460
923.659	13552
923.767	13674
923.876	13396
923.984	13590
924.092	13499
924.201	13495
924.309	13506
924.417	13434
924.525	13381
924.633	13384
924.741	14149
924.849	13251
924.956	13274
925.064	13129
925.172	13118
925.279	13084
925.387	13171
925.494	13050
925.602	13213
925.709	13137
925.816	13080
925.924	12954
926.031	13118
926.138	13114
926.245	13061
926.352	12875
926.459	13141
926.566	13160
926.673	12989
926.779	12859
926.886	12890
926.993	12703
927.099	12722
927.206	12779
927.312	12669
927.419	12726
927.525	12585
927.631	12738
927.737	12582
927.843	12513
927.95	12388
928.056	12551
928.162	12494
928.267	12608
928.373	13179
928.479	12528
928.585	12372
928.69	12563
928.796	12426
928.901	12467
929.007	12262
929.112	12319
929.218	12228
929.323	12334
929.428	12213
929.533	12342
929.638	12171
929.743	12148
929.848	12205
929.953	12205
930.058	12129
930.163	11893
930.267	11935
930.372	12030
930.477	11832
930.581	12091
930.685	11954
930.79	11828
930.894	11764
930.998	11737
931.103	11954
931.207	11554
931.311	11471
931.415	11414
931.519	11231
931.623	11113
