Data from test_V78500241_1068.txt Node
Date: Fri Mar 25 15:17:17 CST 2022
User: usil
Spectrometer: V785-0024
Trigger mode: 0
Integration Time (sec): 4.000000E-1
Scans to average: 1
Nonlinearity correction enabled: false
Boxcar width: 0
Storing dark spectrum: false
XAxis mode: Wavelengths
Number of Pixels in Spectrum: 1024
>>>>>Begin Spectral Data<<<<<
801.071	28257
801.214	28143
801.356	27884
801.499	27850
801.641	27797
801.783	27816
801.926	27823
802.068	27827
802.211	27755
802.353	27648
802.496	27591
802.638	27363
802.78	27469
802.923	27462
803.065	27382
803.208	27458
803.35	27424
803.492	27656
803.635	27720
803.777	27500
803.919	27557
804.061	27979
804.204	27736
804.346	27553
804.488	27477
804.63	27564
804.773	27732
804.915	27717
805.057	27899
805.199	27523
805.341	27739
805.483	27907
805.626	27960
805.768	27637
805.91	27717
806.052	27762
806.194	27660
806.336	28074
806.478	27911
806.62	27762
806.762	27987
806.904	28010
807.046	28405
807.188	28215
807.33	28261
807.472	28257
807.614	28207
807.756	28272
807.898	28215
808.04	28124
808.182	28093
808.324	28124
808.465	28185
808.607	28348
808.749	28462
808.891	28546
809.033	28569
809.174	28538
809.316	28557
809.458	28519
809.6	28478
809.741	28584
809.883	28694
810.025	28831
810.166	28805
810.308	28698
810.45	28797
810.591	28660
810.733	28557
810.875	28516
811.016	28398
811.158	28352
811.299	28569
811.441	28611
811.582	28653
811.724	28436
811.865	28436
812.007	28413
812.148	28398
812.29	28649
812.431	28752
812.573	28858
812.714	28900
812.855	28999
812.997	29197
813.138	29189
813.279	29288
813.421	29128
813.562	28980
813.703	28972
813.845	28611
813.986	28459
814.127	28375
814.268	28211
814.41	28200
814.551	28299
814.692	28341
814.833	28128
814.974	28219
815.115	28409
815.256	28029
815.397	28185
815.539	28219
815.68	28063
815.821	27983
815.962	28002
816.103	28215
816.244	27861
816.385	27956
816.526	27690
816.666	27633
816.807	27507
816.948	27606
817.089	27739
817.23	27519
817.371	27507
817.512	27572
817.653	27443
817.793	27412
817.934	27576
818.075	27561
818.216	27530
818.356	27424
818.497	27401
818.638	27100
818.778	27287
818.919	27279
819.06	27500
819.2	27427
819.341	27420
819.481	27580
819.622	27595
819.762	27884
819.903	27869
820.043	27861
820.184	27755
820.324	27705
820.465	27797
820.605	27701
820.746	27660
820.886	27447
821.026	27827
821.167	27652
821.307	27656
821.447	27526
821.588	27523
821.728	27359
821.868	27256
822.008	27081
822.149	26998
822.289	26967
822.429	26731
822.569	26716
822.709	26651
822.849	26511
822.99	26552
823.13	26609
823.27	26499
823.41	26332
823.55	26286
823.69	26423
823.83	26374
823.97	26446
824.11	26183
824.25	26221
824.389	26084
824.529	26252
824.669	26161
824.809	26499
824.949	26290
825.089	26210
825.228	26305
825.368	26172
825.508	26016
825.648	26126
825.787	26134
825.927	26252
826.067	25887
826.206	26096
826.346	26069
826.485	26134
826.625	26039
826.765	26157
826.904	26206
827.044	25833
827.183	25890
827.323	25780
827.462	25917
827.601	25803
827.741	25696
827.88	25776
828.02	25776
828.159	25712
828.298	25826
828.437	25791
828.577	25689
828.716	25818
828.855	25807
828.994	25609
829.134	25419
829.273	25628
829.412	25586
829.551	25392
829.69	25464
829.829	25643
829.968	25662
830.107	25666
830.246	25510
830.385	25479
830.524	25343
830.663	25373
830.802	25316
830.941	25206
831.08	25042
831.219	25255
831.357	25411
831.496	25217
831.635	25171
831.774	24909
831.913	25012
832.051	24970
832.19	24947
832.329	24875
832.467	24779
832.606	24791
832.744	24783
832.883	24901
833.022	24688
833.16	24852
833.299	24749
833.437	24859
833.576	24859
833.714	24741
833.852	24996
833.991	24966
834.129	24970
834.267	25012
834.406	24890
834.544	24890
834.682	24829
834.821	24798
834.959	25050
835.097	24840
835.235	24932
835.373	24913
835.511	24840
835.65	24764
835.788	24760
835.926	24757
836.064	24536
836.202	24631
836.34	24787
836.478	24814
836.615	24700
836.753	24726
836.891	24722
837.029	24642
837.167	24741
837.305	24772
837.443	24486
837.58	24593
837.718	24753
837.856	24642
837.993	24536
838.131	24635
838.269	24334
838.406	24327
838.544	24403
838.681	24136
838.819	24190
838.956	24087
839.094	24018
839.231	24102
839.369	24178
839.506	24464
839.643	24308
839.781	23992
839.918	24007
840.055	24007
840.193	24026
840.33	24034
840.467	23942
840.604	23904
840.742	24201
840.879	23927
841.016	23836
841.153	23813
841.29	23863
841.427	23931
841.564	24007
841.701	23897
841.838	24007
841.975	23741
842.112	23821
842.249	23775
842.385	23627
842.522	23783
842.659	23798
842.796	23604
842.933	23779
843.069	23790
843.206	23627
843.343	23722
843.479	23680
843.616	23630
843.752	23455
843.889	23524
844.025	23627
844.162	23554
844.298	23653
844.435	23497
844.571	23471
844.708	23539
844.844	23611
844.98	23691
845.117	23623
845.253	23429
845.389	23402
845.525	23398
845.661	23284
845.798	23200
845.934	23242
846.07	23121
846.206	23216
846.342	23379
846.478	23155
846.614	22927
846.75	22900
846.886	22847
847.022	23025
847.158	23014
847.294	22896
847.429	22869
847.565	22987
847.701	23143
847.837	22702
847.972	22596
848.108	22786
848.244	22755
848.379	22660
848.515	22462
848.65	22371
848.786	22550
848.921	22607
849.057	22523
849.192	22618
849.328	22577
849.463	22424
849.598	22656
849.734	22379
849.869	22360
850.004	22367
850.14	22367
850.275	22314
850.41	22158
850.545	22287
850.68	22356
850.815	22398
850.95	22287
851.085	22584
851.22	22295
851.355	22226
851.49	22234
851.625	22299
851.76	22272
851.895	22135
852.03	22097
852.165	22284
852.299	22295
852.434	22481
852.569	22310
852.703	22185
852.838	22303
852.973	22466
853.107	22287
853.242	22219
853.376	22128
853.511	22002
853.645	22021
853.78	22291
853.914	21994
854.048	22040
854.183	22006
854.317	22234
854.451	22226
854.585	22200
854.72	22128
854.854	22116
854.988	22082
855.122	22097
855.256	21968
855.39	22105
855.524	22131
855.658	22131
855.792	22055
855.926	22150
856.06	22181
856.194	22280
856.327	22010
856.461	21998
856.595	22032
856.729	22044
856.862	22284
856.996	22211
857.13	22101
857.263	22299
857.397	22177
857.53	22112
857.664	22150
857.797	22116
857.931	22131
858.064	22200
858.197	22200
858.331	22082
858.464	22002
858.597	22109
858.731	22116
858.864	22116
858.997	22067
859.13	22093
859.263	22181
859.396	22154
859.529	22029
859.662	21998
859.795	22013
859.928	22166
860.061	22276
860.194	22249
860.327	22185
860.46	22207
860.592	22223
860.725	22154
860.858	22166
860.99	22074
861.123	22082
861.256	22112
861.388	22120
861.521	22782
861.653	21949
861.786	21903
861.918	21918
862.05	22063
862.183	21983
862.315	22055
862.447	22162
862.58	21949
862.712	21895
862.844	21747
862.976	21804
863.108	21911
863.24	22348
863.372	21679
863.504	21804
863.636	21720
863.768	21846
863.9	21816
864.032	21778
864.164	21778
864.296	21846
864.428	22002
864.559	21880
864.691	21922
864.823	21766
864.954	21823
865.086	21679
865.217	21751
865.349	21656
865.48	21724
865.612	21770
865.743	21865
865.875	21686
866.006	21732
866.137	21717
866.269	21625
866.4	21561
866.531	21743
866.662	21580
866.793	21648
866.924	21580
867.055	21675
867.186	21519
867.317	21622
867.448	21534
867.579	21622
867.71	21443
867.841	21549
867.972	21682
868.103	21603
868.233	21671
868.364	21595
868.495	21709
868.625	21854
868.756	21987
868.886	21865
869.017	21926
869.147	21945
869.278	21956
869.408	21797
869.539	21895
869.669	21865
869.799	21876
869.929	22002
870.06	21975
870.19	22120
870.32	22253
870.45	22143
870.58	22284
870.71	22356
870.84	22363
870.97	22207
871.1	22246
871.23	22462
871.36	22405
871.489	22344
871.619	22337
871.749	22379
871.879	22573
872.008	22557
872.138	22489
872.267	22402
872.397	22394
872.526	22173
872.656	22360
872.785	22249
872.915	22508
873.044	22527
873.173	22379
873.303	22508
873.432	22485
873.561	22565
873.69	22512
873.819	22519
873.948	22538
874.077	22497
874.206	22428
874.335	22417
874.464	22599
874.593	22736
874.722	22588
874.851	22615
874.979	22618
875.108	22645
875.237	22637
875.365	22557
875.494	22618
875.623	22656
875.751	22656
875.88	22672
876.008	22733
876.136	22752
876.265	23155
876.393	23178
876.521	23128
876.65	23197
876.778	23044
876.906	22987
877.034	22881
877.162	22949
877.29	22999
877.418	23064
877.546	23121
877.674	22927
877.802	22968
877.93	22972
878.058	23071
878.185	22801
878.313	22919
878.441	22980
878.568	22885
878.696	22896
878.824	22987
878.951	23067
879.079	23121
879.206	23284
879.333	23113
879.461	23098
879.588	23018
879.715	23044
879.842	23368
879.97	23128
880.097	22976
880.224	22774
880.351	22869
880.478	22782
880.605	22828
880.732	22949
880.859	22869
880.986	22854
881.112	22866
881.239	22668
881.366	22607
881.493	22466
881.619	22500
881.746	22493
881.872	22440
881.999	22481
882.125	22398
882.252	22402
882.378	22386
882.505	22519
882.631	22253
882.757	22097
882.883	22173
883.01	22074
883.136	22093
883.262	21937
883.388	21975
883.514	21994
883.64	22120
883.766	22109
883.892	21842
884.018	21907
884.143	21960
884.269	22093
884.395	21800
884.52	21682
884.646	21785
884.772	21686
884.897	21610
885.023	21736
885.148	21778
885.274	21857
885.399	21827
885.524	21778
885.65	21641
885.775	21709
885.9	21652
886.025	21823
886.15	21759
886.275	21583
886.4	21614
886.525	21694
886.65	21682
886.775	21656
886.9	21709
887.025	21797
887.149	21587
887.274	21553
887.399	21580
887.523	21526
887.648	21515
887.773	21401
887.897	21515
888.021	21473
888.146	21401
888.27	21481
888.395	21614
888.519	21564
888.643	21511
888.767	21538
888.891	21344
889.015	21306
889.139	21279
889.263	21199
889.387	21519
889.511	21469
889.635	21416
889.759	21252
889.883	21188
890.006	21310
890.13	21378
890.254	21188
890.377	21211
890.501	21195
890.624	20956
890.748	21051
890.871	20963
890.995	20857
891.118	20823
891.241	20807
891.364	20876
891.488	20960
891.611	20769
891.734	20872
891.857	20861
891.98	20811
892.103	20960
892.226	20880
892.349	20743
892.471	20609
892.594	20746
892.717	20765
892.839	20629
892.962	20720
893.085	20876
893.207	20826
893.33	20693
893.452	20648
893.575	20800
893.697	20739
893.819	20864
893.941	20868
894.064	20830
894.186	20739
894.308	20629
894.43	20800
894.552	20857
894.674	20807
894.796	20461
894.918	20754
895.04	20686
895.161	20883
895.283	20788
895.405	20701
895.526	20819
895.648	20640
895.769	20788
895.891	20640
896.012	20792
896.134	20670
896.255	20663
896.376	20720
896.498	20689
896.619	20762
896.74	20720
896.861	20800
896.982	21032
897.103	21032
897.224	21001
897.345	20861
897.466	20807
897.587	20857
897.708	21028
897.828	21039
897.949	20929
898.07	20781
898.19	20876
898.311	20990
898.431	20815
898.552	20883
898.672	20948
898.792	20982
898.913	20845
899.033	20750
899.153	20804
899.273	20564
899.393	20777
899.513	20724
899.633	20712
899.753	20689
899.873	20530
899.993	20629
900.113	20575
900.232	20499
900.352	20568
900.472	20362
900.591	20389
900.711	20511
900.83	20313
900.95	20503
901.069	20450
901.189	20434
901.308	20043
901.427	19940
901.546	20043
901.665	19928
901.784	19951
901.904	19852
902.023	19685
902.141	19556
902.26	19571
902.379	19567
902.498	19525
902.617	19506
902.735	19480
902.854	19544
902.973	19438
903.091	19312
903.21	19080
903.328	19141
903.446	19069
903.565	18901
903.683	18951
903.801	18779
903.919	18844
904.038	18932
904.156	18730
904.274	18741
904.392	18525
904.51	18620
904.627	18707
904.745	18722
904.863	18707
904.981	18585
905.098	18429
905.216	18346
905.334	18456
905.451	18570
905.569	18361
905.686	18426
905.803	18361
905.921	18140
906.038	18327
906.155	18140
906.272	18072
906.389	18159
906.506	17965
906.623	17851
906.74	17904
906.857	17775
906.974	17786
907.091	17885
907.208	18064
907.324	18003
907.441	17878
907.557	17619
907.674	17684
907.79	17668
907.907	17615
908.023	17634
908.139	17558
908.256	17558
908.372	17535
908.488	17493
908.604	17299
908.72	17273
908.836	17391
908.952	17261
909.068	17425
909.184	17463
909.3	17269
909.415	17356
909.531	17288
909.647	17143
909.762	17090
909.878	17067
909.993	17079
910.108	17025
910.224	16957
910.339	16972
910.454	16934
910.57	16885
910.685	16839
910.8	16938
910.915	17033
911.03	16733
911.145	16634
911.259	16626
911.374	16733
911.489	16535
911.604	16519
911.718	16360
911.833	16306
911.947	16246
912.062	16219
912.176	16352
912.291	16371
912.405	16261
912.519	16577
912.633	16489
912.748	16409
912.862	16409
912.976	16188
913.09	16090
913.204	16139
913.318	16242
913.431	16253
913.545	16272
913.659	16333
913.772	16188
913.886	15953
914	15915
914.113	16116
914.226	16143
914.34	16006
914.453	15869
914.566	16036
914.68	15819
914.793	15747
914.906	15671
915.019	15557
915.132	15401
915.245	15606
915.358	15637
915.47	15530
915.583	15500
915.696	15564
915.809	15679
915.921	15682
916.034	15496
916.146	15439
916.259	15416
916.371	15553
916.483	15466
916.595	15473
916.708	15458
916.82	15504
916.932	15424
917.044	15256
917.156	15268
917.268	15291
917.38	15302
917.491	15256
917.603	15173
917.715	15382
917.826	15233
917.938	15157
918.049	14994
918.161	15226
918.272	15306
918.384	15275
918.495	15207
918.606	14956
918.717	14876
918.828	15009
918.939	14921
919.05	14967
919.161	14933
919.272	14754
919.383	14796
919.494	14925
919.604	15169
919.715	14929
919.826	14918
919.936	14910
920.047	14986
920.157	14914
920.267	15077
920.378	14758
920.488	14891
920.598	15142
920.708	15199
920.818	14990
920.928	14998
921.038	15188
921.148	15089
921.258	14838
921.368	14826
921.477	14663
921.587	14720
921.697	14473
921.806	14670
921.916	14530
922.025	14286
922.134	14290
922.244	14309
922.353	14248
922.462	14221
922.571	14119
922.68	13947
922.789	13982
922.898	13978
923.007	13818
923.116	13940
923.224	13909
923.333	13894
923.442	13795
923.55	13757
923.659	13742
923.767	13849
923.876	13708
923.984	13833
924.092	13578
924.201	13586
924.309	13681
924.417	13719
924.525	13605
924.633	13552
924.741	14434
924.849	13400
924.956	13510
925.064	13377
925.172	13282
925.279	13331
925.387	13381
925.494	13285
925.602	13388
925.709	13312
925.816	13209
925.924	13251
926.031	13259
926.138	13297
926.245	13240
926.352	13225
926.459	13308
926.566	13301
926.673	13164
926.779	13038
926.886	13072
926.993	12939
927.099	12913
927.206	12844
927.312	12833
927.419	12890
927.525	12840
927.631	12814
927.737	12726
927.843	12711
927.95	12608
928.056	12623
928.162	12650
928.267	12703
928.373	13198
928.479	12673
928.585	12395
928.69	12635
928.796	12623
928.901	12471
929.007	12410
929.112	12517
929.218	12471
929.323	12407
929.428	12426
929.533	12502
929.638	12289
929.743	12338
929.848	12414
929.953	12319
930.058	12171
930.163	12015
930.267	12053
930.372	12205
930.477	12072
930.581	12205
930.685	12175
930.79	12007
930.894	11950
930.998	11927
931.103	12129
931.207	11707
931.311	11551
931.415	11516
931.519	11299
931.623	11299
