Data from test_V78500241_2446.txt Node
Date: Fri Mar 25 15:26:53 CST 2022
User: usil
Spectrometer: V785-0024
Trigger mode: 0
Integration Time (sec): 4.000000E-1
Scans to average: 1
Nonlinearity correction enabled: false
Boxcar width: 0
Storing dark spectrum: false
XAxis mode: Wavelengths
Number of Pixels in Spectrum: 1024
>>>>>Begin Spectral Data<<<<<
801.071	27100
801.214	27017
801.356	26750
801.499	26731
801.641	26693
801.783	26552
801.926	26670
802.068	26640
802.211	26587
802.353	26385
802.496	26408
802.638	26122
802.78	26157
802.923	26016
803.065	26012
803.208	26225
803.35	26142
803.492	26301
803.635	26499
803.777	26263
803.919	26438
804.061	26769
804.204	26355
804.346	26309
804.488	26298
804.63	26358
804.773	26199
804.915	26374
805.057	26549
805.199	26400
805.341	26404
805.483	26518
805.626	26427
805.768	26518
805.91	26457
806.052	26423
806.194	26381
806.336	26575
806.478	26526
806.62	26465
806.762	26602
806.904	26606
807.046	26933
807.188	26902
807.33	26998
807.472	27039
807.614	26777
807.756	26819
807.898	26842
808.04	26613
808.182	26708
808.324	26819
808.465	26754
808.607	26960
808.749	27036
808.891	27051
809.033	27218
809.174	27176
809.316	26963
809.458	27062
809.6	27028
809.741	27017
809.883	27184
810.025	27287
810.166	27233
810.308	27188
810.45	27214
810.591	27195
810.733	26929
810.875	26986
811.016	26998
811.158	26929
811.299	27066
811.441	27100
811.582	27161
811.724	27051
811.865	26971
812.007	27058
812.148	26921
812.29	27020
812.431	27024
812.573	27321
812.714	27431
812.855	27599
812.997	27572
813.138	27812
813.279	27667
813.421	27648
813.562	27477
813.703	27321
813.845	27321
813.986	26952
814.127	26804
814.268	26686
814.41	26826
814.551	26571
814.692	26765
814.833	26655
814.974	26659
815.115	26670
815.256	26708
815.397	26564
815.539	26579
815.68	26457
815.821	26511
815.962	26640
816.103	26488
816.244	26305
816.385	26168
816.526	26225
816.666	26149
816.807	25997
816.948	26107
817.089	26081
817.23	26096
817.371	25890
817.512	25947
817.653	25986
817.793	25814
817.934	25788
818.075	25894
818.216	26039
818.356	25830
818.497	25860
818.638	25693
818.778	25639
818.919	25647
819.06	25860
819.2	25791
819.341	25883
819.481	25951
819.622	26119
819.762	26256
819.903	26183
820.043	26069
820.184	26062
820.324	26027
820.465	26065
820.605	26069
820.746	26126
820.886	25947
821.026	25898
821.167	25913
821.307	26062
821.447	26005
821.588	25883
821.728	25841
821.868	25434
822.008	25362
822.149	25407
822.289	25392
822.429	25183
822.569	25141
822.709	25107
822.849	24913
822.99	24935
823.13	24920
823.27	24856
823.41	24665
823.55	24665
823.69	24833
823.83	24673
823.97	24654
824.11	24528
824.25	24505
824.389	24566
824.529	24627
824.669	24528
824.809	24623
824.949	24681
825.089	24715
825.228	24631
825.368	24502
825.508	24407
825.648	24422
825.787	24475
825.927	24471
826.067	24319
826.206	24426
826.346	24426
826.485	24547
826.625	24357
826.765	24620
826.904	24445
827.044	24296
827.183	24197
827.323	24076
827.462	24194
827.601	24201
827.741	24117
827.88	24034
828.02	23996
828.159	24018
828.298	24152
828.437	24243
828.577	24034
828.716	24140
828.855	24003
828.994	23859
829.134	23859
829.273	23931
829.412	23878
829.551	23760
829.69	23866
829.829	23901
829.968	23878
830.107	23866
830.246	23927
830.385	23794
830.524	23855
830.663	23699
830.802	23539
830.941	23452
831.08	23410
831.219	23554
831.357	23524
831.496	23691
831.635	23376
831.774	23391
831.913	23376
832.051	23417
832.19	23231
832.329	23284
832.467	23223
832.606	23166
832.744	23128
832.883	23056
833.022	23071
833.16	23223
833.299	23143
833.437	23250
833.576	23212
833.714	23246
833.852	23239
833.991	23292
834.129	23299
834.267	23337
834.406	23318
834.544	23311
834.682	23223
834.821	23056
834.959	23356
835.097	23155
835.235	23212
835.373	23235
835.511	23216
835.65	23041
835.788	23090
835.926	22934
836.064	22881
836.202	22900
836.34	23048
836.478	23064
836.615	23003
836.753	23086
836.891	23189
837.029	23056
837.167	22961
837.305	22961
837.443	22831
837.58	22889
837.718	23037
837.856	22938
837.993	22850
838.131	22904
838.269	22645
838.406	22869
838.544	22618
838.681	22622
838.819	22626
838.956	22398
839.094	22379
839.231	22344
839.369	22554
839.506	22915
839.643	22485
839.781	22447
839.918	22421
840.055	22310
840.193	22341
840.33	22234
840.467	22371
840.604	22402
840.742	22428
840.879	22185
841.016	22192
841.153	22230
841.29	22287
841.427	22314
841.564	22310
841.701	22299
841.838	22147
841.975	22051
842.112	22055
842.249	22124
842.385	22036
842.522	22185
842.659	22116
842.796	21956
842.933	22044
843.069	22078
843.206	22162
843.343	22090
843.479	22207
843.616	22032
843.752	21835
843.889	21941
844.025	22002
844.162	21823
844.298	21937
844.435	21888
844.571	21869
844.708	21869
844.844	22013
844.98	22021
845.117	21983
845.253	21781
845.389	21682
845.525	21743
845.661	21686
845.798	21580
845.934	21648
846.07	21583
846.206	21644
846.342	21641
846.478	21610
846.614	21283
846.75	21332
846.886	21252
847.022	21424
847.158	21344
847.294	21272
847.429	21351
847.565	21291
847.701	21568
847.837	21184
847.972	21032
848.108	21157
848.244	21199
848.379	20960
848.515	20925
848.65	20845
848.786	20902
848.921	20967
849.057	21104
849.192	20956
849.328	21032
849.463	20933
849.598	20857
849.734	20743
849.869	20864
850.004	20693
850.14	20842
850.275	20750
850.41	20606
850.545	20708
850.68	20636
850.815	20686
850.95	20552
851.085	20906
851.22	20746
851.355	20648
851.49	20621
851.625	20640
851.76	20765
851.895	20579
852.03	20545
852.165	20762
852.299	20564
852.434	20739
852.569	20689
852.703	20701
852.838	20720
852.973	20895
853.107	20929
853.242	20659
853.376	20549
853.511	20454
853.645	20358
853.78	20541
853.914	20602
854.048	20438
854.183	20499
854.317	20499
854.451	20708
854.585	20522
854.72	20602
854.854	20636
854.988	20419
855.122	20454
855.256	20290
855.39	20469
855.524	20556
855.658	20564
855.792	20434
855.926	20518
856.06	20514
856.194	20587
856.327	20522
856.461	20514
856.595	20530
856.729	20442
856.862	20590
856.996	20568
857.13	20674
857.263	20663
857.397	20514
857.53	20465
857.664	20457
857.797	20549
857.931	20636
858.064	20442
858.197	20636
858.331	20545
858.464	20362
858.597	20427
858.731	20530
858.864	20450
858.997	20404
859.13	20549
859.263	20549
859.396	20590
859.529	20434
859.662	20454
859.795	20408
859.928	20473
860.061	20640
860.194	20716
860.327	20560
860.46	20492
860.592	20583
860.725	20720
860.858	20598
860.99	20575
861.123	20366
861.256	20533
861.388	20473
861.521	21135
861.653	20377
861.786	20294
861.918	20317
862.05	20381
862.183	20434
862.315	20473
862.447	20492
862.58	20362
862.712	20176
862.844	20199
862.976	20374
863.108	20332
863.24	20571
863.372	20130
863.504	20233
863.636	20172
863.768	20347
863.9	20138
864.032	20202
864.164	20161
864.296	20199
864.428	20313
864.559	20259
864.691	20290
864.823	20271
864.954	20278
865.086	20191
865.217	20229
865.349	20081
865.48	20195
865.612	20164
865.743	20134
865.875	20180
866.006	20058
866.137	20134
866.269	20142
866.4	19978
866.531	20043
866.662	19986
866.793	20180
866.924	20084
867.055	20050
867.186	20069
867.317	20065
867.448	19887
867.579	20050
867.71	20069
867.841	20065
867.972	20008
868.103	20096
868.233	20134
868.364	19978
868.495	20202
868.625	20278
868.756	20442
868.886	20206
869.017	20305
869.147	20358
869.278	20427
869.408	20396
869.539	20286
869.669	20366
869.799	20355
869.929	20434
870.06	20450
870.19	20560
870.32	20602
870.45	20762
870.58	20758
870.71	20777
870.84	20887
870.97	20682
871.1	20659
871.23	20956
871.36	20899
871.489	20807
871.619	20845
871.749	20792
871.879	20963
872.008	21013
872.138	21077
872.267	20971
872.397	20853
872.526	20853
872.656	20667
872.785	20697
872.915	21032
873.044	21051
873.173	20990
873.303	20952
873.432	20952
873.561	21009
873.69	20918
873.819	20845
873.948	21074
874.077	20937
874.206	20975
874.335	20990
874.464	21047
874.593	21138
874.722	21070
874.851	21184
874.979	21252
875.108	21233
875.237	21100
875.365	21116
875.494	21108
875.623	21218
875.751	21287
875.88	21233
876.008	21275
876.136	21401
876.265	21542
876.393	21633
876.521	21564
876.65	21644
876.778	21675
876.906	21622
877.034	21408
877.162	21534
877.29	21504
877.418	21542
877.546	21561
877.674	21488
877.802	21614
877.93	21523
878.058	21515
878.185	21545
878.313	21458
878.441	21534
878.568	21317
878.696	21633
878.824	21542
878.951	21629
879.079	21606
879.206	21812
879.333	21622
879.461	21644
879.588	21701
879.715	21641
879.842	21865
879.97	21652
880.097	21428
880.224	21332
880.351	21393
880.478	21291
880.605	21374
880.732	21233
880.859	21545
880.986	21408
881.112	21386
881.239	21287
881.366	21085
881.493	20994
881.619	20952
881.746	21077
881.872	20986
881.999	20902
882.125	20895
882.252	20921
882.378	20967
882.505	21051
882.631	20773
882.757	20674
882.883	20746
883.01	20655
883.136	20640
883.262	20568
883.388	20495
883.514	20613
883.64	20716
883.766	20613
883.892	20495
884.018	20484
884.143	20590
884.269	20682
884.395	20320
884.52	20275
884.646	20370
884.772	20153
884.897	20164
885.023	20313
885.148	20396
885.274	20526
885.399	20431
885.524	20298
885.65	20263
885.775	20210
885.9	20225
886.025	20278
886.15	20317
886.275	20252
886.4	20267
886.525	20282
886.65	20138
886.775	20149
886.9	20370
887.025	20556
887.149	20370
887.274	20180
887.399	20119
887.523	20100
887.648	20012
887.773	19967
887.897	20195
888.021	20134
888.146	20100
888.27	20187
888.395	20195
888.519	20142
888.643	20195
888.767	20138
888.891	19887
889.015	19921
889.139	19989
889.263	19925
889.387	20008
889.511	20103
889.635	19967
889.759	19955
889.883	19974
890.006	19890
890.13	19967
890.254	19849
890.377	19803
890.501	19635
890.624	19632
890.748	19704
890.871	19635
890.995	19472
891.118	19411
891.241	19506
891.364	19575
891.488	19635
891.611	19537
891.734	19487
891.857	19510
891.98	19521
892.103	19537
892.226	19544
892.349	19411
892.471	19312
892.594	19377
892.717	19445
892.839	19476
892.962	19331
893.085	19491
893.207	19327
893.33	19251
893.452	19327
893.575	19411
893.697	19384
893.819	19487
893.941	19518
894.064	19506
894.186	19324
894.308	19434
894.43	19403
894.552	19460
894.674	19518
894.796	19225
894.918	19453
895.04	19373
895.161	19468
895.283	19537
895.405	19381
895.526	19396
895.648	19381
895.769	19407
895.891	19495
896.012	19556
896.134	19491
896.255	19434
896.376	19445
896.498	19422
896.619	19575
896.74	19381
896.861	19514
896.982	19734
897.103	19917
897.224	19814
897.345	19624
897.466	19613
897.587	19708
897.708	19750
897.828	19689
897.949	19670
898.07	19502
898.19	19559
898.311	19780
898.431	19578
898.552	19632
898.672	19731
898.792	19715
898.913	19837
899.033	19620
899.153	19491
899.273	19388
899.393	19400
899.513	19559
899.633	19457
899.753	19445
899.873	19251
899.993	19419
900.113	19335
900.232	19441
900.352	19373
900.472	19266
900.591	19282
900.711	19209
900.83	19171
900.95	19263
901.069	19415
901.189	19206
901.308	18848
901.427	18848
901.546	18798
901.665	18875
901.784	18814
901.904	18665
902.023	18551
902.141	18426
902.26	18281
902.379	18467
902.498	18289
902.617	18266
902.735	18251
902.854	18273
902.973	18285
903.091	18022
903.21	18007
903.328	18007
903.446	17882
903.565	17832
903.683	17882
903.801	17767
903.919	17771
904.038	17798
904.156	17680
904.274	17687
904.392	17630
904.51	17589
904.627	17642
904.745	17596
904.863	17539
904.981	17334
905.098	17280
905.216	17307
905.334	17261
905.451	17140
905.569	17277
905.686	17406
905.803	17299
905.921	17102
906.038	17151
906.155	17189
906.272	17029
906.389	16885
906.506	16809
906.623	16801
906.74	16816
906.857	16691
906.974	16782
907.091	16862
907.208	16881
907.324	16934
907.441	16755
907.557	16550
907.674	16470
907.79	16561
907.907	16413
908.023	16558
908.139	16615
908.256	16481
908.372	16447
908.488	16462
908.604	16413
908.72	16291
908.836	16192
908.952	16200
909.068	16306
909.184	16417
909.3	16268
909.415	16276
909.531	16356
909.647	16048
909.762	15983
909.878	15968
909.993	16002
910.108	15915
910.224	15964
910.339	15945
910.454	15835
910.57	15778
910.685	15656
910.8	16010
910.915	15918
911.03	15785
911.145	15671
911.259	15519
911.374	15587
911.489	15504
911.604	15405
911.718	15302
911.833	15336
911.947	15237
912.062	15150
912.176	15279
912.291	15317
912.405	15336
912.519	15500
912.633	15549
912.748	15363
912.862	15279
912.976	15173
913.09	15036
913.204	15085
913.318	15192
913.431	15195
913.545	15218
913.659	15317
913.772	15036
913.886	15020
914	14990
914.113	15074
914.226	14982
914.34	14960
914.453	14845
914.566	15032
914.68	14872
914.793	14739
914.906	14636
915.019	14575
915.132	14469
915.245	14610
915.358	14670
915.47	14632
915.583	14610
915.696	14644
915.809	14621
915.921	14701
916.034	14545
916.146	14503
916.259	14450
916.371	14492
916.483	14602
916.595	14332
916.708	14457
916.82	14495
916.932	14446
917.044	14419
917.156	14324
917.268	14286
917.38	14286
917.491	14210
917.603	14271
917.715	14313
917.826	14381
917.938	14191
918.049	14103
918.161	14206
918.272	14336
918.384	14385
918.495	14218
918.606	14058
918.717	14005
918.828	14046
918.939	14016
919.05	14008
919.161	14050
919.272	13761
919.383	13890
919.494	14084
919.604	14244
919.715	14001
919.826	13936
919.936	13997
920.047	14073
920.157	14054
920.267	14134
920.378	14035
920.488	13974
920.598	14199
920.708	14366
920.818	14046
920.928	14100
921.038	14298
921.148	14161
921.258	14008
921.368	13902
921.477	13757
921.587	13814
921.697	13609
921.806	13696
921.916	13578
922.025	13411
922.134	13434
922.244	13377
922.353	13362
922.462	13369
922.571	13244
922.68	13034
922.789	13050
922.898	12985
923.007	13027
923.116	13110
923.224	13088
923.333	13012
923.442	12935
923.55	12943
923.659	12920
923.767	12962
923.876	12795
923.984	12863
924.092	12692
924.201	12821
924.309	12821
924.417	12848
924.525	12681
924.633	12726
924.741	13700
924.849	12574
924.956	12745
925.064	12544
925.172	12528
925.279	12521
925.387	12494
925.494	12509
925.602	12642
925.709	12547
925.816	12441
925.924	12483
926.031	12623
926.138	12460
926.245	12467
926.352	12327
926.459	12433
926.566	12479
926.673	12410
926.779	12315
926.886	12232
926.993	12159
927.099	12175
927.206	12030
927.312	12015
927.419	12163
927.525	12087
927.631	12019
927.737	11984
927.843	11950
927.95	11794
928.056	11893
928.162	11950
928.267	11996
928.373	12570
928.479	12087
928.585	11764
928.69	11802
928.796	11912
928.901	11790
929.007	11691
929.112	11836
929.218	11707
929.323	11695
929.428	11649
929.533	11802
929.638	11551
929.743	11596
929.848	11771
929.953	11558
930.058	11547
930.163	11315
930.267	11414
930.372	11463
930.477	11280
930.581	11482
930.685	11467
930.79	11258
930.894	11254
930.998	11140
931.103	11303
931.207	10987
931.311	10904
931.415	10858
931.519	10653
931.623	10561
