Data from test_V78500241_2830.txt Node
Date: Fri Mar 25 15:29:33 CST 2022
User: usil
Spectrometer: V785-0024
Trigger mode: 0
Integration Time (sec): 4.000000E-1
Scans to average: 1
Nonlinearity correction enabled: false
Boxcar width: 0
Storing dark spectrum: false
XAxis mode: Wavelengths
Number of Pixels in Spectrum: 1024
>>>>>Begin Spectral Data<<<<<
801.071	27325
801.214	27222
801.356	26800
801.499	26967
801.641	26883
801.783	26785
801.926	26819
802.068	26788
802.211	26819
802.353	26712
802.496	26499
802.638	26514
802.78	26556
802.923	26370
803.065	26351
803.208	26320
803.35	26313
803.492	26670
803.635	26564
803.777	26461
803.919	26606
804.061	26834
804.204	26720
804.346	26564
804.488	26343
804.63	26583
804.773	26560
804.915	26632
805.057	26613
805.199	26488
805.341	26697
805.483	26663
805.626	26705
805.768	26571
805.91	26602
806.052	26826
806.194	26667
806.336	26807
806.478	26735
806.62	26811
806.762	26796
806.904	26952
807.046	27218
807.188	27093
807.33	27077
807.472	27066
807.614	27017
807.756	27096
807.898	27077
808.04	26937
808.182	26899
808.324	27001
808.465	27013
808.607	27066
808.749	27420
808.891	27287
809.033	27439
809.174	27431
809.316	27458
809.458	27272
809.6	27245
809.741	27367
809.883	27294
810.025	27485
810.166	27583
810.308	27618
810.45	27526
810.591	27351
810.733	27245
810.875	27313
811.016	27298
811.158	27249
811.299	27412
811.441	27622
811.582	27583
811.724	27329
811.865	27104
812.007	27199
812.148	27192
812.29	27340
812.431	27542
812.573	27576
812.714	27682
812.855	27774
812.997	27888
813.138	27876
813.279	27816
813.421	27873
813.562	27797
813.703	27561
813.845	27481
813.986	27245
814.127	26944
814.268	26971
814.41	26872
814.551	26929
814.692	27074
814.833	26990
814.974	26967
815.115	26838
815.256	26773
815.397	26815
815.539	26887
815.68	26678
815.821	26682
815.962	26708
816.103	26621
816.244	26594
816.385	26549
816.526	26518
816.666	26313
816.807	26282
816.948	26244
817.089	26339
817.23	26298
817.371	26195
817.512	26202
817.653	26157
817.793	26172
817.934	26164
818.075	26347
818.216	26111
818.356	26119
818.497	26103
818.638	26005
818.778	25898
818.919	25944
819.06	26081
819.2	26046
819.341	26126
819.481	26214
819.622	26419
819.762	26431
819.903	26415
820.043	26278
820.184	26286
820.324	26267
820.465	26298
820.605	26229
820.746	26313
820.886	26191
821.026	26301
821.167	26309
821.307	26358
821.447	26259
821.588	26157
821.728	26039
821.868	25887
822.008	25677
822.149	25529
822.289	25651
822.429	25381
822.569	25354
822.709	25350
822.849	25126
822.99	25350
823.13	25091
823.27	25110
823.41	24962
823.55	24932
823.69	25034
823.83	24856
823.97	25053
824.11	24844
824.25	24810
824.389	24715
824.529	24833
824.669	24779
824.809	24909
824.949	24875
825.089	24859
825.228	24859
825.368	24722
825.508	24620
825.648	24650
825.787	24768
825.927	24795
826.067	24738
826.206	24700
826.346	24597
826.485	24696
826.625	24646
826.765	24852
826.904	24684
827.044	24350
827.183	24357
827.323	24513
827.462	24494
827.601	24448
827.741	24357
827.88	24273
828.02	24235
828.159	24197
828.298	24380
828.437	24532
828.577	24273
828.716	24475
828.855	24327
828.994	24133
829.134	24159
829.273	23996
829.412	24064
829.551	24057
829.69	24030
829.829	24083
829.968	24171
830.107	24095
830.246	24057
830.385	23954
830.524	23935
830.663	23821
830.802	23809
830.941	23528
831.08	23566
831.219	23687
831.357	23718
831.496	23870
831.635	23634
831.774	23531
831.913	23425
832.051	23433
832.19	23372
832.329	23425
832.467	23261
832.606	23181
832.744	23239
832.883	23318
833.022	23269
833.16	23334
833.299	23284
833.437	23387
833.576	23360
833.714	23448
833.852	23486
833.991	23364
834.129	23516
834.267	23501
834.406	23414
834.544	23459
834.682	23478
834.821	23341
834.959	23528
835.097	23387
835.235	23501
835.373	23345
835.511	23296
835.65	23265
835.788	23258
835.926	23132
836.064	23006
836.202	23083
836.34	23204
836.478	23337
836.615	23178
836.753	23216
836.891	23376
837.029	23284
837.167	23174
837.305	23113
837.443	23136
837.58	23018
837.718	23197
837.856	23102
837.993	22915
838.131	23044
838.269	23025
838.406	22839
838.544	22721
838.681	22752
838.819	22782
838.956	22481
839.094	22615
839.231	22592
839.369	22858
839.506	22999
839.643	22797
839.781	22611
839.918	22489
840.055	22504
840.193	22466
840.33	22360
840.467	22489
840.604	22504
840.742	22740
840.879	22322
841.016	22367
841.153	22382
841.29	22497
841.427	22599
841.564	22462
841.701	22535
841.838	22314
841.975	22432
842.112	22447
842.249	22386
842.385	22333
842.522	22455
842.659	22371
842.796	22112
842.933	22291
843.069	22116
843.206	22048
843.343	22325
843.479	22226
843.616	22230
843.752	21934
843.889	22036
844.025	22147
844.162	21998
844.298	22082
844.435	22082
844.571	21907
844.708	22032
844.844	22234
844.98	22147
845.117	22063
845.253	21953
845.389	21785
845.525	21972
845.661	21960
845.798	21804
845.934	21861
846.07	21644
846.206	21701
846.342	21797
846.478	21797
846.614	21511
846.75	21473
846.886	21485
847.022	21526
847.158	21572
847.294	21389
847.429	21416
847.565	21450
847.701	21804
847.837	21214
847.972	21093
848.108	21389
848.244	21252
848.379	21123
848.515	21024
848.65	20979
848.786	20948
848.921	21093
849.057	21176
849.192	21119
849.328	21116
849.463	21138
849.598	21077
849.734	20948
849.869	21062
850.004	20876
850.14	20796
850.275	20872
850.41	20632
850.545	20811
850.68	20769
850.815	20880
850.95	20887
851.085	21131
851.22	20902
851.355	20891
851.49	20731
851.625	20773
851.76	20804
851.895	20788
852.03	20777
852.165	20864
852.299	20902
852.434	20891
852.569	20842
852.703	20815
852.838	20864
852.973	20914
853.107	20887
853.242	20743
853.376	20758
853.511	20545
853.645	20514
853.78	20724
853.914	20632
854.048	20598
854.183	20724
854.317	20739
854.451	20792
854.585	20644
854.72	20602
854.854	20750
854.988	20629
855.122	20689
855.256	20571
855.39	20590
855.524	20739
855.658	20682
855.792	20815
855.926	20674
856.06	20800
856.194	20849
856.327	20590
856.461	20663
856.595	20644
856.729	20708
856.862	20762
856.996	20667
857.13	20670
857.263	20785
857.397	20746
857.53	20697
857.664	20640
857.797	20735
857.931	20716
858.064	20579
858.197	20739
858.331	20731
858.464	20583
858.597	20549
858.731	20598
858.864	20640
858.997	20568
859.13	20594
859.263	20701
859.396	20758
859.529	20590
859.662	20655
859.795	20602
859.928	20739
860.061	20788
860.194	20925
860.327	20720
860.46	20735
860.592	20845
860.725	20743
860.858	20735
860.99	20670
861.123	20640
861.256	20537
861.388	20613
861.521	21268
861.653	20655
861.786	20385
861.918	20613
862.05	20530
862.183	20613
862.315	20613
862.447	20686
862.58	20606
862.712	20374
862.844	20351
862.976	20552
863.108	20484
863.24	20849
863.372	20256
863.504	20393
863.636	20282
863.768	20294
863.9	20317
864.032	20438
864.164	20336
864.296	20385
864.428	20484
864.559	20385
864.691	20484
864.823	20358
864.954	20404
865.086	20294
865.217	20317
865.349	20187
865.48	20244
865.612	20278
865.743	20469
865.875	20267
866.006	20248
866.137	20408
866.269	20339
866.4	20157
866.531	20191
866.662	20355
866.793	20248
866.924	20195
867.055	20210
867.186	20149
867.317	20176
867.448	20115
867.579	20214
867.71	20069
867.841	20054
867.972	20275
868.103	20305
868.233	20267
868.364	20161
868.495	20404
868.625	20427
868.756	20568
868.886	20442
869.017	20381
869.147	20564
869.278	20663
869.408	20533
869.539	20541
869.669	20526
869.799	20640
869.929	20655
870.06	20617
870.19	20762
870.32	20648
870.45	20773
870.58	20807
870.71	20952
870.84	20967
870.97	20853
871.1	20819
871.23	21085
871.36	20994
871.489	20963
871.619	21051
871.749	21039
871.879	21150
872.008	21173
872.138	21096
872.267	21142
872.397	20929
872.526	20914
872.656	21013
872.785	20902
872.915	21043
873.044	21005
873.173	21051
873.303	21062
873.432	21066
873.561	21279
873.69	21116
873.819	20986
873.948	21211
874.077	21104
874.206	21066
874.335	21074
874.464	21180
874.593	21332
874.722	21291
874.851	21374
874.979	21370
875.108	21325
875.237	21351
875.365	21226
875.494	21291
875.623	21466
875.751	21317
875.88	21272
876.008	21408
876.136	21462
876.265	21831
876.393	21816
876.521	21743
876.65	21747
876.778	21694
876.906	21701
877.034	21698
877.162	21618
877.29	21717
877.418	21599
877.546	21679
877.674	21618
877.802	21576
877.93	21713
878.058	21614
878.185	21599
878.313	21610
878.441	21606
878.568	21561
878.696	21633
878.824	21732
878.951	21800
879.079	21835
879.206	21842
879.333	21713
879.461	21793
879.588	21732
879.715	21831
879.842	22025
879.97	21770
880.097	21530
880.224	21401
880.351	21576
880.478	21641
880.605	21485
880.732	21507
880.859	21816
880.986	21401
881.112	21591
881.239	21336
881.366	21310
881.493	21241
881.619	21108
881.746	21184
881.872	21131
881.999	21085
882.125	21028
882.252	21093
882.378	21108
882.505	21199
882.631	20921
882.757	20925
882.883	20849
883.01	20777
883.136	20731
883.262	20708
883.388	20651
883.514	20830
883.64	20891
883.766	20644
883.892	20693
884.018	20514
884.143	20819
884.269	20842
884.395	20492
884.52	20549
884.646	20537
884.772	20396
884.897	20438
885.023	20621
885.148	20507
885.274	20651
885.399	20495
885.524	20476
885.65	20499
885.775	20526
885.9	20351
886.025	20556
886.15	20575
886.275	20450
886.4	20393
886.525	20419
886.65	20347
886.775	20328
886.9	20609
887.025	20697
887.149	20442
887.274	20225
887.399	20282
887.523	20286
887.648	20233
887.773	20202
887.897	20275
888.021	20164
888.146	20259
888.27	20347
888.395	20313
888.519	20336
888.643	20229
888.767	20183
888.891	20206
889.015	20107
889.139	20050
889.263	20035
889.387	20187
889.511	20320
889.635	20172
889.759	20016
889.883	19997
890.006	20088
890.13	20126
890.254	19947
890.377	19970
890.501	19852
890.624	19833
890.748	19871
890.871	19685
890.995	19556
891.118	19647
891.241	19746
891.364	19742
891.488	19742
891.611	19609
891.734	19655
891.857	19731
891.98	19708
892.103	19677
892.226	19521
892.349	19525
892.471	19426
892.594	19662
892.717	19559
892.839	19476
892.962	19537
893.085	19601
893.207	19495
893.33	19453
893.452	19415
893.575	19594
893.697	19426
893.819	19620
893.941	19693
894.064	19811
894.186	19506
894.308	19411
894.43	19510
894.552	19670
894.674	19502
894.796	19373
894.918	19559
895.04	19422
895.161	19655
895.283	19685
895.405	19613
895.526	19510
895.648	19457
895.769	19559
895.891	19674
896.012	19689
896.134	19635
896.255	19510
896.376	19468
896.498	19582
896.619	19620
896.74	19582
896.861	19586
896.982	19852
897.103	19982
897.224	19807
897.345	19731
897.466	19738
897.587	19807
897.708	19856
897.828	19830
897.949	19795
898.07	19552
898.19	19769
898.311	19795
898.431	19746
898.552	19769
898.672	19780
898.792	19864
898.913	19727
899.033	19655
899.153	19613
899.273	19552
899.393	19552
899.513	19590
899.633	19468
899.753	19647
899.873	19567
899.993	19544
900.113	19601
900.232	19525
900.352	19556
900.472	19373
900.591	19365
900.711	19343
900.83	19225
900.95	19533
901.069	19441
901.189	19198
901.308	18939
901.427	18962
901.546	18947
901.665	18932
901.784	18901
901.904	18806
902.023	18692
902.141	18475
902.26	18479
902.379	18475
902.498	18540
902.617	18342
902.735	18559
902.854	18471
902.973	18292
903.091	18182
903.21	18144
903.328	18102
903.446	18114
903.565	17901
903.683	17931
903.801	17843
903.919	17920
904.038	17897
904.156	17775
904.274	17794
904.392	17733
904.51	17562
904.627	17703
904.745	17668
904.863	17783
904.981	17505
905.098	17387
905.216	17349
905.334	17444
905.451	17349
905.569	17303
905.686	17421
905.803	17372
905.921	17094
906.038	17246
906.155	17220
906.272	17060
906.389	17105
906.506	17006
906.623	16965
906.74	16828
906.857	16797
906.974	16755
907.091	16957
907.208	17045
907.324	16927
907.441	16866
907.557	16733
907.674	16668
907.79	16569
907.907	16740
908.023	16744
908.139	16607
908.256	16607
908.372	16580
908.488	16447
908.604	16436
908.72	16402
908.836	16363
908.952	16352
909.068	16356
909.184	16474
909.3	16341
909.415	16413
909.531	16344
909.647	16169
909.762	16074
909.878	16093
909.993	16067
910.108	16029
910.224	16063
910.339	16059
910.454	15850
910.57	15854
910.685	15876
910.8	16025
910.915	16055
911.03	15937
911.145	15641
911.259	15690
911.374	15663
911.489	15656
911.604	15564
911.718	15443
911.833	15633
911.947	15272
912.062	15306
912.176	15458
912.291	15450
912.405	15454
912.519	15690
912.633	15622
912.748	15389
912.862	15458
912.976	15264
913.09	15085
913.204	15218
913.318	15192
913.431	15397
913.545	15287
913.659	15291
913.772	15283
913.886	15036
914	15127
914.113	15135
914.226	15165
914.34	15146
914.453	14937
914.566	15108
914.68	14925
914.793	14914
914.906	14746
915.019	14659
915.132	14518
915.245	14571
915.358	14682
915.47	14678
915.583	14663
915.696	14708
915.809	14777
915.921	14762
916.034	14583
916.146	14640
916.259	14598
916.371	14663
916.483	14522
916.595	14514
916.708	14457
916.82	14522
916.932	14465
917.044	14438
917.156	14465
917.268	14290
917.38	14313
917.491	14313
917.603	14423
917.715	14415
917.826	14438
917.938	14301
918.049	14100
918.161	14328
918.272	14396
918.384	14313
918.495	14298
918.606	14172
918.717	14046
918.828	14126
918.939	14149
919.05	14115
919.161	14081
919.272	13932
919.383	13879
919.494	14073
919.604	14267
919.715	14161
919.826	14065
919.936	13993
920.047	14115
920.157	14077
920.267	14221
920.378	14058
920.488	14035
920.598	14309
920.708	14377
920.818	14180
920.928	14195
921.038	14298
921.148	14309
921.258	14020
921.368	13860
921.477	13845
921.587	13826
921.697	13632
921.806	13974
921.916	13677
922.025	13502
922.134	13453
922.244	13369
922.353	13487
922.462	13441
922.571	13388
922.68	13259
922.789	13129
922.898	13088
923.007	13072
923.116	13129
923.224	13179
923.333	13076
923.442	12989
923.55	13004
923.659	12996
923.767	12973
923.876	12886
923.984	12981
924.092	12852
924.201	12901
924.309	12928
924.417	12852
924.525	12901
924.633	12840
924.741	13518
924.849	12623
924.956	12707
925.064	12669
925.172	12467
925.279	12559
925.387	12566
925.494	12555
925.602	12684
925.709	12650
925.816	12414
925.924	12570
926.031	12578
926.138	12540
926.245	12528
926.352	12281
926.459	12521
926.566	12547
926.673	12456
926.779	12338
926.886	12327
926.993	12247
927.099	12186
927.206	12091
927.312	12045
927.419	12197
927.525	12175
927.631	12140
927.737	12060
927.843	12026
927.95	11794
928.056	12011
928.162	11931
928.267	11984
928.373	12688
928.479	12064
928.585	11805
928.69	11996
928.796	12007
928.901	11885
929.007	11676
929.112	11790
929.218	11855
929.323	11764
929.428	11699
929.533	11832
929.638	11710
929.743	11688
929.848	11703
929.953	11577
930.058	11543
930.163	11436
930.267	11341
930.372	11539
930.477	11379
930.581	11608
930.685	11463
930.79	11318
930.894	11326
930.998	11288
931.103	11410
931.207	11022
931.311	10980
931.415	10885
931.519	10774
931.623	10706
