Data from test_V78500241_1440.txt Node
Date: Fri Mar 25 15:19:53 CST 2022
User: usil
Spectrometer: V785-0024
Trigger mode: 0
Integration Time (sec): 4.000000E-1
Scans to average: 1
Nonlinearity correction enabled: false
Boxcar width: 0
Storing dark spectrum: false
XAxis mode: Wavelengths
Number of Pixels in Spectrum: 1024
>>>>>Begin Spectral Data<<<<<
801.071	28162
801.214	28070
801.356	27682
801.499	27888
801.641	27580
801.783	27576
801.926	27599
802.068	27629
802.211	27492
802.353	27370
802.496	27389
802.638	27329
802.78	27287
802.923	27294
803.065	27070
803.208	27093
803.35	27420
803.492	27344
803.635	27443
803.777	27389
803.919	27397
804.061	27724
804.204	27515
804.346	27466
804.488	27523
804.63	27351
804.773	27336
804.915	27660
805.057	27549
805.199	27427
805.341	27633
805.483	27679
805.626	27606
805.768	27500
805.91	27519
806.052	27545
806.194	27500
806.336	27808
806.478	27660
806.62	27698
806.762	27781
806.904	27941
807.046	28162
807.188	27945
807.33	27975
807.472	28063
807.614	27945
807.756	27987
807.898	27827
808.04	28025
808.182	27873
808.324	27854
808.465	27960
808.607	28147
808.749	28268
808.891	28360
809.033	28363
809.174	28265
809.316	28223
809.458	28280
809.6	28249
809.741	28398
809.883	28451
810.025	28516
810.166	28603
810.308	28546
810.45	28474
810.591	28440
810.733	28474
810.875	28310
811.016	28200
811.158	28025
811.299	28390
811.441	28329
811.582	28508
811.724	28299
811.865	28226
812.007	28249
812.148	28215
812.29	28360
812.431	28466
812.573	28660
812.714	28729
812.855	28839
812.997	28881
813.138	29022
813.279	28923
813.421	28900
813.562	28755
813.703	28679
813.845	28504
813.986	28363
814.127	28109
814.268	27907
814.41	28010
814.551	27960
814.692	28048
814.833	27987
814.974	28025
815.115	27934
815.256	27960
815.397	27800
815.539	27960
815.68	27797
815.821	27686
815.962	27743
816.103	27709
816.244	27720
816.385	27576
816.526	27526
816.666	27306
816.807	27279
816.948	27439
817.089	27382
817.23	27313
817.371	27058
817.512	27321
817.653	27272
817.793	27211
817.934	27230
818.075	27287
818.216	27279
818.356	27222
818.497	27207
818.638	26979
818.778	27013
818.919	27085
819.06	27070
819.2	27214
819.341	27355
819.481	27344
819.622	27386
819.762	27739
819.903	27701
820.043	27424
820.184	27317
820.324	27298
820.465	27462
820.605	27424
820.746	27393
820.886	27222
821.026	27435
821.167	27355
821.307	27382
821.447	27260
821.588	27157
821.728	27108
821.868	26963
822.008	26826
822.149	26648
822.289	26845
822.429	26442
822.569	26530
822.709	26309
822.849	26252
822.99	26317
823.13	26317
823.27	26195
823.41	26065
823.55	25993
823.69	26157
823.83	26149
823.97	26103
824.11	25833
824.25	25917
824.389	25978
824.529	26065
824.669	25871
824.809	26016
824.949	26100
825.089	25890
825.228	26027
825.368	25769
825.508	25769
825.648	25906
825.787	25913
825.927	25841
826.067	25693
826.206	25708
826.346	25750
826.485	25715
826.625	25799
826.765	25890
826.904	25784
827.044	25529
827.183	25529
827.323	25518
827.462	25601
827.601	25495
827.741	25483
827.88	25529
828.02	25419
828.159	25422
828.298	25559
828.437	25616
828.577	25529
828.716	25556
828.855	25438
828.994	25114
829.134	25255
829.273	25293
829.412	25046
829.551	24977
829.69	25148
829.829	25251
829.968	25255
830.107	25084
830.246	25225
830.385	25129
830.524	25008
830.663	25061
830.802	24753
830.941	24757
831.08	24730
831.219	24852
831.357	24958
831.496	25141
831.635	24810
831.774	24764
831.913	24589
832.051	24673
832.19	24585
832.329	24601
832.467	24604
832.606	24486
832.744	24395
832.883	24452
833.022	24342
833.16	24330
833.299	24563
833.437	24620
833.576	24517
833.714	24486
833.852	24509
833.991	24544
834.129	24692
834.267	24525
834.406	24639
834.544	24627
834.682	24460
834.821	24410
834.959	24608
835.097	24547
835.235	24563
835.373	24582
835.511	24464
835.65	24372
835.788	24353
835.926	24296
836.064	24304
836.202	24220
836.34	24262
836.478	24395
836.615	24262
836.753	24422
836.891	24346
837.029	24330
837.167	24258
837.305	24319
837.443	24224
837.58	24190
837.718	24262
837.856	24235
837.993	24148
838.131	24194
838.269	24057
838.406	24034
838.544	24038
838.681	23821
838.819	23794
838.956	23573
839.094	23623
839.231	23653
839.369	23767
839.506	23980
839.643	23813
839.781	23668
839.918	23535
840.055	23657
840.193	23680
840.33	23520
840.467	23653
840.604	23577
840.742	23817
840.879	23417
841.016	23577
841.153	23433
841.29	23551
841.427	23570
841.564	23577
841.701	23455
841.838	23459
841.975	23448
842.112	23395
842.249	23349
842.385	23303
842.522	23592
842.659	23372
842.796	23204
842.933	23231
843.069	23337
843.206	23197
843.343	23273
843.479	23239
843.616	23406
843.752	23166
843.889	23094
844.025	23307
844.162	23071
844.298	23132
844.435	23083
844.571	23105
844.708	23105
844.844	23296
844.98	23265
845.117	23197
845.253	23044
845.389	22900
845.525	22980
845.661	22953
845.798	22774
845.934	22748
846.07	22702
846.206	22911
846.342	22919
846.478	22862
846.614	22672
846.75	22535
846.886	22497
847.022	22668
847.158	22554
847.294	22481
847.429	22535
847.565	22493
847.701	22698
847.837	22204
847.972	22276
848.108	22211
848.244	22310
848.379	22242
848.515	22044
848.65	22063
848.786	22074
848.921	22200
849.057	22341
849.192	22276
849.328	22177
849.463	22116
849.598	21987
849.734	21960
849.869	21899
850.004	21968
850.14	22025
850.275	21873
850.41	21842
850.545	21842
850.68	21854
850.815	21884
850.95	22025
851.085	22021
851.22	21953
851.355	21945
851.49	21968
851.625	21861
851.76	21888
851.895	21857
852.03	21819
852.165	21876
852.299	21861
852.434	21884
852.569	21949
852.703	21903
852.838	21941
852.973	22112
853.107	21937
853.242	21831
853.376	21705
853.511	21717
853.645	21656
853.78	21781
853.914	21637
854.048	21610
854.183	21804
854.317	21671
854.451	21953
854.585	21694
854.72	21724
854.854	21797
854.988	21610
855.122	21660
855.256	21564
855.39	21599
855.524	21800
855.658	21648
855.792	21762
855.926	21648
856.06	21762
856.194	21857
856.327	21614
856.461	21682
856.595	21720
856.729	21618
856.862	21751
856.996	21709
857.13	21842
857.263	21808
857.397	21682
857.53	21747
857.664	21793
857.797	21679
857.931	21808
858.064	21823
858.197	21888
858.331	21671
858.464	21660
858.597	21637
858.731	21686
858.864	21507
858.997	21679
859.13	21720
859.263	21610
859.396	21720
859.529	21679
859.662	21728
859.795	21660
859.928	21774
860.061	21873
860.194	21789
860.327	21751
860.46	21793
860.592	21797
860.725	21888
860.858	21747
860.99	21793
861.123	21690
861.256	21675
861.388	21679
861.521	22238
861.653	21542
861.786	21466
861.918	21698
862.05	21614
862.183	21568
862.315	21572
862.447	21644
862.58	21542
862.712	21412
862.844	21412
862.976	21534
863.108	21530
863.24	21804
863.372	21386
863.504	21348
863.636	21523
863.768	21496
863.9	21405
864.032	21397
864.164	21416
864.296	21481
864.428	21576
864.559	21477
864.691	21401
864.823	21412
864.954	21428
865.086	21355
865.217	21325
865.349	21291
865.48	21344
865.612	21146
865.743	21340
865.875	21344
866.006	21313
866.137	21310
866.269	21294
866.4	21275
866.531	21260
866.662	21252
866.793	21173
866.924	21321
867.055	21245
867.186	21264
867.317	21287
867.448	21096
867.579	21154
867.71	21112
867.841	21096
867.972	21256
868.103	21154
868.233	21287
868.364	21237
868.495	21370
868.625	21325
868.756	21568
868.886	21397
869.017	21408
869.147	21530
869.278	21622
869.408	21523
869.539	21424
869.669	21576
869.799	21622
869.929	21545
870.06	21458
870.19	21720
870.32	21819
870.45	21816
870.58	21922
870.71	21884
870.84	21987
870.97	21892
871.1	21812
871.23	22029
871.36	22036
871.489	21968
871.619	21987
871.749	21968
871.879	22177
872.008	22112
872.138	21983
872.267	22112
872.397	21861
872.526	21918
872.656	21964
872.785	21949
872.915	22196
873.044	22166
873.173	22128
873.303	22169
873.432	22040
873.561	22261
873.69	22067
873.819	21987
873.948	22086
874.077	22067
874.206	22048
874.335	21979
874.464	22158
874.593	22306
874.722	22306
874.851	22303
874.979	22303
875.108	22204
875.237	22238
875.365	22150
875.494	22284
875.623	22303
875.751	22299
875.88	22322
876.008	22527
876.136	22421
876.265	22672
876.393	22858
876.521	22683
876.65	22691
876.778	22668
876.906	22713
877.034	22565
877.162	22615
877.29	22478
877.418	22656
877.546	22637
877.674	22557
877.802	22634
877.93	22493
878.058	22466
878.185	22508
878.313	22508
878.441	22592
878.568	22421
878.696	22565
878.824	22668
878.951	22683
879.079	22812
879.206	22999
879.333	22733
879.461	22721
879.588	22752
879.715	22927
879.842	22930
879.97	22641
880.097	22485
880.224	22531
880.351	22481
880.478	22462
880.605	22459
880.732	22424
880.859	22618
880.986	22565
881.112	22447
881.239	22276
881.366	22253
881.493	22093
881.619	22074
881.746	22055
881.872	22036
881.999	22021
882.125	21812
882.252	22063
882.378	21998
882.505	22090
882.631	21838
882.757	21713
882.883	21819
883.01	21724
883.136	21743
883.262	21587
883.388	21622
883.514	21675
883.64	21736
883.766	21675
883.892	21553
884.018	21526
884.143	21671
884.269	21785
884.395	21428
884.52	21344
884.646	21416
884.772	21363
884.897	21336
885.023	21397
885.148	21572
885.274	21458
885.399	21443
885.524	21374
885.65	21405
885.775	21218
885.9	21332
886.025	21412
886.15	21389
886.275	21252
886.4	21275
886.525	21336
886.65	21199
886.775	21397
886.9	21492
887.025	21545
887.149	21291
887.274	21150
887.399	21096
887.523	21165
887.648	21001
887.773	21009
887.897	21218
888.021	21188
888.146	21043
888.27	21176
888.395	21127
888.519	21093
888.643	21199
888.767	21195
888.891	20937
889.015	20956
889.139	21017
889.263	20849
889.387	20868
889.511	21051
889.635	21036
889.759	20956
889.883	20967
890.006	20804
890.13	20967
890.254	20845
890.377	20765
890.501	20769
890.624	20667
890.748	20807
890.871	20590
890.995	20480
891.118	20495
891.241	20602
891.364	20537
891.488	20522
891.611	20434
891.734	20495
891.857	20636
891.98	20526
892.103	20446
892.226	20469
892.349	20442
892.471	20161
892.594	20347
892.717	20389
892.839	20362
892.962	20336
893.085	20385
893.207	20454
893.33	20210
893.452	20400
893.575	20412
893.697	20328
893.819	20549
893.941	20579
894.064	20499
894.186	20290
894.308	20278
894.43	20522
894.552	20488
894.674	20431
894.796	20347
894.918	20218
895.04	20278
895.161	20442
895.283	20362
895.405	20259
895.526	20343
895.648	20381
895.769	20419
895.891	20366
896.012	20549
896.134	20374
896.255	20385
896.376	20343
896.498	20229
896.619	20358
896.74	20370
896.861	20396
896.982	20705
897.103	20746
897.224	20556
897.345	20606
897.466	20492
897.587	20533
897.708	20731
897.828	20697
897.949	20495
898.07	20438
898.19	20511
898.311	20560
898.431	20545
898.552	20560
898.672	20667
898.792	20693
898.913	20609
899.033	20469
899.153	20396
899.273	20263
899.393	20355
899.513	20343
899.633	20343
899.753	20385
899.873	20328
899.993	20358
900.113	20351
900.232	20233
900.352	20191
900.472	20115
900.591	20115
900.711	20062
900.83	20043
900.95	20275
901.069	20187
901.189	20046
901.308	19826
901.427	19628
901.546	19628
901.665	19723
901.784	19712
901.904	19666
902.023	19426
902.141	19365
902.26	19251
902.379	19426
902.498	19209
902.617	19122
902.735	19259
902.854	19160
902.973	19023
903.091	18973
903.21	18977
903.328	18852
903.446	18772
903.565	18692
903.683	18722
903.801	18692
903.919	18608
904.038	18639
904.156	18418
904.274	18578
904.392	18426
904.51	18350
904.627	18346
904.745	18464
904.863	18555
904.981	18327
905.098	18114
905.216	18182
905.334	18213
905.451	18057
905.569	17980
905.686	18041
905.803	18079
905.921	17958
906.038	17965
906.155	17961
906.272	17779
906.389	17885
906.506	17604
906.623	17646
906.74	17657
906.857	17509
906.974	17570
907.091	17687
907.208	17733
907.324	17657
907.441	17482
907.557	17425
907.674	17315
907.79	17265
907.907	17197
908.023	17364
908.139	17311
908.256	17360
908.372	17079
908.488	17223
908.604	17109
908.72	17147
908.836	17124
908.952	17025
909.068	17170
909.184	17197
909.3	17086
909.415	16968
909.531	17060
909.647	16877
909.762	16752
909.878	16744
909.993	16812
910.108	16748
910.224	16702
910.339	16755
910.454	16592
910.57	16497
910.685	16436
910.8	16774
910.915	16790
911.03	16535
911.145	16337
911.259	16379
911.374	16421
911.489	16314
911.604	16219
911.718	16177
911.833	16036
911.947	16013
912.062	15907
912.176	16036
912.291	16044
912.405	16063
912.519	16299
912.633	16322
912.748	16204
912.862	16021
912.976	15941
913.09	15819
913.204	15998
913.318	15918
913.431	16002
913.545	16029
913.659	15949
913.772	15762
913.886	15736
914	15686
914.113	15766
914.226	15907
914.34	15709
914.453	15599
914.566	15686
914.68	15542
914.793	15614
914.906	15367
915.019	15313
915.132	15298
915.245	15245
915.358	15245
915.47	15252
915.583	15249
915.696	15344
915.809	15382
915.921	15473
916.034	15226
916.146	15245
916.259	15131
916.371	15252
916.483	15313
916.595	15142
916.708	15085
916.82	15108
916.932	15146
917.044	15169
917.156	15036
917.268	14941
917.38	14952
917.491	14956
917.603	14971
917.715	15108
917.826	14944
917.938	14880
918.049	14762
918.161	14956
918.272	15028
918.384	14944
918.495	14887
918.606	14686
918.717	14686
918.828	14636
918.939	14667
919.05	14686
919.161	14705
919.272	14488
919.383	14640
919.494	14731
919.604	14979
919.715	14659
919.826	14617
919.936	14564
920.047	14781
920.157	14693
920.267	14853
920.378	14762
920.488	14640
920.598	14868
920.708	15013
920.818	14788
920.928	14849
921.038	14933
921.148	14826
921.258	14583
921.368	14530
921.477	14358
921.587	14328
921.697	14313
921.806	14408
921.916	14252
922.025	14065
922.134	13982
922.244	13883
922.353	14008
922.462	13799
922.571	13772
922.68	13742
922.789	13696
922.898	13731
923.007	13529
923.116	13689
923.224	13689
923.333	13624
923.442	13506
923.55	13457
923.659	13578
923.767	13563
923.876	13476
923.984	13628
924.092	13460
924.201	13453
924.309	13396
924.417	13426
924.525	13354
924.633	13320
924.741	14187
924.849	13190
924.956	13316
925.064	13149
925.172	13103
925.279	13061
925.387	13084
925.494	13027
925.602	13221
925.709	13133
925.816	12977
925.924	13034
926.031	13050
926.138	13088
926.245	13107
926.352	12852
926.459	13095
926.566	13095
926.673	12939
926.779	12913
926.886	12890
926.993	12787
927.099	12684
927.206	12623
927.312	12620
927.419	12646
927.525	12662
927.631	12757
927.737	12597
927.843	12597
927.95	12399
928.056	12391
928.162	12464
928.267	12551
928.373	13031
928.479	12570
928.585	12308
928.69	12414
928.796	12429
928.901	12308
929.007	12110
929.112	12292
929.218	12315
929.323	12224
929.428	12209
929.533	12289
929.638	12159
929.743	12182
929.848	12216
929.953	12140
930.058	11973
930.163	11901
930.267	11828
930.372	12045
930.477	11805
930.581	12152
930.685	11950
930.79	11809
930.894	11802
930.998	11737
931.103	11885
931.207	11516
931.311	11414
931.415	11360
931.519	11151
931.623	11143
