Data from test_V78500241_3033.txt Node
Date: Fri Mar 25 15:30:58 CST 2022
User: usil
Spectrometer: V785-0024
Trigger mode: 0
Integration Time (sec): 4.000000E-1
Scans to average: 1
Nonlinearity correction enabled: false
Boxcar width: 0
Storing dark spectrum: false
XAxis mode: Wavelengths
Number of Pixels in Spectrum: 1024
>>>>>Begin Spectral Data<<<<<
801.071	27367
801.214	27313
801.356	27070
801.499	27066
801.641	26853
801.783	26773
801.926	26921
802.068	26701
802.211	26746
802.353	26613
802.496	26408
802.638	26549
802.78	26503
802.923	26317
803.065	26294
803.208	26351
803.35	26453
803.492	26644
803.635	26758
803.777	26469
803.919	26590
804.061	26872
804.204	26663
804.346	26609
804.488	26617
804.63	26453
804.773	26419
804.915	26617
805.057	26693
805.199	26587
805.341	26678
805.483	26602
805.626	26659
805.768	26549
805.91	26693
806.052	26743
806.194	26564
806.336	26826
806.478	26659
806.62	26689
806.762	26876
806.904	26971
807.046	27287
807.188	27028
807.33	27176
807.472	27131
807.614	27062
807.756	27100
807.898	26948
808.04	26998
808.182	26895
808.324	26940
808.465	27104
808.607	27028
808.749	27260
808.891	27317
809.033	27523
809.174	27313
809.316	27397
809.458	27340
809.6	27222
809.741	27488
809.883	27401
810.025	27568
810.166	27686
810.308	27656
810.45	27530
810.591	27416
810.733	27401
810.875	27252
811.016	27192
811.158	27199
811.299	27534
811.441	27481
811.582	27469
811.724	27302
811.865	27138
812.007	27325
812.148	27329
812.29	27218
812.431	27519
812.573	27534
812.714	27679
812.855	27831
812.997	27831
813.138	28010
813.279	27903
813.421	27652
813.562	27732
813.703	27591
813.845	27382
813.986	27351
814.127	26952
814.268	26914
814.41	26857
814.551	26868
814.692	26963
814.833	26788
814.974	26910
815.115	26975
815.256	26811
815.397	26788
815.539	26739
815.68	26861
815.821	26644
815.962	26804
816.103	26621
816.244	26636
816.385	26499
816.526	26488
816.666	26282
816.807	26271
816.948	26343
817.089	26259
817.23	26214
817.371	26191
817.512	26221
817.653	26168
817.793	26244
817.934	26161
818.075	26134
818.216	26259
818.356	26050
818.497	26149
818.638	25963
818.778	25963
818.919	25856
819.06	26027
819.2	26031
819.341	26180
819.481	26248
819.622	26343
819.762	26404
819.903	26427
820.043	26313
820.184	26248
820.324	26248
820.465	26385
820.605	26442
820.746	26244
820.886	26153
821.026	26202
821.167	26237
821.307	26126
821.447	26263
821.588	26088
821.728	25978
821.868	25856
822.008	25632
822.149	25662
822.289	25677
822.429	25460
822.569	25331
822.709	25483
822.849	25129
822.99	25259
823.13	25004
823.27	25126
823.41	24882
823.55	24901
823.69	24954
823.83	24913
823.97	24878
824.11	24703
824.25	24753
824.389	24753
824.529	24844
824.669	24795
824.809	24947
824.949	24894
825.089	24814
825.228	24859
825.368	24585
825.508	24517
825.648	24639
825.787	24726
825.927	24665
826.067	24574
826.206	24681
826.346	24715
826.485	24688
826.625	24616
826.765	24783
826.904	24707
827.044	24350
827.183	24445
827.323	24380
827.462	24319
827.601	24407
827.741	24239
827.88	24365
828.02	24209
828.159	24270
828.298	24277
828.437	24346
828.577	24327
828.716	24410
828.855	24110
828.994	24163
829.134	23980
829.273	23996
829.412	24030
829.551	23893
829.69	24064
829.829	24034
829.968	24049
830.107	24102
830.246	24190
830.385	24060
830.524	23958
830.663	23897
830.802	23866
830.941	23741
831.08	23562
831.219	23741
831.357	23843
831.496	23920
831.635	23589
831.774	23493
831.913	23638
832.051	23490
832.19	23539
832.329	23383
832.467	23364
832.606	23379
832.744	23277
832.883	23292
833.022	23273
833.16	23383
833.299	23436
833.437	23299
833.576	23444
833.714	23531
833.852	23478
833.991	23398
834.129	23436
834.267	23406
834.406	23459
834.544	23429
834.682	23497
834.821	23360
834.959	23566
835.097	23417
835.235	23356
835.373	23345
835.511	23410
835.65	23280
835.788	23258
835.926	23121
836.064	23079
836.202	23147
836.34	23216
836.478	23387
836.615	23140
836.753	23261
836.891	23277
837.029	23311
837.167	23132
837.305	23136
837.443	23143
837.58	23181
837.718	23212
837.856	23170
837.993	23003
838.131	23086
838.269	22801
838.406	23029
838.544	22946
838.681	22858
838.819	22649
838.956	22645
839.094	22519
839.231	22687
839.369	22786
839.506	22927
839.643	22763
839.781	22535
839.918	22565
840.055	22516
840.193	22535
840.33	22500
840.467	22497
840.604	22588
840.742	22812
840.879	22249
841.016	22367
841.153	22360
841.29	22557
841.427	22519
841.564	22584
841.701	22459
841.838	22436
841.975	22428
842.112	22341
842.249	22390
842.385	22238
842.522	22535
842.659	22436
842.796	22204
842.933	22261
843.069	22348
843.206	22116
843.343	22249
843.479	22249
843.616	22154
843.752	22055
843.889	22048
844.025	22059
844.162	21960
844.298	22051
844.435	22070
844.571	21895
844.708	22025
844.844	22040
844.98	22143
845.117	21941
845.253	21964
845.389	21857
845.525	21941
845.661	21937
845.798	21625
845.934	21861
846.07	21793
846.206	21747
846.342	21941
846.478	21812
846.614	21523
846.75	21530
846.886	21473
847.022	21595
847.158	21561
847.294	21454
847.429	21591
847.565	21412
847.701	21705
847.837	21245
847.972	21275
848.108	21294
848.244	21291
848.379	21123
848.515	21032
848.65	21047
848.786	21028
848.921	21077
849.057	21135
849.192	21176
849.328	21131
849.463	21032
849.598	21176
849.734	20998
849.869	20956
850.004	20899
850.14	20823
850.275	20979
850.41	20781
850.545	20826
850.68	20811
850.815	20872
850.95	20952
851.085	21104
851.22	20925
851.355	20921
851.49	20796
851.625	20826
851.76	20883
851.895	20743
852.03	20788
852.165	20834
852.299	20883
852.434	20895
852.569	20864
852.703	20758
852.838	20857
852.973	20979
853.107	20982
853.242	20899
853.376	20735
853.511	20583
853.645	20602
853.78	20777
853.914	20689
854.048	20663
854.183	20571
854.317	20651
854.451	20849
854.585	20682
854.72	20739
854.854	20571
854.988	20632
855.122	20625
855.256	20606
855.39	20625
855.524	20804
855.658	20727
855.792	20708
855.926	20720
856.06	20659
856.194	20796
856.327	20670
856.461	20537
856.595	20492
856.729	20667
856.862	20746
856.996	20727
857.13	20693
857.263	20735
857.397	20746
857.53	20644
857.664	20823
857.797	20838
857.931	20743
858.064	20686
858.197	20807
858.331	20632
858.464	20750
858.597	20556
858.731	20769
858.864	20720
858.997	20701
859.13	20648
859.263	20598
859.396	20807
859.529	20625
859.662	20583
859.795	20632
859.928	20777
860.061	20804
860.194	20796
860.327	20712
860.46	20716
860.592	20693
860.725	20819
860.858	20807
860.99	20727
861.123	20583
861.256	20560
861.388	20773
861.521	21218
861.653	20522
861.786	20396
861.918	20514
862.05	20450
862.183	20644
862.315	20606
862.447	20640
862.58	20404
862.712	20358
862.844	20347
862.976	20545
863.108	20412
863.24	20868
863.372	20393
863.504	20370
863.636	20503
863.768	20427
863.9	20499
864.032	20328
864.164	20278
864.296	20381
864.428	20495
864.559	20522
864.691	20526
864.823	20476
864.954	20351
865.086	20370
865.217	20339
865.349	20301
865.48	20271
865.612	20286
865.743	20339
865.875	20301
866.006	20290
866.137	20221
866.269	20294
866.4	20259
866.531	20084
866.662	20183
866.793	20210
866.924	20199
867.055	20263
867.186	20191
867.317	20191
867.448	20058
867.579	20168
867.71	20149
867.841	20168
867.972	20180
868.103	20336
868.233	20282
868.364	20275
868.495	20248
868.625	20343
868.756	20560
868.886	20366
869.017	20412
869.147	20678
869.278	20644
869.408	20545
869.539	20454
869.669	20552
869.799	20473
869.929	20530
870.06	20545
870.19	20815
870.32	20708
870.45	20773
870.58	20902
870.71	21066
870.84	20960
870.97	20853
871.1	20880
871.23	21112
871.36	20971
871.489	20956
871.619	21089
871.749	21070
871.879	21024
872.008	21241
872.138	21116
872.267	21024
872.397	20990
872.526	20937
872.656	21039
872.785	20979
872.915	21005
873.044	21184
873.173	21089
873.303	21169
873.432	21211
873.561	21192
873.69	21074
873.819	21135
873.948	21325
874.077	21165
874.206	21051
874.335	20998
874.464	21131
874.593	21310
874.722	21325
874.851	21393
874.979	21370
875.108	21344
875.237	21241
875.365	21268
875.494	21195
875.623	21389
875.751	21291
875.88	21272
876.008	21382
876.136	21564
876.265	21793
876.393	21888
876.521	21869
876.65	21770
876.778	21846
876.906	21599
877.034	21557
877.162	21739
877.29	21694
877.418	21774
877.546	21587
877.674	21667
877.802	21701
877.93	21705
878.058	21625
878.185	21629
878.313	21671
878.441	21557
878.568	21496
878.696	21603
878.824	21717
878.951	21724
879.079	21804
879.206	22017
879.333	21835
879.461	21694
879.588	21838
879.715	21911
879.842	21937
879.97	21679
880.097	21553
880.224	21378
880.351	21576
880.478	21572
880.605	21462
880.732	21431
880.859	21648
880.986	21610
881.112	21538
881.239	21378
881.366	21306
881.493	21275
881.619	21180
881.746	21131
881.872	21066
881.999	21089
882.125	21036
882.252	21138
882.378	20998
882.505	21237
882.631	20937
882.757	20899
882.883	20906
883.01	20807
883.136	20769
883.262	20727
883.388	20697
883.514	20746
883.64	20853
883.766	20739
883.892	20518
884.018	20552
884.143	20750
884.269	20902
884.395	20609
884.52	20434
884.646	20461
884.772	20377
884.897	20400
885.023	20526
885.148	20556
885.274	20583
885.399	20454
885.524	20408
885.65	20526
885.775	20400
885.9	20313
886.025	20556
886.15	20431
886.275	20355
886.4	20389
886.525	20355
886.65	20332
886.775	20252
886.9	20568
887.025	20731
887.149	20393
887.274	20157
887.399	20206
887.523	20229
887.648	20122
887.773	20142
887.897	20347
888.021	20271
888.146	20187
888.27	20290
888.395	20317
888.519	20267
888.643	20218
888.767	20221
888.891	20180
889.015	20054
889.139	20016
889.263	20092
889.387	20081
889.511	20256
889.635	20111
889.759	20024
889.883	19986
890.006	20119
890.13	20103
890.254	19967
890.377	19982
890.501	19822
890.624	19753
890.748	19807
890.871	19727
890.995	19723
891.118	19689
891.241	19575
891.364	19609
891.488	19696
891.611	19681
891.734	19635
891.857	19628
891.98	19666
892.103	19685
892.226	19601
892.349	19712
892.471	19468
892.594	19544
892.717	19563
892.839	19559
892.962	19460
893.085	19723
893.207	19540
893.33	19384
893.452	19460
893.575	19464
893.697	19464
893.819	19594
893.941	19715
894.064	19590
894.186	19453
894.308	19422
894.43	19651
894.552	19696
894.674	19540
894.796	19384
894.918	19624
895.04	19563
895.161	19658
895.283	19575
895.405	19476
895.526	19533
895.648	19552
895.769	19487
895.891	19597
896.012	19704
896.134	19590
896.255	19445
896.376	19460
896.498	19525
896.619	19628
896.74	19556
896.861	19537
896.982	19784
897.103	19932
897.224	19780
897.345	19658
897.466	19685
897.587	19765
897.708	19875
897.828	19696
897.949	19613
898.07	19624
898.19	19689
898.311	19906
898.431	19674
898.552	19757
898.672	19868
898.792	19951
898.913	19845
899.033	19689
899.153	19643
899.273	19594
899.393	19464
899.513	19571
899.633	19613
899.753	19548
899.873	19411
899.993	19559
900.113	19434
900.232	19514
900.352	19487
900.472	19365
900.591	19304
900.711	19301
900.83	19331
900.95	19449
901.069	19324
901.189	19187
901.308	18996
901.427	18901
901.546	18852
901.665	19053
901.784	19069
901.904	18905
902.023	18757
902.141	18525
902.26	18418
902.379	18620
902.498	18441
902.617	18418
902.735	18601
902.854	18403
902.973	18357
903.091	18098
903.21	18133
903.328	18053
903.446	18178
903.565	17965
903.683	17847
903.801	17870
903.919	17904
904.038	17870
904.156	17729
904.274	17775
904.392	17676
904.51	17718
904.627	17600
904.745	17710
904.863	17691
904.981	17497
905.098	17307
905.216	17387
905.334	17410
905.451	17311
905.569	17296
905.686	17330
905.803	17379
905.921	17178
906.038	17227
906.155	17181
906.272	17025
906.389	17174
906.506	16835
906.623	16949
906.74	16767
906.857	16752
906.974	16824
907.091	16938
907.208	16934
907.324	16881
907.441	16847
907.557	16656
907.674	16641
907.79	16554
907.907	16622
908.023	16664
908.139	16649
908.256	16691
908.372	16504
908.488	16569
908.604	16318
908.72	16314
908.836	16329
908.952	16386
909.068	16352
909.184	16451
909.3	16405
909.415	16428
909.531	16291
909.647	16055
909.762	16139
909.878	16055
909.993	16017
910.108	16044
910.224	16032
910.339	16044
910.454	15892
910.57	15888
910.685	15812
910.8	16112
910.915	16074
911.03	15865
911.145	15667
911.259	15694
911.374	15637
911.489	15591
911.604	15485
911.718	15401
911.833	15332
911.947	15374
912.062	15272
912.176	15401
912.291	15458
912.405	15469
912.519	15603
912.633	15496
912.748	15481
912.862	15378
912.976	15268
913.09	15138
913.204	15146
913.318	15176
913.431	15348
913.545	15306
913.659	15294
913.772	15226
913.886	15020
914	15020
914.113	15131
914.226	15180
914.34	15074
914.453	14937
914.566	15074
914.68	14921
914.793	14845
914.906	14720
915.019	14617
915.132	14651
915.245	14571
915.358	14758
915.47	14606
915.583	14667
915.696	14640
915.809	14735
915.921	14765
916.034	14667
916.146	14511
916.259	14564
916.371	14655
916.483	14583
916.595	14457
916.708	14488
916.82	14454
916.932	14530
917.044	14469
917.156	14469
917.268	14309
917.38	14290
917.491	14317
917.603	14404
917.715	14320
917.826	14320
917.938	14218
918.049	14180
918.161	14305
918.272	14450
918.384	14385
918.495	14191
918.606	14126
918.717	14031
918.828	14081
918.939	14054
919.05	14054
919.161	14054
919.272	13822
919.383	13963
919.494	14172
919.604	14237
919.715	14092
919.826	13890
919.936	13936
920.047	14172
920.157	14073
920.267	14206
920.378	14020
920.488	14043
920.598	14221
920.708	14503
920.818	14195
920.928	14275
921.038	14336
921.148	14290
921.258	13997
921.368	13894
921.477	13947
921.587	13814
921.697	13704
921.806	13742
921.916	13666
922.025	13510
922.134	13445
922.244	13422
922.353	13529
922.462	13301
922.571	13335
922.68	13202
922.789	13133
922.898	13091
923.007	13088
923.116	13137
923.224	13088
923.333	13065
923.442	12989
923.55	12973
923.659	12897
923.767	12958
923.876	12886
923.984	12894
924.092	12856
924.201	12848
924.309	12905
924.417	12852
924.525	12753
924.633	12757
924.741	13483
924.849	12555
924.956	12757
925.064	12589
925.172	12513
925.279	12513
925.387	12585
925.494	12555
925.602	12673
925.709	12559
925.816	12544
925.924	12494
926.031	12593
926.138	12456
926.245	12551
926.352	12433
926.459	12555
926.566	12563
926.673	12441
926.779	12350
926.886	12407
926.993	12167
927.099	12209
927.206	12114
927.312	12095
927.419	12186
927.525	12136
927.631	12213
927.737	11999
927.843	11958
927.95	11855
928.056	11999
928.162	11980
928.267	12060
928.373	12574
928.479	12068
928.585	11783
928.69	11988
928.796	11984
928.901	11851
929.007	11634
929.112	11847
929.218	11745
929.323	11779
929.428	11653
929.533	11828
929.638	11627
929.743	11623
929.848	11615
929.953	11672
930.058	11524
930.163	11402
930.267	11433
930.372	11493
930.477	11383
930.581	11528
930.685	11402
930.79	11273
930.894	11254
930.998	11254
931.103	11452
931.207	11086
931.311	10911
931.415	10835
931.519	10634
931.623	10656
