Data from test_V78500241_2285.txt Node
Date: Fri Mar 25 15:25:46 CST 2022
User: usil
Spectrometer: V785-0024
Trigger mode: 0
Integration Time (sec): 4.000000E-1
Scans to average: 1
Nonlinearity correction enabled: false
Boxcar width: 0
Storing dark spectrum: false
XAxis mode: Wavelengths
Number of Pixels in Spectrum: 1024
>>>>>Begin Spectral Data<<<<<
801.071	27648
801.214	27633
801.356	27389
801.499	27393
801.641	27157
801.783	27374
801.926	27355
802.068	27344
802.211	27211
802.353	27055
802.496	27024
802.638	26902
802.78	26750
802.923	26887
803.065	26678
803.208	26861
803.35	26758
803.492	26967
803.635	26982
803.777	26883
803.919	27001
804.061	27363
804.204	27077
804.346	26952
804.488	26990
804.63	27112
804.773	27058
804.915	27074
805.057	27135
805.199	27093
805.341	27119
805.483	27241
805.626	27157
805.768	27150
805.91	27169
806.052	27199
806.194	27070
806.336	27294
806.478	27226
806.62	27188
806.762	27351
806.904	27447
807.046	27603
807.188	27720
807.33	27690
807.472	27675
807.614	27663
807.756	27561
807.898	27644
808.04	27359
808.182	27317
808.324	27450
808.465	27488
808.607	27720
808.749	27899
808.891	27922
809.033	27937
809.174	27922
809.316	27800
809.458	27838
809.6	27831
809.741	27960
809.883	27949
810.025	28131
810.166	28116
810.308	28124
810.45	27934
810.591	27888
810.733	27827
810.875	27918
811.016	27724
811.158	27736
811.299	27751
811.441	27861
811.582	27747
811.724	27850
811.865	27656
812.007	27751
812.148	27816
812.29	27888
812.431	27857
812.573	28166
812.714	28322
812.855	28295
812.997	28413
813.138	28569
813.279	28485
813.421	28379
813.562	28299
813.703	28147
813.845	27987
813.986	27736
814.127	27561
814.268	27561
814.41	27644
814.551	27564
814.692	27610
814.833	27458
814.974	27386
815.115	27606
815.256	27462
815.397	27344
815.539	27485
815.68	27222
815.821	27176
815.962	27447
816.103	27207
816.244	27188
816.385	27066
816.526	27017
816.666	26937
816.807	26754
816.948	26754
817.089	26826
817.23	26883
817.371	26834
817.512	26739
817.653	26735
817.793	26678
817.934	26785
818.075	26845
818.216	26880
818.356	26743
818.497	26518
818.638	26507
818.778	26530
818.919	26526
819.06	26533
819.2	26583
819.341	26804
819.481	26800
819.622	26940
819.762	27043
819.903	27001
820.043	27001
820.184	26762
820.324	26914
820.465	26967
820.605	26830
820.746	26891
820.886	26758
821.026	26876
821.167	26655
821.307	26819
821.447	26815
821.588	26674
821.728	26518
821.868	26461
822.008	26256
822.149	26237
822.289	26126
822.429	25879
822.569	25947
822.709	25864
822.849	25799
822.99	25822
823.13	25738
823.27	25727
823.41	25578
823.55	25575
823.69	25518
823.83	25586
823.97	25563
824.11	25331
824.25	25388
824.389	25350
824.529	25499
824.669	25384
824.809	25506
824.949	25563
825.089	25529
825.228	25422
825.368	25228
825.508	25183
825.648	25244
825.787	25228
825.927	25331
826.067	25133
826.206	25244
826.346	25148
826.485	25282
826.625	25331
826.765	25438
826.904	25247
827.044	24935
827.183	25012
827.323	24913
827.462	24958
827.601	24932
827.741	24909
827.88	24924
828.02	24848
828.159	24863
828.298	24977
828.437	25034
828.577	24867
828.716	24916
828.855	24814
828.994	24730
829.134	24681
829.273	24722
829.412	24635
829.551	24570
829.69	24490
829.829	24612
829.968	24635
830.107	24825
830.246	24684
830.385	24570
830.524	24509
830.663	24426
830.802	24315
830.941	24315
831.08	24220
831.219	24285
831.357	24441
831.496	24422
831.635	24144
831.774	24338
831.913	24190
832.051	24060
832.19	24087
832.329	24083
832.467	23973
832.606	23874
832.744	23805
832.883	23961
833.022	23904
833.16	23855
833.299	24091
833.437	23999
833.576	24022
833.714	24007
833.852	24022
833.991	24041
834.129	24148
834.267	23920
834.406	24049
834.544	24034
834.682	23912
834.821	23984
834.959	24087
835.097	23973
835.235	24018
835.373	23920
835.511	23866
835.65	23847
835.788	23935
835.926	23756
836.064	23726
836.202	23600
836.34	23965
836.478	23870
836.615	23866
836.753	23798
836.891	23958
837.029	23908
837.167	23672
837.305	23714
837.443	23646
837.58	23684
837.718	23729
837.856	23752
837.993	23665
838.131	23566
838.269	23524
838.406	23459
838.544	23497
838.681	23337
838.819	23250
838.956	23121
839.094	23155
839.231	23227
839.369	23303
839.506	23596
839.643	23398
839.781	23060
839.918	23109
840.055	23025
840.193	23124
840.33	23064
840.467	23128
840.604	23037
840.742	23147
840.879	22778
841.016	22984
841.153	22934
841.29	23162
841.427	23064
841.564	23136
841.701	23109
841.838	23003
841.975	22911
842.112	22934
842.249	22869
842.385	22790
842.522	23029
842.659	22987
842.796	22801
842.933	22862
843.069	22805
843.206	22660
843.343	22782
843.479	22900
843.616	22774
843.752	22565
843.889	22664
844.025	22759
844.162	22573
844.298	22615
844.435	22535
844.571	22455
844.708	22687
844.844	22687
844.98	22675
845.117	22607
845.253	22443
845.389	22379
845.525	22546
845.661	22432
845.798	22337
845.934	22402
846.07	22169
846.206	22402
846.342	22481
846.478	22166
846.614	22040
846.75	22029
846.886	22036
847.022	22093
847.158	22124
847.294	22051
847.429	22135
847.565	22063
847.701	22314
847.837	21895
847.972	21789
848.108	21907
848.244	21770
848.379	21671
848.515	21614
848.65	21599
848.786	21633
848.921	21663
849.057	21720
849.192	21812
849.328	21671
849.463	21572
849.598	21549
849.734	21488
849.869	21492
850.004	21530
850.14	21504
850.275	21526
850.41	21329
850.545	21222
850.68	21447
850.815	21504
850.95	21310
851.085	21606
851.22	21523
851.355	21416
851.49	21306
851.625	21351
851.76	21416
851.895	21291
852.03	21370
852.165	21386
852.299	21367
852.434	21496
852.569	21523
852.703	21370
852.838	21496
852.973	21625
853.107	21477
853.242	21351
853.376	21241
853.511	21214
853.645	21127
853.78	21389
853.914	21222
854.048	21199
854.183	21336
854.317	21146
854.451	21405
854.585	21214
854.72	21245
854.854	21310
854.988	21237
855.122	21222
855.256	20986
855.39	21264
855.524	21397
855.658	21142
855.792	21252
855.926	21260
856.06	21325
856.194	21291
856.327	21241
856.461	21157
856.595	21184
856.729	21173
856.862	21348
856.996	21252
857.13	21252
857.263	21310
857.397	21481
857.53	21135
857.664	21256
857.797	21291
857.931	21249
858.064	21188
858.197	21344
858.331	21218
858.464	21272
858.597	21104
858.731	21176
858.864	21123
858.997	21108
859.13	21241
859.263	21062
859.396	21332
859.529	21252
859.662	21116
859.795	21214
859.928	21195
860.061	21420
860.194	21477
860.327	21256
860.46	21241
860.592	21287
860.725	21272
860.858	21424
860.99	21176
861.123	21287
861.256	21169
861.388	21138
861.521	21960
861.653	21116
861.786	21089
861.918	21020
862.05	21161
862.183	21207
862.315	21218
862.447	21116
862.58	21093
862.712	21017
862.844	20933
862.976	21127
863.108	20914
863.24	21260
863.372	20815
863.504	20967
863.636	21005
863.768	20994
863.9	20971
864.032	20883
864.164	20891
864.296	20857
864.428	20937
864.559	20933
864.691	21009
864.823	20918
864.954	20868
865.086	20918
865.217	20819
865.349	20727
865.48	20861
865.612	20876
865.743	20952
865.875	20834
866.006	20727
866.137	20796
866.269	20800
866.4	20819
866.531	20823
866.662	20739
866.793	20735
866.924	20815
867.055	20765
867.186	20804
867.317	20655
867.448	20632
867.579	20701
867.71	20712
867.841	20887
867.972	20785
868.103	20861
868.233	20708
868.364	20762
868.495	20937
868.625	20918
868.756	21112
868.886	20796
869.017	20952
869.147	21127
869.278	21085
869.408	20986
869.539	21032
869.669	21142
869.799	20941
869.929	21089
870.06	21146
870.19	21279
870.32	21279
870.45	21401
870.58	21408
870.71	21568
870.84	21435
870.97	21211
871.1	21397
871.23	21603
871.36	21717
871.489	21492
871.619	21595
871.749	21629
871.879	21652
872.008	21698
872.138	21606
872.267	21553
872.397	21492
872.526	21450
872.656	21507
872.785	21412
872.915	21682
873.044	21732
873.173	21671
873.303	21633
873.432	21603
873.561	21671
873.69	21698
873.819	21568
873.948	21739
874.077	21720
874.206	21583
874.335	21572
874.464	21797
874.593	21705
874.722	21884
874.851	21857
874.979	21785
875.108	21922
875.237	21857
875.365	21804
875.494	21831
875.623	21960
875.751	21739
875.88	21755
876.008	22082
876.136	22112
876.265	22310
876.393	22379
876.521	22291
876.65	22246
876.778	22158
876.906	22192
877.034	22105
877.162	22150
877.29	22192
877.418	22280
877.546	22337
877.674	22196
877.802	22143
877.93	22166
878.058	22116
878.185	21953
878.313	22181
878.441	22181
878.568	22017
878.696	22051
878.824	22166
878.951	22207
879.079	22329
879.206	22497
879.333	22303
879.461	22261
879.588	22287
879.715	22451
879.842	22455
879.97	22287
880.097	22078
880.224	22067
880.351	22002
880.478	22036
880.605	22006
880.732	21960
880.859	22299
880.986	22055
881.112	22010
881.239	21960
881.366	21743
881.493	21587
881.619	21526
881.746	21622
881.872	21656
881.999	21564
882.125	21553
882.252	21644
882.378	21625
882.505	21732
882.631	21454
882.757	21268
882.883	21412
883.01	21256
883.136	21203
883.262	21150
883.388	21123
883.514	21336
883.64	21367
883.766	21112
883.892	21138
884.018	21081
884.143	21272
884.269	21298
884.395	20963
884.52	20891
884.646	20971
884.772	20929
884.897	20731
885.023	20914
885.148	21039
885.274	21119
885.399	20952
885.524	20998
885.65	21001
885.775	20925
885.9	20982
886.025	21047
886.15	21032
886.275	20838
886.4	20872
886.525	20967
886.65	20906
886.775	20868
886.9	21066
887.025	21055
887.149	20868
887.274	20800
887.399	20739
887.523	20735
887.648	20659
887.773	20636
887.897	20743
888.021	20746
888.146	20629
888.27	20716
888.395	20765
888.519	20743
888.643	20834
888.767	20735
888.891	20545
889.015	20602
889.139	20514
889.263	20492
889.387	20545
889.511	20804
889.635	20689
889.759	20492
889.883	20488
890.006	20503
890.13	20465
890.254	20465
890.377	20507
890.501	20358
890.624	20256
890.748	20381
890.871	20145
890.995	20100
891.118	20012
891.241	20218
891.364	20100
891.488	20195
891.611	20065
891.734	20088
891.857	20225
891.98	19944
892.103	20202
892.226	20077
892.349	19906
892.471	19860
892.594	19955
892.717	19959
892.839	19928
892.962	20084
893.085	20065
893.207	19940
893.33	19913
893.452	19932
893.575	20031
893.697	19909
893.819	20149
893.941	20164
894.064	20103
894.186	19978
894.308	19864
894.43	20012
894.552	20176
894.674	20081
894.796	19963
894.918	19928
895.04	19841
895.161	20012
895.283	19944
895.405	19830
895.526	20027
895.648	20058
895.769	20096
895.891	20054
896.012	20084
896.134	19970
896.255	19989
896.376	19875
896.498	19963
896.619	20024
896.74	20008
896.861	19986
896.982	20415
897.103	20400
897.224	20267
897.345	20199
897.466	20168
897.587	20142
897.708	20218
897.828	20183
897.949	20115
898.07	20073
898.19	20187
898.311	20282
898.431	20172
898.552	20168
898.672	20381
898.792	20248
898.913	20149
899.033	20100
899.153	20024
899.273	19906
899.393	19902
899.513	20008
899.633	19967
899.753	19917
899.873	19856
899.993	19940
900.113	19849
900.232	19860
900.352	19803
900.472	19689
900.591	19780
900.711	19784
900.83	19776
900.95	19841
901.069	19818
901.189	19556
901.308	19419
901.427	19339
901.546	19293
901.665	19312
901.784	19388
901.904	19232
902.023	19099
902.141	18798
902.26	18939
902.379	19019
902.498	18886
902.617	18760
902.735	18882
902.854	18810
902.973	18779
903.091	18623
903.21	18506
903.328	18559
903.446	18369
903.565	18357
903.683	18273
903.801	18296
903.919	18338
904.038	18224
904.156	18015
904.274	18178
904.392	18095
904.51	18068
904.627	17996
904.745	18148
904.863	18190
904.981	17798
905.098	17745
905.216	17817
905.334	17699
905.451	17870
905.569	17699
905.686	17813
905.803	17745
905.921	17501
906.038	17668
906.155	17547
906.272	17360
906.389	17341
906.506	17208
906.623	17288
906.74	17261
906.857	17094
906.974	17200
907.091	17402
907.208	17402
907.324	17318
907.441	17155
907.557	17124
907.674	17143
907.79	16976
907.907	16934
908.023	17045
908.139	17056
908.256	16866
908.372	16839
908.488	16965
908.604	16675
908.72	16626
908.836	16824
908.952	16835
909.068	16733
909.184	16736
909.3	16797
909.415	16755
909.531	16729
909.647	16402
909.762	16466
909.878	16394
909.993	16485
910.108	16421
910.224	16390
910.339	16432
910.454	16341
910.57	16238
910.685	16200
910.8	16432
910.915	16375
911.03	16253
911.145	16082
911.259	16105
911.374	16097
911.489	15850
911.604	16036
911.718	15766
911.833	15686
911.947	15709
912.062	15545
912.176	15747
912.291	15747
912.405	15819
912.519	15884
912.633	15953
912.748	15823
912.862	15686
912.976	15545
913.09	15572
913.204	15595
913.318	15633
913.431	15694
913.545	15606
913.659	15724
913.772	15545
913.886	15462
914	15389
914.113	15435
914.226	15412
914.34	15428
914.453	15252
914.566	15405
914.68	15252
914.793	15184
914.906	15119
915.019	14948
915.132	14891
915.245	14986
915.358	14956
915.47	15119
915.583	14990
915.696	15028
915.809	15055
915.921	15138
916.034	15017
916.146	14910
916.259	14815
916.371	15001
916.483	14982
916.595	14887
916.708	14979
916.82	14895
916.932	14765
917.044	14826
917.156	14762
917.268	14663
917.38	14598
917.491	14598
917.603	14632
917.715	14708
917.826	14743
917.938	14533
918.049	14522
918.161	14556
918.272	14693
918.384	14842
918.495	14663
918.606	14480
918.717	14385
918.828	14427
918.939	14434
919.05	14377
919.161	14408
919.272	14229
919.383	14298
919.494	14560
919.604	14549
919.715	14450
919.826	14377
919.936	14328
920.047	14415
920.157	14347
920.267	14518
920.378	14415
920.488	14317
920.598	14484
920.708	14625
920.818	14514
920.928	14495
921.038	14731
921.148	14632
921.258	14450
921.368	14199
921.477	14187
921.587	14142
921.697	13917
921.806	14119
921.916	13963
922.025	13883
922.134	13811
922.244	13727
922.353	13788
922.462	13594
922.571	13521
922.68	13445
922.789	13476
922.898	13460
923.007	13381
923.116	13441
923.224	13449
923.333	13487
923.442	13263
923.55	13259
923.659	13183
923.767	13274
923.876	13190
923.984	13304
924.092	13164
924.201	13213
924.309	13168
924.417	13171
924.525	13107
924.633	13149
924.741	13928
924.849	12901
924.956	13038
925.064	12932
925.172	12817
925.279	12837
925.387	12837
925.494	12890
925.602	12993
925.709	12886
925.816	12772
925.924	12821
926.031	12871
926.138	12722
926.245	12878
926.352	12650
926.459	12753
926.566	12859
926.673	12719
926.779	12551
926.886	12570
926.993	12353
927.099	12475
927.206	12418
927.312	12361
927.419	12448
927.525	12369
927.631	12445
927.737	12292
927.843	12300
927.95	12171
928.056	12323
928.162	12243
928.267	12273
928.373	12741
928.479	12380
928.585	12034
928.69	12182
928.796	12273
928.901	12064
929.007	11950
929.112	12022
929.218	12026
929.323	11977
929.428	11874
929.533	12003
929.638	11885
929.743	11946
929.848	11954
929.953	11893
930.058	11783
930.163	11600
930.267	11585
930.372	11775
930.477	11596
930.581	11798
930.685	11688
930.79	11509
930.894	11512
930.998	11528
931.103	11699
931.207	11307
931.311	11170
931.415	11098
931.519	10892
931.623	10862
