Data from test_V78500241_209.txt Node
Date: Fri Mar 25 15:11:18 CST 2022
User: usil
Spectrometer: V785-0024
Trigger mode: 0
Integration Time (sec): 4.000000E-1
Scans to average: 1
Nonlinearity correction enabled: false
Boxcar width: 0
Storing dark spectrum: false
XAxis mode: Wavelengths
Number of Pixels in Spectrum: 1024
>>>>>Begin Spectral Data<<<<<
801.071	28036
801.214	27922
801.356	27686
801.499	27595
801.641	27557
801.783	27656
801.926	27724
802.068	27496
802.211	27492
802.353	27344
802.496	27214
802.638	27207
802.78	27157
802.923	26998
803.065	26876
803.208	27009
803.35	27108
803.492	27302
803.635	27329
803.777	27100
803.919	27294
804.061	27599
804.204	27378
804.346	27192
804.488	27142
804.63	27264
804.773	27070
804.915	27123
805.057	27351
805.199	27230
805.341	27165
805.483	27287
805.626	27317
805.768	27256
805.91	27313
806.052	27310
806.194	27233
806.336	27427
806.478	27317
806.62	27317
806.762	27424
806.904	27504
807.046	27717
807.188	27656
807.33	27648
807.472	27705
807.614	27591
807.756	27576
807.898	27580
808.04	27485
808.182	27454
808.324	27443
808.465	27488
808.607	27652
808.749	27732
808.891	27918
809.033	28025
809.174	27846
809.316	27964
809.458	27888
809.6	27759
809.741	27888
809.883	28070
810.025	28158
810.166	28147
810.308	28025
810.45	28006
810.591	28074
810.733	27884
810.875	27812
811.016	27766
811.158	27713
811.299	27937
811.441	27903
811.582	27934
811.724	27827
811.865	27603
812.007	27861
812.148	27835
812.29	27823
812.431	27895
812.573	28067
812.714	28181
812.855	28226
812.997	28337
813.138	28607
813.279	28405
813.421	28337
813.562	28386
813.703	28105
813.845	28063
813.986	27648
814.127	27610
814.268	27477
814.41	27435
814.551	27348
814.692	27462
814.833	27279
814.974	27249
815.115	27458
815.256	27245
815.397	27420
815.539	27310
815.68	27207
815.821	27188
815.962	27222
816.103	27256
816.244	27074
816.385	26944
816.526	27032
816.666	26804
816.807	26613
816.948	26594
817.089	26731
817.23	26701
817.371	26686
817.512	26629
817.653	26606
817.793	26587
817.934	26674
818.075	26716
818.216	26587
818.356	26499
818.497	26347
818.638	26317
818.778	26431
818.919	26286
819.06	26427
819.2	26480
819.341	26617
819.481	26568
819.622	26651
819.762	26975
819.903	26777
820.043	26667
820.184	26720
820.324	26716
820.465	26739
820.605	26746
820.746	26583
820.886	26644
821.026	26651
821.167	26571
821.307	26606
821.447	26575
821.588	26400
821.728	26355
821.868	26202
822.008	26046
822.149	26115
822.289	26031
822.429	25750
822.569	25624
822.709	25601
822.849	25575
822.99	25388
823.13	25533
823.27	25430
823.41	25293
823.55	25225
823.69	25289
823.83	25217
823.97	25270
824.11	25095
824.25	25076
824.389	25046
824.529	25095
824.669	25183
824.809	25240
824.949	25209
825.089	25008
825.228	25141
825.368	24886
825.508	24875
825.648	24802
825.787	24863
825.927	25019
826.067	24989
826.206	24977
826.346	24958
826.485	25015
826.625	24871
826.765	24890
826.904	24996
827.044	24665
827.183	24688
827.323	24620
827.462	24650
827.601	24513
827.741	24608
827.88	24570
828.02	24475
828.159	24627
828.298	24661
828.437	24677
828.577	24574
828.716	24707
828.855	24479
828.994	24281
829.134	24410
829.273	24247
829.412	24106
829.551	24292
829.69	24270
829.829	24228
829.968	24327
830.107	24338
830.246	24258
830.385	24243
830.524	24292
830.663	24171
830.802	24125
830.941	23832
831.08	23961
831.219	24083
831.357	23878
831.496	23946
831.635	23809
831.774	23878
831.913	23726
832.051	23611
832.19	23680
832.329	23767
832.467	23501
832.606	23486
832.744	23551
832.883	23436
833.022	23433
833.16	23520
833.299	23497
833.437	23558
833.576	23760
833.714	23547
833.852	23619
833.991	23695
834.129	23585
834.267	23630
834.406	23486
834.544	23558
834.682	23566
834.821	23577
834.959	23687
835.097	23554
835.235	23653
835.373	23528
835.511	23482
835.65	23406
835.788	23509
835.926	23387
836.064	23246
836.202	23288
836.34	23326
836.478	23372
836.615	23379
836.753	23395
836.891	23433
837.029	23353
837.167	23322
837.305	23376
837.443	23280
837.58	23231
837.718	23410
837.856	23284
837.993	23166
838.131	23174
838.269	22938
838.406	23189
838.544	22991
838.681	22877
838.819	22927
838.956	22626
839.094	22809
839.231	22713
839.369	22801
839.506	23098
839.643	22869
839.781	22664
839.918	22649
840.055	22527
840.193	22630
840.33	22599
840.467	22573
840.604	22592
840.742	22923
840.879	22333
841.016	22516
841.153	22436
841.29	22626
841.427	22554
841.564	22611
841.701	22588
841.838	22596
841.975	22531
842.112	22474
842.249	22310
842.385	22268
842.522	22489
842.659	22322
842.796	22322
842.933	22310
843.069	22257
843.206	22306
843.343	22379
843.479	22386
843.616	22230
843.752	22150
843.889	22128
844.025	22223
844.162	22032
844.298	22169
844.435	22131
844.571	21937
844.708	22059
844.844	22139
844.98	22177
845.117	22223
845.253	21903
845.389	22006
845.525	22032
845.661	21816
845.798	21869
845.934	21930
846.07	21690
846.206	21854
846.342	21911
846.478	21774
846.614	21595
846.75	21477
846.886	21515
847.022	21538
847.158	21644
847.294	21519
847.429	21447
847.565	21534
847.701	21682
847.837	21306
847.972	21233
848.108	21313
848.244	21287
848.379	21173
848.515	21233
848.65	20971
848.786	21036
848.921	21013
849.057	21302
849.192	21112
849.328	21123
849.463	21070
849.598	21047
849.734	21036
849.869	20895
850.004	20823
850.14	20883
850.275	20819
850.41	20864
850.545	20815
850.68	20785
850.815	20819
850.95	20777
851.085	21005
851.22	20845
851.355	20842
851.49	20963
851.625	20807
851.76	20773
851.895	20724
852.03	20651
852.165	20750
852.299	20925
852.434	20906
852.569	20792
852.703	20804
852.838	20861
852.973	20899
853.107	20979
853.242	20857
853.376	20632
853.511	20533
853.645	20632
853.78	20773
853.914	20667
854.048	20663
854.183	20613
854.317	20686
854.451	20845
854.585	20659
854.72	20598
854.854	20689
854.988	20579
855.122	20609
855.256	20492
855.39	20571
855.524	20590
855.658	20621
855.792	20720
855.926	20651
856.06	20659
856.194	20777
856.327	20655
856.461	20648
856.595	20648
856.729	20632
856.862	20861
856.996	20674
857.13	20762
857.263	20823
857.397	20697
857.53	20693
857.664	20659
857.797	20701
857.931	20834
858.064	20716
858.197	20762
858.331	20587
858.464	20568
858.597	20530
858.731	20552
858.864	20613
858.997	20659
859.13	20689
859.263	20659
859.396	20773
859.529	20594
859.662	20499
859.795	20549
859.928	20743
860.061	20758
860.194	20796
860.327	20788
860.46	20655
860.592	20891
860.725	20758
860.858	20788
860.99	20689
861.123	20488
861.256	20606
861.388	20575
861.521	21321
861.653	20419
861.786	20412
861.918	20488
862.05	20522
862.183	20545
862.315	20659
862.447	20693
862.58	20629
862.712	20404
862.844	20370
862.976	20507
863.108	20514
863.24	20769
863.372	20317
863.504	20320
863.636	20358
863.768	20465
863.9	20351
864.032	20237
864.164	20301
864.296	20259
864.428	20461
864.559	20370
864.691	20434
864.823	20336
864.954	20290
865.086	20225
865.217	20343
865.349	20233
865.48	20248
865.612	20187
865.743	20355
865.875	20305
866.006	20225
866.137	20351
866.269	20320
866.4	20202
866.531	20202
866.662	20100
866.793	20164
866.924	20134
867.055	20138
867.186	20157
867.317	20172
867.448	20100
867.579	20176
867.71	20107
867.841	20065
867.972	20122
868.103	20157
868.233	20191
868.364	20278
868.495	20168
868.625	20294
868.756	20465
868.886	20320
869.017	20320
869.147	20564
869.278	20499
869.408	20476
869.539	20408
869.669	20484
869.799	20404
869.929	20602
870.06	20507
870.19	20678
870.32	20735
870.45	20697
870.58	20762
870.71	20925
870.84	20899
870.97	20811
871.1	20857
871.23	21009
871.36	20941
871.489	20941
871.619	20933
871.749	21020
871.879	21036
872.008	20967
872.138	20971
872.267	20956
872.397	20781
872.526	20796
872.656	20883
872.785	20842
872.915	21009
873.044	20979
873.173	20883
873.303	21005
873.432	21104
873.561	21062
873.69	21013
873.819	21051
873.948	21066
874.077	21028
874.206	20883
874.335	20941
874.464	21180
874.593	21298
874.722	21203
874.851	21382
874.979	21336
875.108	21283
875.237	21211
875.365	21127
875.494	21249
875.623	21256
875.751	21089
875.88	21340
876.008	21424
876.136	21374
876.265	21545
876.393	21732
876.521	21686
876.65	21720
876.778	21656
876.906	21542
877.034	21473
877.162	21576
877.29	21629
877.418	21694
877.546	21743
877.674	21614
877.802	21644
877.93	21591
878.058	21523
878.185	21389
878.313	21663
878.441	21660
878.568	21416
878.696	21576
878.824	21595
878.951	21660
879.079	21724
879.206	21873
879.333	21720
879.461	21747
879.588	21778
879.715	21751
879.842	21762
879.97	21675
880.097	21321
880.224	21443
880.351	21325
880.478	21428
880.605	21378
880.732	21424
880.859	21679
880.986	21302
881.112	21439
881.239	21317
881.366	21058
881.493	20948
881.619	20895
881.746	21207
881.872	21100
881.999	21001
882.125	20929
882.252	21077
882.378	21062
882.505	21066
882.631	20971
882.757	20804
882.883	20925
883.01	20693
883.136	20651
883.262	20659
883.388	20541
883.514	20765
883.64	20754
883.766	20655
883.892	20522
884.018	20609
884.143	20735
884.269	20743
884.395	20488
884.52	20434
884.646	20450
884.772	20355
884.897	20294
885.023	20358
885.148	20423
885.274	20503
885.399	20518
885.524	20400
885.65	20347
885.775	20488
885.9	20271
886.025	20461
886.15	20454
886.275	20313
886.4	20324
886.525	20355
886.65	20294
886.775	20244
886.9	20427
887.025	20609
887.149	20229
887.274	20157
887.399	20149
887.523	20134
887.648	20149
887.773	20096
887.897	20088
888.021	20145
888.146	20039
888.27	20180
888.395	20248
888.519	20134
888.643	20271
888.767	20229
888.891	20077
889.015	19925
889.139	19959
889.263	19875
889.387	20092
889.511	20195
889.635	20020
889.759	19936
889.883	19860
890.006	19951
890.13	20016
890.254	19909
890.377	19894
890.501	19742
890.624	19696
890.748	19685
890.871	19586
890.995	19472
891.118	19533
891.241	19457
891.364	19586
891.488	19552
891.611	19605
891.734	19529
891.857	19559
891.98	19480
892.103	19567
892.226	19578
892.349	19438
892.471	19316
892.594	19483
892.717	19483
892.839	19521
892.962	19533
893.085	19548
893.207	19468
893.33	19304
893.452	19282
893.575	19411
893.697	19369
893.819	19597
893.941	19601
894.064	19556
894.186	19343
894.308	19335
894.43	19430
894.552	19613
894.674	19502
894.796	19335
894.918	19320
895.04	19400
895.161	19597
895.283	19502
895.405	19384
895.526	19384
895.648	19415
895.769	19480
895.891	19525
896.012	19609
896.134	19441
896.255	19480
896.376	19502
896.498	19457
896.619	19419
896.74	19407
896.861	19613
896.982	19921
897.103	19940
897.224	19776
897.345	19712
897.466	19666
897.587	19849
897.708	19906
897.828	19674
897.949	19715
898.07	19544
898.19	19506
898.311	19738
898.431	19651
898.552	19700
898.672	19731
898.792	19647
898.913	19662
899.033	19605
899.153	19464
899.273	19377
899.393	19289
899.513	19362
899.633	19472
899.753	19384
899.873	19464
899.993	19499
900.113	19362
900.232	19460
900.352	19312
900.472	19320
900.591	19202
900.711	19209
900.83	19198
900.95	19274
901.069	19107
901.189	19209
901.308	18973
901.427	18802
901.546	18840
901.665	18897
901.784	18707
901.904	18677
902.023	18513
902.141	18448
902.26	18410
902.379	18376
902.498	18285
902.617	18300
902.735	18372
902.854	18319
902.973	18311
903.091	17980
903.21	17973
903.328	17984
903.446	17870
903.565	17870
903.683	17805
903.801	17627
903.919	17718
904.038	17741
904.156	17524
904.274	17691
904.392	17668
904.51	17543
904.627	17535
904.745	17623
904.863	17505
904.981	17349
905.098	17254
905.216	17216
905.334	17273
905.451	17174
905.569	17315
905.686	17277
905.803	17261
905.921	17010
906.038	17208
906.155	17056
906.272	16942
906.389	16927
906.506	16771
906.623	16755
906.74	16805
906.857	16615
906.974	16759
907.091	16763
907.208	16835
907.324	16763
907.441	16702
907.557	16546
907.674	16500
907.79	16394
907.907	16447
908.023	16615
908.139	16424
908.256	16363
908.372	16341
908.488	16265
908.604	16219
908.72	16143
908.836	16154
908.952	16150
909.068	16188
909.184	16352
909.3	16131
909.415	16162
909.531	16097
909.647	15861
909.762	15956
909.878	15854
909.993	15842
910.108	15846
910.224	15854
910.339	15918
910.454	15671
910.57	15739
910.685	15675
910.8	15899
910.915	15892
911.03	15709
911.145	15538
911.259	15439
911.374	15488
911.489	15344
911.604	15325
911.718	15199
911.833	15245
911.947	15154
912.062	14998
912.176	15116
912.291	15260
912.405	15256
912.519	15401
912.633	15378
912.748	15272
912.862	15226
912.976	15100
913.09	14937
913.204	15005
913.318	15062
913.431	15131
913.545	15165
913.659	15123
913.772	14948
913.886	14906
914	14861
914.113	14941
914.226	14925
914.34	14975
914.453	14807
914.566	14864
914.68	14720
914.793	14617
914.906	14629
915.019	14545
915.132	14454
915.245	14446
915.358	14533
915.47	14533
915.583	14473
915.696	14389
915.809	14568
915.921	14621
916.034	14366
916.146	14423
916.259	14381
916.371	14465
916.483	14362
916.595	14320
916.708	14252
916.82	14454
916.932	14298
917.044	14301
917.156	14218
917.268	14252
917.38	14195
917.491	14119
917.603	14123
917.715	14263
917.826	14313
917.938	14077
918.049	14054
918.161	14043
918.272	14134
918.384	14313
918.495	14199
918.606	13970
918.717	13772
918.828	14012
918.939	13997
919.05	13826
919.161	13940
919.272	13723
919.383	13765
919.494	13970
919.604	14081
919.715	13795
919.826	13811
919.936	13807
920.047	14005
920.157	13837
920.267	14088
920.378	13894
920.488	13925
920.598	14081
920.708	14195
920.818	13970
920.928	13997
921.038	14176
921.148	14172
921.258	13921
921.368	13742
921.477	13609
921.587	13708
921.697	13457
921.806	13613
921.916	13449
922.025	13350
922.134	13278
922.244	13179
922.353	13331
922.462	13259
922.571	13088
922.68	12989
922.789	12932
922.898	13019
923.007	12852
923.116	12935
923.224	12833
923.333	12764
923.442	12768
923.55	12745
923.659	12772
923.767	12677
923.876	12703
923.984	12749
924.092	12806
924.201	12665
924.309	12711
924.417	12669
924.525	12585
924.633	12681
924.741	13350
924.849	12391
924.956	12532
925.064	12334
925.172	12357
925.279	12365
925.387	12372
925.494	12308
925.602	12513
925.709	12330
925.816	12277
925.924	12319
926.031	12448
926.138	12311
926.245	12399
926.352	12334
926.459	12361
926.566	12391
926.673	12136
926.779	12098
926.886	12129
926.993	11961
927.099	11901
927.206	11935
927.312	11893
927.419	11961
927.525	11882
927.631	11912
927.737	11836
927.843	11798
927.95	11676
928.056	11726
928.162	11824
928.267	11836
928.373	12323
928.479	11916
928.585	11577
928.69	11783
928.796	11783
928.901	11649
929.007	11532
929.112	11653
929.218	11634
929.323	11570
929.428	11554
929.533	11627
929.638	11512
929.743	11520
929.848	11512
929.953	11463
930.058	11356
930.163	11303
930.267	11227
930.372	11337
930.477	11166
930.581	11372
930.685	11273
930.79	11124
930.894	11117
930.998	11094
931.103	11223
931.207	10790
931.311	10797
931.415	10710
931.519	10500
931.623	10375
