Data from test_V78500241_1976.txt Node
Date: Fri Mar 25 15:23:37 CST 2022
User: usil
Spectrometer: V785-0024
Trigger mode: 0
Integration Time (sec): 4.000000E-1
Scans to average: 1
Nonlinearity correction enabled: false
Boxcar width: 0
Storing dark spectrum: false
XAxis mode: Wavelengths
Number of Pixels in Spectrum: 1024
>>>>>Begin Spectral Data<<<<<
801.071	27713
801.214	27694
801.356	27511
801.499	27329
801.641	27450
801.783	27348
801.926	27359
802.068	27336
802.211	27184
802.353	27013
802.496	27142
802.638	26975
802.78	26990
802.923	26883
803.065	26994
803.208	26971
803.35	26982
803.492	27131
803.635	27123
803.777	27131
803.919	27161
804.061	27542
804.204	27230
804.346	27119
804.488	27154
804.63	27291
804.773	27123
804.915	27211
805.057	27268
805.199	27089
805.341	27138
805.483	27260
805.626	27405
805.768	27192
805.91	27291
806.052	27363
806.194	27252
806.336	27405
806.478	27344
806.62	27412
806.762	27435
806.904	27526
807.046	27884
807.188	27770
807.33	27637
807.472	27808
807.614	27698
807.756	27671
807.898	27652
808.04	27530
808.182	27603
808.324	27679
808.465	27667
808.607	27892
808.749	27838
808.891	28017
809.033	28105
809.174	27968
809.316	27895
809.458	27835
809.6	27888
809.741	27983
809.883	28055
810.025	28280
810.166	28207
810.308	28291
810.45	28204
810.591	28147
810.733	27975
810.875	27884
811.016	27766
811.158	27759
811.299	27953
811.441	28093
811.582	28070
811.724	27895
811.865	27945
812.007	27838
812.148	27907
812.29	27949
812.431	28025
812.573	28226
812.714	28432
812.855	28401
812.997	28481
813.138	28622
813.279	28584
813.421	28447
813.562	28348
813.703	28268
813.845	28173
813.986	27808
814.127	27717
814.268	27690
814.41	27603
814.551	27572
814.692	27728
814.833	27580
814.974	27610
815.115	27435
815.256	27427
815.397	27545
815.539	27473
815.68	27386
815.821	27408
815.962	27325
816.103	27325
816.244	27275
816.385	27146
816.526	27146
816.666	27001
816.807	26902
816.948	26895
817.089	26811
817.23	26944
817.371	26944
817.512	27009
817.653	26842
817.793	26971
817.934	26891
818.075	26876
818.216	26971
818.356	26769
818.497	26895
818.638	26590
818.778	26594
818.919	26507
819.06	26689
819.2	26765
819.341	26838
819.481	26872
819.622	27096
819.762	27252
819.903	27138
820.043	27287
820.184	26940
820.324	27051
820.465	27233
820.605	27169
820.746	26963
820.886	26960
821.026	26986
821.167	26910
821.307	27055
821.447	27024
821.588	26842
821.728	26777
821.868	26560
822.008	26351
822.149	26374
822.289	26336
822.429	26084
822.569	25966
822.709	26164
822.849	25928
822.99	25902
823.13	25856
823.27	25818
823.41	25814
823.55	25662
823.69	25655
823.83	25677
823.97	25731
824.11	25567
824.25	25651
824.389	25521
824.529	25639
824.669	25544
824.809	25761
824.949	25620
825.089	25556
825.228	25556
825.368	25388
825.508	25415
825.648	25400
825.787	25441
825.927	25438
826.067	25251
826.206	25415
826.346	25377
826.485	25464
826.625	25396
826.765	25502
826.904	25411
827.044	25152
827.183	25152
827.323	25069
827.462	25171
827.601	25187
827.741	25168
827.88	25053
828.02	25015
828.159	25042
828.298	25152
828.437	25164
828.577	25046
828.716	25107
828.855	25042
828.994	24741
829.134	24772
829.273	24776
829.412	24760
829.551	24703
829.69	24658
829.829	24753
829.968	24905
830.107	24962
830.246	24859
830.385	24749
830.524	24738
830.663	24612
830.802	24673
830.941	24456
831.08	24464
831.219	24604
831.357	24460
831.496	24646
831.635	24441
831.774	24395
831.913	24338
832.051	24315
832.19	24091
832.329	24285
832.467	23893
832.606	24038
832.744	24079
832.883	24072
833.022	24079
833.16	24095
833.299	24098
833.437	24060
833.576	24350
833.714	24232
833.852	24117
833.991	24174
834.129	24251
834.267	24330
834.406	24270
834.544	24125
834.682	24167
834.821	24273
834.959	24353
835.097	23980
835.235	24216
835.373	24095
835.511	24133
835.65	24038
835.788	24007
835.926	23939
836.064	23802
836.202	23786
836.34	23988
836.478	24125
836.615	23946
836.753	23958
836.891	24007
837.029	24034
837.167	23912
837.305	23866
837.443	23889
837.58	23786
837.718	23969
837.856	23847
837.993	23786
838.131	23996
838.269	23726
838.406	23695
838.544	23733
838.681	23501
838.819	23429
838.956	23220
839.094	23223
839.231	23509
839.369	23478
839.506	23794
839.643	23634
839.781	23353
839.918	23433
840.055	23349
840.193	23239
840.33	23083
840.467	23315
840.604	23273
840.742	23501
840.879	23174
841.016	23067
841.153	23105
841.29	23299
841.427	23337
841.564	23296
841.701	23246
841.838	23299
841.975	23071
842.112	23105
842.249	23041
842.385	23033
842.522	23075
842.659	23155
842.796	22999
842.933	22984
843.069	22824
843.206	22869
843.343	23056
843.479	22942
843.616	23083
843.752	22691
843.889	22847
844.025	22904
844.162	22717
844.298	22877
844.435	22824
844.571	22641
844.708	22900
844.844	22949
844.98	22980
845.117	22801
845.253	22698
845.389	22725
845.525	22664
845.661	22630
845.798	22588
845.934	22550
846.07	22470
846.206	22485
846.342	22500
846.478	22421
846.614	22341
846.75	22188
846.886	22268
847.022	22371
847.158	22219
847.294	22287
847.429	22196
847.565	22204
847.701	22413
847.837	21911
847.972	21991
848.108	22048
848.244	21911
848.379	21979
848.515	21884
848.65	21770
848.786	21857
848.921	21850
849.057	21945
849.192	21899
849.328	21884
849.463	21846
849.598	21846
849.734	21648
849.869	21545
850.004	21580
850.14	21576
850.275	21610
850.41	21477
850.545	21424
850.68	21641
850.815	21644
850.95	21576
851.085	21785
851.22	21831
851.355	21591
851.49	21622
851.625	21572
851.76	21652
851.895	21511
852.03	21610
852.165	21534
852.299	21530
852.434	21686
852.569	21682
852.703	21603
852.838	21682
852.973	21694
853.107	21641
853.242	21660
853.376	21382
853.511	21386
853.645	21325
853.78	21538
853.914	21447
854.048	21454
854.183	21405
854.317	21401
854.451	21648
854.585	21378
854.72	21576
854.854	21504
854.988	21488
855.122	21519
855.256	21317
855.39	21386
855.524	21564
855.658	21408
855.792	21511
855.926	21431
856.06	21500
856.194	21545
856.327	21344
856.461	21317
856.595	21401
856.729	21405
856.862	21473
856.996	21424
857.13	21473
857.263	21580
857.397	21587
857.53	21363
857.664	21549
857.797	21393
857.931	21561
858.064	21439
858.197	21606
858.331	21450
858.464	21279
858.597	21408
858.731	21386
858.864	21416
858.997	21298
859.13	21469
859.263	21389
859.396	21568
859.529	21450
859.662	21367
859.795	21363
859.928	21458
860.061	21557
860.194	21614
860.327	21389
860.46	21443
860.592	21633
860.725	21561
860.858	21526
860.99	21310
861.123	21317
861.256	21329
861.388	21405
861.521	22082
861.653	21256
861.786	21275
861.918	21332
862.05	21325
862.183	21397
862.315	21389
862.447	21519
862.58	21336
862.712	21176
862.844	21154
862.976	21203
863.108	21237
863.24	21614
863.372	21127
863.504	21112
863.636	21100
863.768	21154
863.9	21119
864.032	21039
864.164	21138
864.296	21184
864.428	21222
864.559	21279
864.691	21275
864.823	21180
864.954	21142
865.086	21245
865.217	20967
865.349	20952
865.48	20982
865.612	20994
865.743	21173
865.875	21100
866.006	21066
866.137	21150
866.269	20990
866.4	21066
866.531	20952
866.662	20998
866.793	20826
866.924	20960
867.055	20960
867.186	20944
867.317	20937
867.448	20838
867.579	21058
867.71	20918
867.841	20880
867.972	20990
868.103	20948
868.233	20960
868.364	21009
868.495	21020
868.625	21119
868.756	21283
868.886	21138
869.017	21146
869.147	21214
869.278	21256
869.408	21291
869.539	21302
869.669	21359
869.799	21302
869.929	21340
870.06	21310
870.19	21496
870.32	21447
870.45	21542
870.58	21637
870.71	21583
870.84	21694
870.97	21736
871.1	21603
871.23	21823
871.36	21766
871.489	21785
871.619	21774
871.749	21804
871.879	21888
872.008	21838
872.138	21778
872.267	21732
872.397	21686
872.526	21682
872.656	21515
872.785	21553
872.915	21808
873.044	21911
873.173	21854
873.303	21895
873.432	21850
873.561	21991
873.69	21941
873.819	21812
873.948	21728
874.077	21717
874.206	21679
874.335	21774
874.464	21960
874.593	22135
874.722	21972
874.851	22131
874.979	22105
875.108	22017
875.237	22025
875.365	21918
875.494	22044
875.623	22120
875.751	22010
875.88	22109
876.008	22074
876.136	22223
876.265	22280
876.393	22577
876.521	22615
876.65	22592
876.778	22462
876.906	22356
877.034	22337
877.162	22303
877.29	22261
877.418	22379
877.546	22478
877.674	22409
877.802	22417
877.93	22375
878.058	22337
878.185	22409
878.313	22341
878.441	22306
878.568	22333
878.696	22344
878.824	22447
878.951	22386
879.079	22440
879.206	22660
879.333	22607
879.461	22440
879.588	22459
879.715	22584
879.842	22683
879.97	22360
880.097	22207
880.224	22204
880.351	22344
880.478	22265
880.605	22204
880.732	22249
880.859	22478
880.986	22211
881.112	22230
881.239	22063
881.366	21991
881.493	21899
881.619	21736
881.746	21720
881.872	21857
881.999	21804
882.125	21800
882.252	21911
882.378	21766
882.505	21823
882.631	21736
882.757	21389
882.883	21720
883.01	21644
883.136	21473
883.262	21424
883.388	21370
883.514	21477
883.64	21561
883.766	21370
883.892	21279
884.018	21226
884.143	21351
884.269	21435
884.395	21150
884.52	21028
884.646	21142
884.772	21184
884.897	21009
885.023	21036
885.148	21188
885.274	21298
885.399	21192
885.524	21207
885.65	21154
885.775	21096
885.9	20982
886.025	21233
886.15	21294
886.275	21154
886.4	20994
886.525	21233
886.65	21036
886.775	21039
886.9	21211
887.025	21306
887.149	21260
887.274	20895
887.399	20788
887.523	20895
887.648	20807
887.773	20838
887.897	20967
888.021	20929
888.146	20800
888.27	20891
888.395	21001
888.519	20876
888.643	20998
888.767	20975
888.891	20826
889.015	20788
889.139	20682
889.263	20670
889.387	20823
889.511	20880
889.635	20845
889.759	20648
889.883	20667
890.006	20678
890.13	20849
890.254	20629
890.377	20541
890.501	20465
890.624	20476
890.748	20438
890.871	20339
890.995	20259
891.118	20161
891.241	20351
891.364	20282
891.488	20320
891.611	20221
891.734	20343
891.857	20275
891.98	20358
892.103	20271
892.226	20199
892.349	20225
892.471	20119
892.594	20119
892.717	20122
892.839	20027
892.962	20191
893.085	20377
893.207	20122
893.33	20107
893.452	20031
893.575	20149
893.697	20126
893.819	20381
893.941	20393
894.064	20332
894.186	20115
894.308	20142
894.43	20286
894.552	20252
894.674	20244
894.796	20058
894.918	20107
895.04	20077
895.161	20103
895.283	20225
895.405	20001
895.526	20115
895.648	20172
895.769	20267
895.891	20256
896.012	20180
896.134	20111
896.255	20092
896.376	20130
896.498	20176
896.619	20161
896.74	20183
896.861	20271
896.982	20503
897.103	20598
897.224	20514
897.345	20454
897.466	20374
897.587	20320
897.708	20438
897.828	20381
897.949	20320
898.07	20199
898.19	20221
898.311	20602
898.431	20294
898.552	20427
898.672	20381
898.792	20423
898.913	20290
899.033	20313
899.153	20153
899.273	20016
899.393	20142
899.513	20145
899.633	20157
899.753	20138
899.873	19993
899.993	20058
900.113	20126
900.232	20157
900.352	20001
900.472	19811
900.591	19860
900.711	19875
900.83	19822
900.95	19982
901.069	19871
901.189	19814
901.308	19655
901.427	19499
901.546	19426
901.665	19476
901.784	19445
901.904	19308
902.023	19285
902.141	19099
902.26	19095
902.379	18958
902.498	18890
902.617	18913
902.735	19012
902.854	18939
902.973	18916
903.091	18673
903.21	18627
903.328	18688
903.446	18525
903.565	18502
903.683	18448
903.801	18456
903.919	18441
904.038	18300
904.156	18171
904.274	18388
904.392	18197
904.51	18251
904.627	18247
904.745	18235
904.863	18395
904.981	18053
905.098	17828
905.216	17927
905.334	17927
905.451	17912
905.569	17965
905.686	17836
905.803	17980
905.921	17615
906.038	17939
906.155	17710
906.272	17653
906.389	17608
906.506	17417
906.623	17497
906.74	17425
906.857	17337
906.974	17284
907.091	17444
907.208	17615
907.324	17482
907.441	17296
907.557	17132
907.674	17265
907.79	17060
907.907	17117
908.023	17147
908.139	17155
908.256	17090
908.372	17109
908.488	17060
908.604	16991
908.72	16885
908.836	16862
908.952	16919
909.068	16850
909.184	17033
909.3	16847
909.415	16942
909.531	16854
909.647	16630
909.762	16542
909.878	16542
909.993	16535
910.108	16436
910.224	16538
910.339	16592
910.454	16417
910.57	16432
910.685	16367
910.8	16554
910.915	16405
911.03	16238
911.145	16120
911.259	16223
911.374	16310
911.489	16135
911.604	16192
911.718	15911
911.833	15922
911.947	15793
912.062	15770
912.176	15873
912.291	15774
912.405	15892
912.519	16105
912.633	16173
912.748	15953
912.862	15842
912.976	15789
913.09	15652
913.204	15625
913.318	15690
913.431	15838
913.545	15717
913.659	15709
913.772	15762
913.886	15500
914	15447
914.113	15545
914.226	15648
914.34	15641
914.453	15450
914.566	15641
914.68	15549
914.793	15477
914.906	15230
915.019	15195
915.132	15085
915.245	15157
915.358	15157
915.47	15123
915.583	15135
915.696	15211
915.809	15192
915.921	15214
916.034	14998
916.146	15032
916.259	14971
916.371	15116
916.483	15032
916.595	14956
916.708	14998
916.82	15001
916.932	14971
917.044	14861
917.156	14891
917.268	14853
917.38	14815
917.491	14785
917.603	14845
917.715	14773
917.826	14918
917.938	14651
918.049	14640
918.161	14739
918.272	14861
918.384	14785
918.495	14640
918.606	14533
918.717	14526
918.828	14552
918.939	14625
919.05	14511
919.161	14564
919.272	14294
919.383	14381
919.494	14564
919.604	14716
919.715	14438
919.826	14408
919.936	14518
920.047	14651
920.157	14469
920.267	14575
920.378	14518
920.488	14492
920.598	14712
920.708	14788
920.818	14579
920.928	14549
921.038	14788
921.148	14705
921.258	14465
921.368	14301
921.477	14256
921.587	14199
921.697	14130
921.806	14278
921.916	14164
922.025	13871
922.134	13959
922.244	13826
922.353	13913
922.462	13753
922.571	13670
922.68	13636
922.789	13533
922.898	13586
923.007	13613
923.116	13594
923.224	13594
923.333	13453
923.442	13411
923.55	13350
923.659	13411
923.767	13430
923.876	13270
923.984	13403
924.092	13293
924.201	13327
924.309	13251
924.417	13221
924.525	13179
924.633	13152
924.741	13963
924.849	12970
924.956	13141
925.064	12977
925.172	12905
925.279	12935
925.387	12890
925.494	12951
925.602	13072
925.709	13000
925.816	12825
925.924	12966
926.031	13015
926.138	12840
926.245	12924
926.352	12768
926.459	12894
926.566	12829
926.673	12810
926.779	12703
926.886	12669
926.993	12585
927.099	12498
927.206	12467
927.312	12441
927.419	12673
927.525	12521
927.631	12525
927.737	12395
927.843	12311
927.95	12285
928.056	12224
928.162	12315
928.267	12292
928.373	13000
928.479	12429
928.585	12117
928.69	12327
928.796	12285
928.901	12182
929.007	12030
929.112	12201
929.218	12011
929.323	12022
929.428	12041
929.533	12140
929.638	12011
929.743	12034
929.848	12057
929.953	11980
930.058	11931
930.163	11756
930.267	11760
930.372	11878
930.477	11703
930.581	12030
930.685	11817
930.79	11608
930.894	11710
930.998	11615
931.103	11714
931.207	11349
931.311	11349
931.415	11220
931.519	11025
931.623	11018
