Data from test_V78500241_3031.txt Node
Date: Fri Mar 25 15:30:57 CST 2022
User: usil
Spectrometer: V785-0024
Trigger mode: 0
Integration Time (sec): 4.000000E-1
Scans to average: 1
Nonlinearity correction enabled: false
Boxcar width: 0
Storing dark spectrum: false
XAxis mode: Wavelengths
Number of Pixels in Spectrum: 1024
>>>>>Begin Spectral Data<<<<<
801.071	27165
801.214	27161
801.356	26845
801.499	26861
801.641	26754
801.783	26788
801.926	26625
802.068	26762
802.211	26781
802.353	26571
802.496	26457
802.638	26446
802.78	26366
802.923	26389
803.065	26237
803.208	26290
803.35	26423
803.492	26533
803.635	26598
803.777	26305
803.919	26629
804.061	26872
804.204	26541
804.346	26492
804.488	26453
804.63	26404
804.773	26423
804.915	26530
805.057	26651
805.199	26328
805.341	26598
805.483	26629
805.626	26788
805.768	26579
805.91	26625
806.052	26712
806.194	26503
806.336	26838
806.478	26613
806.62	26606
806.762	26781
806.904	26857
807.046	27157
807.188	27142
807.33	27180
807.472	27241
807.614	27146
807.756	26921
807.898	26876
808.04	26804
808.182	26754
808.324	26902
808.465	27036
808.607	27116
808.749	27203
808.891	27466
809.033	27504
809.174	27317
809.316	27241
809.458	27291
809.6	27218
809.741	27241
809.883	27496
810.025	27542
810.166	27538
810.308	27610
810.45	27435
810.591	27401
810.733	27287
810.875	27306
811.016	27283
811.158	27230
811.299	27386
811.441	27359
811.582	27462
811.724	27203
811.865	27283
812.007	27199
812.148	27241
812.29	27142
812.431	27336
812.573	27568
812.714	27610
812.855	27667
812.997	27800
813.138	27888
813.279	27861
813.421	27690
813.562	27663
813.703	27564
813.845	27355
813.986	27184
814.127	26940
814.268	26876
814.41	26982
814.551	27074
814.692	26918
814.833	26933
814.974	26929
815.115	26872
815.256	26921
815.397	26712
815.539	26750
815.68	26826
815.821	26632
815.962	26689
816.103	26686
816.244	26469
816.385	26404
816.526	26442
816.666	26225
816.807	26142
816.948	26172
817.089	26176
817.23	26073
817.371	26035
817.512	26069
817.653	26103
817.793	26081
817.934	26050
818.075	26130
818.216	26058
818.356	26062
818.497	26012
818.638	25826
818.778	25959
818.919	25898
819.06	26008
819.2	26172
819.341	26168
819.481	26164
819.622	26294
819.762	26511
819.903	26290
820.043	26259
820.184	26180
820.324	26187
820.465	26320
820.605	26263
820.746	26149
820.886	26126
821.026	26115
821.167	26221
821.307	26343
821.447	26092
821.588	26100
821.728	25982
821.868	25681
822.008	25750
822.149	25658
822.289	25601
822.429	25487
822.569	25240
822.709	25362
822.849	25183
822.99	25171
823.13	24996
823.27	25000
823.41	24939
823.55	24886
823.69	24894
823.83	24863
823.97	24916
824.11	24738
824.25	24673
824.389	24639
824.529	24844
824.669	24768
824.809	24901
824.949	24817
825.089	24837
825.228	24753
825.368	24703
825.508	24608
825.648	24540
825.787	24646
825.927	24719
826.067	24551
826.206	24509
826.346	24719
826.485	24688
826.625	24570
826.765	24658
826.904	24650
827.044	24429
827.183	24407
827.323	24300
827.462	24384
827.601	24311
827.741	24315
827.88	24315
828.02	24098
828.159	24460
828.298	24289
828.437	24273
828.577	24285
828.716	24486
828.855	24319
828.994	24007
829.134	24110
829.273	24045
829.412	24015
829.551	23969
829.69	23893
829.829	24167
829.968	24133
830.107	24026
830.246	24098
830.385	24026
830.524	23767
830.663	23828
830.802	23722
830.941	23585
831.08	23608
831.219	23699
831.357	23752
831.496	23931
831.635	23691
831.774	23627
831.913	23570
832.051	23471
832.19	23364
832.329	23353
832.467	23360
832.606	23212
832.744	23235
832.883	23292
833.022	23189
833.16	23220
833.299	23353
833.437	23356
833.576	23425
833.714	23379
833.852	23417
833.991	23474
834.129	23474
834.267	23512
834.406	23395
834.544	23448
834.682	23322
834.821	23337
834.959	23505
835.097	23345
835.235	23482
835.373	23246
835.511	23414
835.65	23098
835.788	23181
835.926	23075
836.064	22999
836.202	23098
836.34	23121
836.478	23216
836.615	23124
836.753	23098
836.891	23227
837.029	23143
837.167	23022
837.305	23151
837.443	22923
837.58	23006
837.718	23090
837.856	23067
837.993	22999
838.131	23094
838.269	22923
838.406	22881
838.544	22831
838.681	22691
838.819	22656
838.956	22409
839.094	22535
839.231	22668
839.369	22683
839.506	22881
839.643	22710
839.781	22538
839.918	22470
840.055	22512
840.193	22489
840.33	22440
840.467	22485
840.604	22561
840.742	22767
840.879	22390
841.016	22371
841.153	22303
841.29	22523
841.427	22489
841.564	22546
841.701	22394
841.838	22409
841.975	22310
842.112	22481
842.249	22200
842.385	22284
842.522	22569
842.659	22325
842.796	22246
842.933	22173
843.069	22246
843.206	22158
843.343	22249
843.479	22154
843.616	22181
843.752	21949
843.889	21956
844.025	22215
844.162	22002
844.298	22093
844.435	22059
844.571	21930
844.708	21998
844.844	22109
844.98	22120
845.117	22021
845.253	22002
845.389	22021
845.525	21876
845.661	21850
845.798	21625
845.934	21770
846.07	21580
846.206	21778
846.342	21747
846.478	21774
846.614	21599
846.75	21439
846.886	21416
847.022	21523
847.158	21469
847.294	21496
847.429	21564
847.565	21492
847.701	21720
847.837	21203
847.972	21203
848.108	21252
848.244	21298
848.379	21131
848.515	21009
848.65	21096
848.786	21169
848.921	20971
849.057	21157
849.192	21119
849.328	21192
849.463	21005
849.598	21043
849.734	20967
849.869	20986
850.004	20849
850.14	20739
850.275	20758
850.41	20743
850.545	20693
850.68	20621
850.815	20800
850.95	20826
851.085	20876
851.22	20960
851.355	20819
851.49	20864
851.625	20765
851.76	20845
851.895	20800
852.03	20765
852.165	20804
852.299	20849
852.434	20941
852.569	20823
852.703	20712
852.838	20785
852.973	21062
853.107	20720
853.242	20686
853.376	20663
853.511	20396
853.645	20549
853.78	20640
853.914	20648
854.048	20594
854.183	20625
854.317	20705
854.451	20815
854.585	20545
854.72	20579
854.854	20754
854.988	20484
855.122	20594
855.256	20488
855.39	20571
855.524	20701
855.658	20682
855.792	20636
855.926	20724
856.06	20765
856.194	20773
856.327	20590
856.461	20480
856.595	20644
856.729	20670
856.862	20735
856.996	20632
857.13	20731
857.263	20758
857.397	20746
857.53	20583
857.664	20602
857.797	20651
857.931	20667
858.064	20659
858.197	20811
858.331	20560
858.464	20602
858.597	20526
858.731	20636
858.864	20446
858.997	20511
859.13	20686
859.263	20613
859.396	20678
859.529	20659
859.662	20434
859.795	20522
859.928	20587
860.061	20785
860.194	20754
860.327	20743
860.46	20629
860.592	20765
860.725	20739
860.858	20800
860.99	20720
861.123	20583
861.256	20545
861.388	20731
861.521	21317
861.653	20552
861.786	20446
861.918	20507
862.05	20545
862.183	20530
862.315	20609
862.447	20598
862.58	20530
862.712	20541
862.844	20301
862.976	20377
863.108	20503
863.24	20845
863.372	20351
863.504	20324
863.636	20415
863.768	20408
863.9	20450
864.032	20259
864.164	20351
864.296	20503
864.428	20492
864.559	20385
864.691	20431
864.823	20278
864.954	20351
865.086	20317
865.217	20339
865.349	20240
865.48	20347
865.612	20309
865.743	20324
865.875	20275
866.006	20180
866.137	20183
866.269	20305
866.4	20237
866.531	20229
866.662	20195
866.793	20172
866.924	20218
867.055	20206
867.186	20263
867.317	20240
867.448	20062
867.579	20221
867.71	20100
867.841	20081
867.972	20164
868.103	20065
868.233	20183
868.364	20214
868.495	20301
868.625	20480
868.756	20575
868.886	20404
869.017	20514
869.147	20495
869.278	20495
869.408	20480
869.539	20473
869.669	20560
869.799	20419
869.929	20537
870.06	20499
870.19	20804
870.32	20693
870.45	20724
870.58	20845
870.71	20857
870.84	20910
870.97	20864
871.1	20815
871.23	20929
871.36	21028
871.489	20982
871.619	21051
871.749	21017
871.879	21062
872.008	21123
872.138	21119
872.267	20998
872.397	20998
872.526	20796
872.656	20906
872.785	20815
872.915	21135
873.044	21138
873.173	21009
873.303	21188
873.432	21062
873.561	21184
873.69	21112
873.819	21214
873.948	21226
874.077	21093
874.206	21154
874.335	21093
874.464	21203
874.593	21294
874.722	21165
874.851	21363
874.979	21260
875.108	21321
875.237	21245
875.365	21207
875.494	21222
875.623	21344
875.751	21294
875.88	21355
876.008	21424
876.136	21538
876.265	21755
876.393	21816
876.521	21667
876.65	21762
876.778	21694
876.906	21580
877.034	21603
877.162	21755
877.29	21591
877.418	21713
877.546	21751
877.674	21656
877.802	21686
877.93	21606
878.058	21629
878.185	21614
878.313	21675
878.441	21629
878.568	21526
878.696	21587
878.824	21660
878.951	21587
879.079	21838
879.206	21854
879.333	21770
879.461	21526
879.588	21698
879.715	21789
879.842	21903
879.97	21759
880.097	21492
880.224	21485
880.351	21511
880.478	21561
880.605	21405
880.732	21568
880.859	21774
880.986	21477
881.112	21439
881.239	21294
881.366	21218
881.493	21074
881.619	21161
881.746	21157
881.872	21001
881.999	21039
882.125	20979
882.252	21116
882.378	21058
882.505	21093
882.631	21020
882.757	20883
882.883	20857
883.01	20853
883.136	20716
883.262	20781
883.388	20575
883.514	20754
883.64	20861
883.766	20632
883.892	20636
884.018	20640
884.143	20716
884.269	20765
884.395	20450
884.52	20389
884.646	20431
884.772	20374
884.897	20328
885.023	20434
885.148	20571
885.274	20564
885.399	20533
885.524	20476
885.65	20423
885.775	20568
885.9	20385
886.025	20499
886.15	20503
886.275	20461
886.4	20187
886.525	20434
886.65	20408
886.775	20301
886.9	20465
887.025	20606
887.149	20324
887.274	20263
887.399	20229
887.523	20187
887.648	20244
887.773	20126
887.897	20218
888.021	20225
888.146	20142
888.27	20172
888.395	20244
888.519	20229
888.643	20278
888.767	20195
888.891	20199
889.015	20058
889.139	20111
889.263	19868
889.387	20039
889.511	20237
889.635	20119
889.759	20111
889.883	19909
890.006	19986
890.13	20119
890.254	19902
890.377	19909
890.501	19746
890.624	19761
890.748	19712
890.871	19666
890.995	19609
891.118	19495
891.241	19464
891.364	19514
891.488	19719
891.611	19639
891.734	19624
891.857	19628
891.98	19586
892.103	19540
892.226	19533
892.349	19628
892.471	19312
892.594	19464
892.717	19495
892.839	19533
892.962	19483
893.085	19605
893.207	19533
893.33	19487
893.452	19327
893.575	19476
893.697	19556
893.819	19655
893.941	19776
894.064	19723
894.186	19453
894.308	19422
894.43	19624
894.552	19696
894.674	19643
894.796	19392
894.918	19487
895.04	19445
895.161	19464
895.283	19533
895.405	19518
895.526	19491
895.648	19457
895.769	19559
895.891	19480
896.012	19559
896.134	19537
896.255	19571
896.376	19502
896.498	19529
896.619	19518
896.74	19529
896.861	19472
896.982	19776
897.103	20054
897.224	19738
897.345	19723
897.466	19651
897.587	19723
897.708	19883
897.828	19784
897.949	19746
898.07	19582
898.19	19624
898.311	19753
898.431	19689
898.552	19700
898.672	19860
898.792	19807
898.913	19822
899.033	19651
899.153	19605
899.273	19521
899.393	19453
899.513	19700
899.633	19518
899.753	19514
899.873	19559
899.993	19556
900.113	19540
900.232	19457
900.352	19289
900.472	19381
900.591	19232
900.711	19392
900.83	19156
900.95	19251
901.069	19457
901.189	19168
901.308	18989
901.427	18947
901.546	18837
901.665	18913
901.784	18859
901.904	18779
902.023	18776
902.141	18452
902.26	18403
902.379	18540
902.498	18467
902.617	18380
902.735	18429
902.854	18353
902.973	18353
903.091	18140
903.21	18098
903.328	17992
903.446	18038
903.565	17866
903.683	17885
903.801	17840
903.919	17863
904.038	17878
904.156	17649
904.274	17649
904.392	17627
904.51	17741
904.627	17691
904.745	17714
904.863	17653
904.981	17528
905.098	17254
905.216	17425
905.334	17356
905.451	17345
905.569	17246
905.686	17288
905.803	17258
905.921	17235
906.038	17132
906.155	17102
906.272	16957
906.389	16942
906.506	16771
906.623	16835
906.74	16877
906.857	16774
906.974	16733
907.091	16873
907.208	17090
907.324	16831
907.441	16740
907.557	16687
907.674	16626
907.79	16493
907.907	16588
908.023	16550
908.139	16550
908.256	16516
908.372	16542
908.488	16432
908.604	16295
908.72	16352
908.836	16272
908.952	16272
909.068	16322
909.184	16363
909.3	16272
909.415	16405
909.531	16295
909.647	16051
909.762	16051
909.878	15869
909.993	15915
910.108	16002
910.224	15911
910.339	16025
910.454	15953
910.57	15831
910.685	15705
910.8	16017
910.915	16021
911.03	15812
911.145	15705
911.259	15603
911.374	15675
911.489	15542
911.604	15496
911.718	15302
911.833	15367
911.947	15367
912.062	15287
912.176	15428
912.291	15454
912.405	15401
912.519	15648
912.633	15633
912.748	15393
912.862	15374
912.976	15226
913.09	14941
913.204	15211
913.318	15207
913.431	15256
913.545	15245
913.659	15264
913.772	15157
913.886	15089
914	15047
914.113	15123
914.226	15112
914.34	14952
914.453	14906
914.566	15005
914.68	14944
914.793	14823
914.906	14750
915.019	14629
915.132	14575
915.245	14598
915.358	14686
915.47	14579
915.583	14492
915.696	14655
915.809	14689
915.921	14754
916.034	14587
916.146	14545
916.259	14514
916.371	14606
916.483	14537
916.595	14431
916.708	14503
916.82	14530
916.932	14412
917.044	14431
917.156	14381
917.268	14336
917.38	14275
917.491	14278
917.603	14298
917.715	14301
917.826	14351
917.938	14244
918.049	14195
918.161	14259
918.272	14393
918.384	14400
918.495	14218
918.606	14035
918.717	14024
918.828	14016
918.939	14142
919.05	14027
919.161	14084
919.272	13814
919.383	13822
919.494	14046
919.604	14343
919.715	14126
919.826	13951
919.936	13982
920.047	14119
920.157	14065
920.267	14199
920.378	14092
920.488	13993
920.598	14187
920.708	14381
920.818	14123
920.928	14195
921.038	14366
921.148	14214
921.258	14069
921.368	13849
921.477	13731
921.587	13788
921.697	13731
921.806	13753
921.916	13715
922.025	13480
922.134	13407
922.244	13384
922.353	13453
922.462	13308
922.571	13297
922.68	13137
922.789	12962
922.898	13088
923.007	13080
923.116	13137
923.224	13072
923.333	12993
923.442	12932
923.55	12966
923.659	12989
923.767	13019
923.876	12928
923.984	12977
924.092	12859
924.201	12894
924.309	12871
924.417	12871
924.525	12791
924.633	12852
924.741	13556
924.849	12593
924.956	12665
925.064	12555
925.172	12429
925.279	12635
925.387	12475
925.494	12517
925.602	12665
925.709	12582
925.816	12456
925.924	12528
926.031	12521
926.138	12403
926.245	12555
926.352	12388
926.459	12475
926.566	12585
926.673	12433
926.779	12232
926.886	12209
926.993	12129
927.099	12102
927.206	12068
927.312	12133
927.419	12144
927.525	12030
927.631	12155
927.737	12041
927.843	12003
927.95	11874
928.056	11901
928.162	11996
928.267	11969
928.373	12486
928.479	12045
928.585	11703
928.69	11866
928.796	11935
928.901	11863
929.007	11741
929.112	11775
929.218	11786
929.323	11657
929.428	11668
929.533	11798
929.638	11657
929.743	11649
929.848	11695
929.953	11558
930.058	11562
930.163	11360
930.267	11429
930.372	11478
930.477	11341
930.581	11615
930.685	11421
930.79	11220
930.894	11303
930.998	11254
931.103	11368
931.207	11006
931.311	10896
931.415	10839
931.519	10618
931.623	10660
