Data from test_V78500241_537.txt Node
Date: Fri Mar 25 15:13:35 CST 2022
User: usil
Spectrometer: V785-0024
Trigger mode: 0
Integration Time (sec): 4.000000E-1
Scans to average: 1
Nonlinearity correction enabled: false
Boxcar width: 0
Storing dark spectrum: false
XAxis mode: Wavelengths
Number of Pixels in Spectrum: 1024
>>>>>Begin Spectral Data<<<<<
801.071	27245
801.214	27176
801.356	27055
801.499	26914
801.641	26921
801.783	26918
801.926	26899
802.068	26682
802.211	26792
802.353	26659
802.496	26408
802.638	26507
802.78	26484
802.923	26393
803.065	26560
803.208	26358
803.35	26453
803.492	26571
803.635	26644
803.777	26484
803.919	26629
804.061	26781
804.204	26598
804.346	26480
804.488	26545
804.63	26613
804.773	26495
804.915	26503
805.057	26640
805.199	26522
805.341	26769
805.483	26727
805.626	26697
805.768	26492
805.91	26739
806.052	26541
806.194	26640
806.336	26804
806.478	26792
806.62	26701
806.762	26743
806.904	27024
807.046	27313
807.188	27180
807.33	27127
807.472	27249
807.614	27100
807.756	27154
807.898	27055
808.04	26861
808.182	26861
808.324	26982
808.465	27020
808.607	27165
808.749	27123
808.891	27401
809.033	27583
809.174	27416
809.316	27283
809.458	27389
809.6	27287
809.741	27393
809.883	27351
810.025	27622
810.166	27603
810.308	27755
810.45	27713
810.591	27500
810.733	27431
810.875	27275
811.016	27310
811.158	27211
811.299	27462
811.441	27500
811.582	27393
811.724	27332
811.865	27272
812.007	27291
812.148	27283
812.29	27283
812.431	27450
812.573	27587
812.714	27808
812.855	27800
812.997	27899
813.138	28166
813.279	28021
813.421	27816
813.562	27850
813.703	27583
813.845	27580
813.986	27211
814.127	27180
814.268	26963
814.41	27005
814.551	27051
814.692	27020
814.833	26823
814.974	27005
815.115	27024
815.256	26944
815.397	26823
815.539	26944
815.68	26746
815.821	26712
815.962	26682
816.103	26781
816.244	26598
816.385	26609
816.526	26606
816.666	26393
816.807	26362
816.948	26362
817.089	26370
817.23	26282
817.371	26343
817.512	26294
817.653	26229
817.793	26199
817.934	26229
818.075	26240
818.216	26145
818.356	26134
818.497	26073
818.638	26145
818.778	25986
818.919	25947
819.06	26138
819.2	26092
819.341	26202
819.481	26275
819.622	26423
819.762	26602
819.903	26522
820.043	26537
820.184	26476
820.324	26336
820.465	26434
820.605	26290
820.746	26320
820.886	26210
821.026	26187
821.167	26377
821.307	26526
821.447	26317
821.588	26229
821.728	26039
821.868	25906
822.008	25761
822.149	25715
822.289	25677
822.429	25472
822.569	25407
822.709	25487
822.849	25171
822.99	25236
823.13	25152
823.27	25213
823.41	25129
823.55	24977
823.69	24977
823.83	25061
823.97	25023
824.11	24962
824.25	24787
824.389	24901
824.529	25019
824.669	25008
824.809	24928
824.949	24852
825.089	24958
825.228	24924
825.368	24681
825.508	24745
825.648	24833
825.787	24810
825.927	24802
826.067	24734
826.206	24627
826.346	24802
826.485	24802
826.625	24730
826.765	24821
826.904	24700
827.044	24597
827.183	24555
827.323	24445
827.462	24627
827.601	24418
827.741	24380
827.88	24429
828.02	24292
828.159	24327
828.298	24395
828.437	24631
828.577	24471
828.716	24707
828.855	24315
828.994	24258
829.134	24136
829.273	24292
829.412	24232
829.551	24095
829.69	24140
829.829	24296
829.968	24228
830.107	24319
830.246	24159
830.385	24106
830.524	24060
830.663	23980
830.802	23935
830.941	23863
831.08	23764
831.219	23783
831.357	23866
831.496	24079
831.635	23775
831.774	23802
831.913	23623
832.051	23585
832.19	23455
832.329	23653
832.467	23528
832.606	23402
832.744	23315
832.883	23448
833.022	23395
833.16	23535
833.299	23539
833.437	23535
833.576	23703
833.714	23539
833.852	23627
833.991	23649
834.129	23604
834.267	23630
834.406	23379
834.544	23535
834.682	23566
834.821	23558
834.959	23531
835.097	23402
835.235	23611
835.373	23497
835.511	23490
835.65	23535
835.788	23391
835.926	23223
836.064	23303
836.202	23318
836.34	23303
836.478	23566
836.615	23349
836.753	23467
836.891	23531
837.029	23429
837.167	23376
837.305	23246
837.443	23349
837.58	23353
837.718	23292
837.856	23200
837.993	23204
838.131	23254
838.269	23147
838.406	23094
838.544	23014
838.681	22881
838.819	22793
838.956	22778
839.094	22778
839.231	22721
839.369	22740
839.506	23105
839.643	22930
839.781	22626
839.918	22679
840.055	22573
840.193	22618
840.33	22679
840.467	22611
840.604	22611
840.742	22915
840.879	22523
841.016	22588
841.153	22504
841.29	22672
841.427	22660
841.564	22645
841.701	22660
841.838	22584
841.975	22516
842.112	22656
842.249	22440
842.385	22348
842.522	22687
842.659	22455
842.796	22398
842.933	22462
843.069	22421
843.206	22291
843.343	22596
843.479	22443
843.616	22409
843.752	22116
843.889	22185
844.025	22253
844.162	22162
844.298	22344
844.435	22192
844.571	22200
844.708	22284
844.844	22276
844.98	22268
845.117	22253
845.253	22226
845.389	22032
845.525	22044
845.661	22120
845.798	21918
845.934	21850
846.07	21812
846.206	22021
846.342	22074
846.478	21964
846.614	21808
846.75	21515
846.886	21557
847.022	21762
847.158	21724
847.294	21679
847.429	21667
847.565	21652
847.701	21808
847.837	21363
847.972	21275
848.108	21382
848.244	21424
848.379	21294
848.515	21283
848.65	21226
848.786	21176
848.921	21192
849.057	21443
849.192	21405
849.328	21256
849.463	21249
849.598	21260
849.734	21119
849.869	21116
850.004	20914
850.14	21043
850.275	21024
850.41	20929
850.545	20902
850.68	20941
850.815	21055
850.95	20918
851.085	21119
851.22	21150
851.355	20986
851.49	21009
851.625	20982
851.76	20971
851.895	20937
852.03	20864
852.165	20895
852.299	20998
852.434	21017
852.569	21142
852.703	21024
852.838	21039
852.973	21055
853.107	21154
853.242	21001
853.376	20906
853.511	20785
853.645	20895
853.78	20921
853.914	20868
854.048	20895
854.183	20807
854.317	20872
854.451	21039
854.585	20750
854.72	20777
854.854	20857
854.988	20762
855.122	20689
855.256	20735
855.39	20735
855.524	20960
855.658	20849
855.792	20765
855.926	20868
856.06	20921
856.194	20815
856.327	20754
856.461	20883
856.595	20765
856.729	20746
856.862	20971
856.996	20842
857.13	20971
857.263	20979
857.397	21047
857.53	20762
857.664	20872
857.797	20796
857.931	20921
858.064	20887
858.197	20872
858.331	20845
858.464	20724
858.597	20781
858.731	20758
858.864	20731
858.997	20762
859.13	20765
859.263	20773
859.396	20918
859.529	20804
859.662	20659
859.795	20834
859.928	20849
860.061	20895
860.194	20982
860.327	20861
860.46	20689
860.592	20998
860.725	20994
860.858	21039
860.99	20880
861.123	20693
861.256	20746
861.388	20826
861.521	21553
861.653	20705
861.786	20678
861.918	20636
862.05	20587
862.183	20720
862.315	20838
862.447	20743
862.58	20773
862.712	20469
862.844	20488
862.976	20564
863.108	20697
863.24	20800
863.372	20609
863.504	20560
863.636	20457
863.768	20571
863.9	20438
864.032	20355
864.164	20374
864.296	20495
864.428	20667
864.559	20571
864.691	20613
864.823	20454
864.954	20469
865.086	20507
865.217	20419
865.349	20495
865.48	20511
865.612	20362
865.743	20575
865.875	20454
866.006	20351
866.137	20461
866.269	20400
866.4	20499
866.531	20396
866.662	20324
866.793	20298
866.924	20377
867.055	20434
867.186	20381
867.317	20271
867.448	20271
867.579	20317
867.71	20309
867.841	20332
867.972	20389
868.103	20263
868.233	20415
868.364	20294
868.495	20438
868.625	20644
868.756	20746
868.886	20648
869.017	20716
869.147	20636
869.278	20640
869.408	20648
869.539	20617
869.669	20724
869.799	20705
869.929	20651
870.06	20781
870.19	20960
870.32	20952
870.45	20963
870.58	21009
870.71	21245
870.84	21173
870.97	20994
871.1	20994
871.23	21218
871.36	21188
871.489	21074
871.619	21142
871.749	21161
871.879	21230
872.008	21226
872.138	21241
872.267	21233
872.397	21062
872.526	21051
872.656	20982
872.785	20975
872.915	21401
873.044	21252
873.173	21180
873.303	21302
873.432	21256
873.561	21363
873.69	21199
873.819	21264
873.948	21291
874.077	21184
874.206	21233
874.335	21169
874.464	21245
874.593	21591
874.722	21443
874.851	21606
874.979	21542
875.108	21504
875.237	21458
875.365	21412
875.494	21310
875.623	21557
875.751	21424
875.88	21561
876.008	21549
876.136	21595
876.265	21838
876.393	22044
876.521	21892
876.65	21960
876.778	22006
876.906	21781
877.034	21816
877.162	21888
877.29	21778
877.418	21842
877.546	21895
877.674	21800
877.802	21755
877.93	21865
878.058	21766
878.185	21720
878.313	21671
878.441	21846
878.568	21633
878.696	21781
878.824	21861
878.951	21922
879.079	21895
879.206	22112
879.333	22051
879.461	21911
879.588	21880
879.715	21892
879.842	22074
879.97	21857
880.097	21686
880.224	21709
880.351	21663
880.478	21614
880.605	21633
880.732	21599
880.859	21873
880.986	21572
881.112	21660
881.239	21477
881.366	21492
881.493	21306
881.619	21173
881.746	21233
881.872	21146
881.999	21207
882.125	21233
882.252	21252
882.378	21298
882.505	21306
882.631	21131
882.757	20899
882.883	20872
883.01	20963
883.136	20948
883.262	20735
883.388	20796
883.514	20979
883.64	20925
883.766	20853
883.892	20686
884.018	20693
884.143	20880
884.269	21024
884.395	20583
884.52	20469
884.646	20579
884.772	20594
884.897	20526
885.023	20484
885.148	20701
885.274	20727
885.399	20640
885.524	20625
885.65	20583
885.775	20495
885.9	20454
886.025	20587
886.15	20617
886.275	20609
886.4	20434
886.525	20473
886.65	20476
886.775	20564
886.9	20594
887.025	20796
887.149	20374
887.274	20358
887.399	20282
887.523	20408
887.648	20351
887.773	20237
887.897	20446
888.021	20366
888.146	20244
888.27	20328
888.395	20438
888.519	20244
888.643	20400
888.767	20377
888.891	20362
889.015	20157
889.139	20206
889.263	20103
889.387	20339
889.511	20339
889.635	20355
889.759	20115
889.883	20100
890.006	20138
890.13	20107
890.254	20054
890.377	20027
890.501	19921
890.624	19875
890.748	20016
890.871	19833
890.995	19818
891.118	19639
891.241	19700
891.364	19685
891.488	19750
891.611	19632
891.734	19696
891.857	19898
891.98	19807
892.103	19772
892.226	19799
892.349	19655
892.471	19552
892.594	19643
892.717	19700
892.839	19563
892.962	19712
893.085	19791
893.207	19639
893.33	19670
893.452	19548
893.575	19677
893.697	19635
893.819	19807
893.941	19856
894.064	19727
894.186	19620
894.308	19590
894.43	19677
894.552	19826
894.674	19784
894.796	19487
894.918	19563
895.04	19594
895.161	19746
895.283	19704
895.405	19552
895.526	19590
895.648	19643
895.769	19651
895.891	19700
896.012	19788
896.134	19689
896.255	19674
896.376	19632
896.498	19723
896.619	19689
896.74	19578
896.861	19655
896.982	19974
897.103	20134
897.224	19974
897.345	19852
897.466	19791
897.587	19871
897.708	19894
897.828	19750
897.949	19757
898.07	19700
898.19	19841
898.311	19993
898.431	19776
898.552	19776
898.672	19879
898.792	19959
898.913	19875
899.033	19780
899.153	19639
899.273	19613
899.393	19674
899.513	19693
899.633	19696
899.753	19651
899.873	19510
899.993	19681
900.113	19480
900.232	19582
900.352	19491
900.472	19445
900.591	19396
900.711	19457
900.83	19369
900.95	19381
901.069	19556
901.189	19263
901.308	19152
901.427	18985
901.546	18901
901.665	18973
901.784	19038
901.904	18867
902.023	18825
902.141	18612
902.26	18578
902.379	18525
902.498	18452
902.617	18403
902.735	18513
902.854	18384
902.973	18334
903.091	18254
903.21	18144
903.328	18197
903.446	18110
903.565	18015
903.683	17973
903.801	17935
903.919	17950
904.038	17999
904.156	17752
904.274	17756
904.392	17710
904.51	17695
904.627	17824
904.745	17783
904.863	17840
904.981	17661
905.098	17402
905.216	17482
905.334	17562
905.451	17436
905.569	17395
905.686	17376
905.803	17395
905.921	17216
906.038	17231
906.155	17299
906.272	17200
906.389	17181
906.506	17022
906.623	17102
906.74	17014
906.857	16934
906.974	16900
907.091	17048
907.208	16995
907.324	17067
907.441	16915
907.557	16733
907.674	16687
907.79	16641
907.907	16702
908.023	16611
908.139	16816
908.256	16611
908.372	16645
908.488	16565
908.604	16519
908.72	16375
908.836	16424
908.952	16402
909.068	16481
909.184	16516
909.3	16432
909.415	16455
909.531	16344
909.647	16352
909.762	16139
909.878	16112
909.993	16093
910.108	16147
910.224	16150
910.339	16032
910.454	16059
910.57	15964
910.685	15876
910.8	16196
910.915	16112
911.03	15880
911.145	15804
911.259	15755
911.374	15804
911.489	15637
911.604	15679
911.718	15408
911.833	15553
911.947	15397
912.062	15230
912.176	15450
912.291	15466
912.405	15485
912.519	15660
912.633	15682
912.748	15450
912.862	15397
912.976	15340
913.09	15173
913.204	15272
913.318	15294
913.431	15317
913.545	15291
913.659	15367
913.772	15241
913.886	15249
914	15017
914.113	15211
914.226	15169
914.34	15150
914.453	15017
914.566	15146
914.68	14982
914.793	14986
914.906	14785
915.019	14788
915.132	14682
915.245	14678
915.358	14769
915.47	14762
915.583	14724
915.696	14804
915.809	14864
915.921	14834
916.034	14765
916.146	14644
916.259	14617
916.371	14686
916.483	14640
916.595	14560
916.708	14651
916.82	14537
916.932	14556
917.044	14564
917.156	14419
917.268	14457
917.38	14278
917.491	14358
917.603	14488
917.715	14530
917.826	14537
917.938	14309
918.049	14229
918.161	14294
918.272	14446
918.384	14484
918.495	14427
918.606	14145
918.717	14134
918.828	14153
918.939	14237
919.05	14073
919.161	14134
919.272	13955
919.383	13894
919.494	14187
919.604	14374
919.715	14244
919.826	14096
919.936	14062
920.047	14138
920.157	14107
920.267	14286
920.378	14142
920.488	14039
920.598	14294
920.708	14438
920.818	14221
920.928	14187
921.038	14461
921.148	14294
921.258	14088
921.368	13944
921.477	13936
921.587	13894
921.697	13757
921.806	13913
921.916	13712
922.025	13559
922.134	13605
922.244	13540
922.353	13556
922.462	13540
922.571	13358
922.68	13259
922.789	13255
922.898	13289
923.007	13107
923.116	13194
923.224	13187
923.333	13194
923.442	12958
923.55	13031
923.659	12954
923.767	13103
923.876	12962
923.984	13065
924.092	12924
924.201	13034
924.309	12928
924.417	12962
924.525	12905
924.633	12890
924.741	13632
924.849	12711
924.956	12856
925.064	12700
925.172	12528
925.279	12616
925.387	12601
925.494	12639
925.602	12715
925.709	12646
925.816	12582
925.924	12631
926.031	12673
926.138	12563
926.245	12635
926.352	12410
926.459	12570
926.566	12650
926.673	12460
926.779	12365
926.886	12399
926.993	12273
927.099	12190
927.206	12235
927.312	12129
927.419	12251
927.525	12216
927.631	12205
927.737	12114
927.843	12049
927.95	11893
928.056	12015
928.162	12022
928.267	12110
928.373	12528
928.479	12106
928.585	11855
928.69	11882
928.796	12022
928.901	11961
929.007	11718
929.112	11927
929.218	11863
929.323	11802
929.428	11775
929.533	11866
929.638	11684
929.743	11665
929.848	11771
929.953	11680
930.058	11638
930.163	11406
930.267	11493
930.372	11570
930.477	11444
930.581	11566
930.685	11433
930.79	11417
930.894	11341
930.998	11337
931.103	11467
931.207	11147
931.311	11041
931.415	10904
931.519	10771
931.623	10755
