Data from test_V78500241_3128.txt Node
Date: Fri Mar 25 15:31:38 CST 2022
User: usil
Spectrometer: V785-0024
Trigger mode: 0
Integration Time (sec): 4.000000E-1
Scans to average: 1
Nonlinearity correction enabled: false
Boxcar width: 0
Storing dark spectrum: false
XAxis mode: Wavelengths
Number of Pixels in Spectrum: 1024
>>>>>Begin Spectral Data<<<<<
801.071	27085
801.214	26956
801.356	26830
801.499	26720
801.641	26541
801.783	26579
801.926	26758
802.068	26488
802.211	26552
802.353	26450
802.496	26389
802.638	26240
802.78	26172
802.923	26195
803.065	26035
803.208	26035
803.35	26237
803.492	26514
803.635	26442
803.777	26317
803.919	26522
804.061	26701
804.204	26431
804.346	26317
804.488	26332
804.63	26339
804.773	26381
804.915	26389
805.057	26450
805.199	26431
805.341	26473
805.483	26484
805.626	26511
805.768	26290
805.91	26522
806.052	26457
806.194	26484
806.336	26560
806.478	26385
806.62	26484
806.762	26655
806.904	26686
807.046	26986
807.188	26838
807.33	26785
807.472	26975
807.614	26902
807.756	26785
807.898	26731
808.04	26480
808.182	26815
808.324	26636
808.465	26777
808.607	26781
808.749	26918
808.891	27256
809.033	27291
809.174	27116
809.316	27066
809.458	27173
809.6	27039
809.741	27154
809.883	27188
810.025	27264
810.166	27450
810.308	27306
810.45	27329
810.591	27241
810.733	27188
810.875	27055
811.016	27074
811.158	27013
811.299	27039
811.441	27195
811.582	27104
811.724	26925
811.865	26998
812.007	27081
812.148	27055
812.29	27085
812.431	27226
812.573	27439
812.714	27515
812.855	27515
812.997	27580
813.138	27770
813.279	27736
813.421	27557
813.562	27507
813.703	27424
813.845	27192
813.986	26910
814.127	26842
814.268	26743
814.41	26705
814.551	26727
814.692	26811
814.833	26636
814.974	26670
815.115	26727
815.256	26556
815.397	26571
815.539	26579
815.68	26453
815.821	26465
815.962	26503
816.103	26541
816.244	26301
816.385	26005
816.526	26252
816.666	26016
816.807	25932
816.948	26062
817.089	26020
817.23	25986
817.371	25909
817.512	25928
817.653	25807
817.793	25909
817.934	25928
818.075	25986
818.216	26012
818.356	25871
818.497	25826
818.638	25662
818.778	25594
818.919	25780
819.06	25757
819.2	25799
819.341	25887
819.481	25898
819.622	26107
819.762	26358
819.903	26210
820.043	26073
820.184	26031
820.324	26065
820.465	26058
820.605	26005
820.746	25974
820.886	25811
821.026	26073
821.167	26008
821.307	26001
821.447	26062
821.588	25833
821.728	25556
821.868	25616
822.008	25369
822.149	25278
822.289	25403
822.429	25194
822.569	25110
822.709	25122
822.849	24958
822.99	24798
823.13	24791
823.27	24795
823.41	24661
823.55	24730
823.69	24741
823.83	24684
823.97	24711
824.11	24528
824.25	24627
824.389	24532
824.529	24658
824.669	24517
824.809	24585
824.949	24684
825.089	24631
825.228	24578
825.368	24414
825.508	24273
825.648	24228
825.787	24456
825.927	24540
826.067	24353
826.206	24703
826.346	24464
826.485	24509
826.625	24479
826.765	24536
826.904	24399
827.044	24270
827.183	24213
827.323	24117
827.462	24155
827.601	24239
827.741	24095
827.88	24216
828.02	24022
828.159	23927
828.298	24262
828.437	24087
828.577	24079
828.716	24182
828.855	23980
828.994	23840
829.134	23794
829.273	23760
829.412	23775
829.551	23745
829.69	23703
829.829	23885
829.968	23786
830.107	23843
830.246	23878
830.385	23687
830.524	23608
830.663	23672
830.802	23615
830.941	23391
831.08	23330
831.219	23638
831.357	23376
831.496	23615
831.635	23417
831.774	23315
831.913	23315
832.051	23326
832.19	23220
832.329	23246
832.467	23064
832.606	23102
832.744	23071
832.883	23155
833.022	23018
833.16	23075
833.299	23193
833.437	23098
833.576	23181
833.714	23231
833.852	23143
833.991	23136
834.129	23330
834.267	23311
834.406	23223
834.544	23178
834.682	23079
834.821	23159
834.959	23444
835.097	23105
835.235	23231
835.373	23128
835.511	23166
835.65	22995
835.788	22965
835.926	22976
836.064	22881
836.202	22904
836.34	22991
836.478	23094
836.615	22991
836.753	22938
836.891	23121
837.029	23147
837.167	22968
837.305	22934
837.443	22828
837.58	22892
837.718	23075
837.856	22892
837.993	22881
838.131	22778
838.269	22782
838.406	22767
838.544	22698
838.681	22527
838.819	22485
838.956	22405
839.094	22405
839.231	22478
839.369	22474
839.506	22767
839.643	22615
839.781	22413
839.918	22333
840.055	22394
840.193	22386
840.33	22276
840.467	22249
840.604	22379
840.742	22527
840.879	22139
841.016	22120
841.153	22158
841.29	22375
841.427	22211
841.564	22318
841.701	22268
841.838	22192
841.975	22196
842.112	22226
842.249	22101
842.385	21983
842.522	22230
842.659	22162
842.796	22044
842.933	22055
843.069	22040
843.206	22070
843.343	22215
843.479	22128
843.616	22029
843.752	21717
843.889	21869
844.025	22017
844.162	21682
844.298	21884
844.435	21774
844.571	21755
844.708	21854
844.844	21979
844.98	21991
845.117	21972
845.253	21770
845.389	21652
845.525	21686
845.661	21785
845.798	21591
845.934	21755
846.07	21545
846.206	21671
846.342	21564
846.478	21629
846.614	21340
846.75	21260
846.886	21287
847.022	21382
847.158	21249
847.294	21367
847.429	21272
847.565	21256
847.701	21542
847.837	21047
847.972	20971
848.108	21161
848.244	21142
848.379	21001
848.515	20921
848.65	20975
848.786	20826
848.921	20948
849.057	20910
849.192	20960
849.328	20895
849.463	21036
849.598	20914
849.734	20891
849.869	20921
850.004	20594
850.14	20689
850.275	20571
850.41	20533
850.545	20640
850.68	20659
850.815	20602
850.95	20724
851.085	20883
851.22	20853
851.355	20705
851.49	20670
851.625	20621
851.76	20655
851.895	20465
852.03	20648
852.165	20708
852.299	20712
852.434	20682
852.569	20575
852.703	20655
852.838	20686
852.973	20682
853.107	20864
853.242	20556
853.376	20511
853.511	20381
853.645	20461
853.78	20678
853.914	20552
854.048	20419
854.183	20419
854.317	20427
854.451	20545
854.585	20408
854.72	20609
854.854	20598
854.988	20473
855.122	20495
855.256	20404
855.39	20480
855.524	20442
855.658	20568
855.792	20564
855.926	20499
856.06	20598
856.194	20492
856.327	20499
856.461	20499
856.595	20408
856.729	20374
856.862	20587
856.996	20492
857.13	20503
857.263	20522
857.397	20568
857.53	20552
857.664	20560
857.797	20522
857.931	20552
858.064	20488
858.197	20686
858.331	20400
858.464	20351
858.597	20389
858.731	20514
858.864	20499
858.997	20507
859.13	20469
859.263	20469
859.396	20606
859.529	20362
859.662	20454
859.795	20514
859.928	20423
860.061	20655
860.194	20811
860.327	20484
860.46	20484
860.592	20594
860.725	20617
860.858	20686
860.99	20495
861.123	20461
861.256	20366
861.388	20499
861.521	21100
861.653	20358
861.786	20259
861.918	20465
862.05	20377
862.183	20480
862.315	20385
862.447	20518
862.58	20476
862.712	20157
862.844	20130
862.976	20229
863.108	20195
863.24	20663
863.372	20126
863.504	20221
863.636	20180
863.768	20263
863.9	20282
864.032	20199
864.164	20111
864.296	20290
864.428	20221
864.559	20294
864.691	20278
864.823	20313
864.954	20210
865.086	20263
865.217	20157
865.349	20100
865.48	20035
865.612	20180
865.743	20286
865.875	20069
866.006	20092
866.137	20206
866.269	20008
866.4	20172
866.531	20024
866.662	19894
866.793	20161
866.924	20012
867.055	20119
867.186	20027
867.317	20035
867.448	19963
867.579	20183
867.71	20069
867.841	20005
867.972	20069
868.103	20077
868.233	20027
868.364	20210
868.495	20157
868.625	20324
868.756	20313
868.886	20271
869.017	20362
869.147	20381
869.278	20446
869.408	20248
869.539	20476
869.669	20298
869.799	20339
869.929	20389
870.06	20408
870.19	20632
870.32	20530
870.45	20590
870.58	20701
870.71	20815
870.84	20708
870.97	20697
871.1	20697
871.23	20781
871.36	20868
871.489	20823
871.619	20910
871.749	20960
871.879	20971
872.008	21070
872.138	20975
872.267	20944
872.397	20819
872.526	20785
872.656	20609
872.785	20670
872.915	20952
873.044	21005
873.173	20963
873.303	20861
873.432	21005
873.561	20933
873.69	21020
873.819	20963
873.948	21013
874.077	20948
874.206	20883
874.335	20845
874.464	21161
874.593	21116
874.722	21176
874.851	21146
874.979	21241
875.108	21199
875.237	21043
875.365	21100
875.494	21104
875.623	21355
875.751	21146
875.88	21199
876.008	21268
876.136	21389
876.265	21606
876.393	21682
876.521	21701
876.65	21595
876.778	21713
876.906	21519
877.034	21496
877.162	21648
877.29	21492
877.418	21534
877.546	21663
877.674	21447
877.802	21526
877.93	21568
878.058	21454
878.185	21488
878.313	21401
878.441	21637
878.568	21317
878.696	21523
878.824	21485
878.951	21625
879.079	21717
879.206	21800
879.333	21781
879.461	21576
879.588	21701
879.715	21675
879.842	21743
879.97	21614
880.097	21363
880.224	21344
880.351	21367
880.478	21367
880.605	21176
880.732	21408
880.859	21583
880.986	21355
881.112	21378
881.239	21195
881.366	21142
881.493	20868
881.619	20967
881.746	21043
881.872	21116
881.999	20899
882.125	20800
882.252	21009
882.378	20853
882.505	20994
882.631	20815
882.757	20617
882.883	20701
883.01	20697
883.136	20663
883.262	20609
883.388	20434
883.514	20590
883.64	20735
883.766	20621
883.892	20419
884.018	20473
884.143	20594
884.269	20724
884.395	20339
884.52	20374
884.646	20358
884.772	20313
884.897	20206
885.023	20252
885.148	20263
885.274	20396
885.399	20442
885.524	20286
885.65	20393
885.775	20309
885.9	20214
886.025	20492
886.15	20271
886.275	20221
886.4	20176
886.525	20221
886.65	20187
886.775	20172
886.9	20408
887.025	20522
887.149	20206
887.274	20027
887.399	20020
887.523	20176
887.648	20111
887.773	20092
887.897	20134
888.021	20157
888.146	19978
888.27	20233
888.395	20111
888.519	20069
888.643	20103
888.767	20103
888.891	19917
889.015	19856
889.139	19902
889.263	19913
889.387	19970
889.511	20122
889.635	19978
889.759	19852
889.883	19913
890.006	19837
890.13	19947
890.254	19780
890.377	19788
890.501	19685
890.624	19666
890.748	19708
890.871	19514
890.995	19510
891.118	19365
891.241	19571
891.364	19384
891.488	19639
891.611	19419
891.734	19563
891.857	19422
891.98	19457
892.103	19529
892.226	19434
892.349	19388
892.471	19335
892.594	19327
892.717	19377
892.839	19343
892.962	19506
893.085	19403
893.207	19480
893.33	19198
893.452	19343
893.575	19365
893.697	19358
893.819	19616
893.941	19647
894.064	19632
894.186	19324
894.308	19236
894.43	19544
894.552	19525
894.674	19487
894.796	19381
894.918	19346
895.04	19381
895.161	19491
895.283	19365
895.405	19289
895.526	19365
895.648	19362
895.769	19438
895.891	19411
896.012	19548
896.134	19487
896.255	19266
896.376	19209
896.498	19365
896.619	19422
896.74	19384
896.861	19457
896.982	19738
897.103	19883
897.224	19715
897.345	19609
897.466	19495
897.587	19601
897.708	19776
897.828	19734
897.949	19559
898.07	19502
898.19	19586
898.311	19704
898.431	19643
898.552	19693
898.672	19639
898.792	19731
898.913	19685
899.033	19575
899.153	19407
899.273	19415
899.393	19400
899.513	19396
899.633	19567
899.753	19518
899.873	19354
899.993	19556
900.113	19438
900.232	19377
900.352	19236
900.472	19228
900.591	19091
900.711	19202
900.83	19114
900.95	19244
901.069	19274
901.189	19069
901.308	18875
901.427	18700
901.546	18814
901.665	18760
901.784	18787
901.904	18604
902.023	18509
902.141	18388
902.26	18311
902.379	18399
902.498	18410
902.617	18251
902.735	18380
902.854	18270
902.973	18159
903.091	17996
903.21	17912
903.328	18038
903.446	17950
903.565	17779
903.683	17786
903.801	17707
903.919	17596
904.038	17832
904.156	17585
904.274	17619
904.392	17505
904.51	17368
904.627	17547
904.745	17524
904.863	17649
904.981	17261
905.098	17273
905.216	17235
905.334	17181
905.451	17098
905.569	17204
905.686	17166
905.803	17216
905.921	17022
906.038	17064
906.155	17033
906.272	16896
906.389	16904
906.506	16725
906.623	16752
906.74	16706
906.857	16691
906.974	16698
907.091	16790
907.208	16809
907.324	16774
907.441	16687
907.557	16493
907.674	16485
907.79	16417
907.907	16474
908.023	16546
908.139	16436
908.256	16379
908.372	16386
908.488	16325
908.604	16299
908.72	16276
908.836	16162
908.952	16223
909.068	16306
909.184	16276
909.3	16246
909.415	16211
909.531	16192
909.647	15975
909.762	15934
909.878	15884
909.993	15983
910.108	15827
910.224	15983
910.339	15953
910.454	15918
910.57	15759
910.685	15682
910.8	15987
910.915	15873
911.03	15705
911.145	15591
911.259	15561
911.374	15564
911.489	15473
911.604	15447
911.718	15321
911.833	15344
911.947	15306
912.062	15241
912.176	15511
912.291	15367
912.405	15321
912.519	15515
912.633	15538
912.748	15329
912.862	15389
912.976	15123
913.09	15119
913.204	15188
913.318	15131
913.431	15157
913.545	15313
913.659	15329
913.772	15077
913.886	14986
914	14838
914.113	14979
914.226	15093
914.34	14948
914.453	14872
914.566	14963
914.68	14933
914.793	14727
914.906	14712
915.019	14610
915.132	14518
915.245	14560
915.358	14636
915.47	14587
915.583	14587
915.696	14499
915.809	14678
915.921	14701
916.034	14454
916.146	14450
916.259	14355
916.371	14613
916.483	14507
916.595	14415
916.708	14377
916.82	14454
916.932	14393
917.044	14366
917.156	14415
917.268	14183
917.38	14324
917.491	14149
917.603	14263
917.715	14298
917.826	14351
917.938	14210
918.049	14168
918.161	14214
918.272	14442
918.384	14290
918.495	14172
918.606	14043
918.717	14016
918.828	14065
918.939	14054
919.05	13959
919.161	13951
919.272	13849
919.383	13951
919.494	14107
919.604	14248
919.715	14069
919.826	13925
919.936	13982
920.047	14084
920.157	13913
920.267	14149
920.378	14043
920.488	13944
920.598	14138
920.708	14366
920.818	14035
920.928	14130
921.038	14351
921.148	14237
921.258	14005
921.368	13932
921.477	13727
921.587	13799
921.697	13559
921.806	13795
921.916	13643
922.025	13422
922.134	13502
922.244	13438
922.353	13495
922.462	13346
922.571	13190
922.68	13031
922.789	13103
922.898	13023
923.007	13046
923.116	13023
923.224	13004
923.333	13061
923.442	12913
923.55	12837
923.659	12981
923.767	12985
923.876	12814
923.984	12913
924.092	12730
924.201	12878
924.309	12802
924.417	12798
924.525	12738
924.633	12707
924.741	13700
924.849	12593
924.956	12662
925.064	12506
925.172	12479
925.279	12494
925.387	12494
925.494	12422
925.602	12650
925.709	12582
925.816	12422
925.924	12502
926.031	12502
926.138	12547
926.245	12403
926.352	12308
926.459	12426
926.566	12547
926.673	12346
926.779	12361
926.886	12205
926.993	12102
927.099	12076
927.206	12022
927.312	11980
927.419	12060
927.525	12057
927.631	12114
927.737	12053
927.843	11942
927.95	11832
928.056	11863
928.162	11961
928.267	11920
928.373	12555
928.479	11961
928.585	11771
928.69	11737
928.796	11828
928.901	11786
929.007	11634
929.112	11794
929.218	11707
929.323	11589
929.428	11623
929.533	11775
929.638	11573
929.743	11611
929.848	11630
929.953	11509
930.058	11539
930.163	11311
930.267	11269
930.372	11509
930.477	11318
930.581	11490
930.685	11341
930.79	11174
930.894	11311
930.998	11204
931.103	11372
931.207	10965
931.311	10968
931.415	10843
931.519	10622
931.623	10588
