Data from test_V78500241_1033.txt Node
Date: Fri Mar 25 15:17:03 CST 2022
User: usil
Spectrometer: V785-0024
Trigger mode: 0
Integration Time (sec): 4.000000E-1
Scans to average: 1
Nonlinearity correction enabled: false
Boxcar width: 0
Storing dark spectrum: false
XAxis mode: Wavelengths
Number of Pixels in Spectrum: 1024
>>>>>Begin Spectral Data<<<<<
801.071	27907
801.214	27865
801.356	27736
801.499	27591
801.641	27519
801.783	27439
801.926	27603
802.068	27485
802.211	27431
802.353	27431
802.496	27096
802.638	27116
802.78	27195
802.923	27268
803.065	27127
803.208	27157
803.35	27188
803.492	27272
803.635	27260
803.777	27351
803.919	27283
804.061	27637
804.204	27306
804.346	27313
804.488	27203
804.63	27230
804.773	27264
804.915	27321
805.057	27496
805.199	27386
805.341	27355
805.483	27663
805.626	27473
805.768	27351
805.91	27416
806.052	27397
806.194	27447
806.336	27530
806.478	27329
806.62	27466
806.762	27641
806.904	27736
807.046	28013
807.188	28036
807.33	27934
807.472	28006
807.614	27880
807.756	27831
807.898	27835
808.04	27743
808.182	27732
808.324	27762
808.465	27789
808.607	28036
808.749	28051
808.891	28268
809.033	28272
809.174	28086
809.316	28078
809.458	27983
809.6	28059
809.741	28158
809.883	28147
810.025	28421
810.166	28352
810.308	28413
810.45	28306
810.591	28310
810.733	28265
810.875	28067
811.016	28044
811.158	28063
811.299	28139
811.441	28299
811.582	28226
811.724	28223
811.865	28226
812.007	28128
812.148	28097
812.29	28074
812.431	28257
812.573	28493
812.714	28550
812.855	28694
812.997	28782
813.138	28923
813.279	28763
813.421	28630
813.562	28702
813.703	28523
813.845	28295
813.986	28162
814.127	27903
814.268	27869
814.41	27785
814.551	27812
814.692	27937
814.833	27747
814.974	27762
815.115	27914
815.256	27717
815.397	27732
815.539	27663
815.68	27504
815.821	27549
815.962	27705
816.103	27633
816.244	27500
816.385	27526
816.526	27393
816.666	27325
816.807	27108
816.948	27203
817.089	27245
817.23	27138
817.371	27085
817.512	27211
817.653	27180
817.793	27135
817.934	27241
818.075	27058
818.216	27146
818.356	27089
818.497	26960
818.638	26849
818.778	27036
818.919	26762
819.06	26876
819.2	27009
819.341	27146
819.481	27146
819.622	27230
819.762	27462
819.903	27313
820.043	27306
820.184	27218
820.324	27260
820.465	27291
820.605	27233
820.746	27363
820.886	27100
821.026	27173
821.167	27218
821.307	27408
821.447	27077
821.588	27199
821.728	26902
821.868	26804
822.008	26632
822.149	26541
822.289	26393
822.429	26336
822.569	26324
822.709	26355
822.849	26126
822.99	26050
823.13	26122
823.27	25947
823.41	26005
823.55	25746
823.69	25928
823.83	25986
823.97	25833
824.11	25765
824.25	25681
824.389	25776
824.529	25875
824.669	25814
824.809	25909
824.949	25830
825.089	25837
825.228	25826
825.368	25552
825.508	25628
825.648	25597
825.787	25715
825.927	25674
826.067	25601
826.206	25658
826.346	25761
826.485	25655
826.625	25605
826.765	25601
826.904	25837
827.044	25441
827.183	25411
827.323	25293
827.462	25255
827.601	25392
827.741	25384
827.88	25324
828.02	25266
828.159	25457
828.298	25251
828.437	25358
828.577	25308
828.716	25487
828.855	25236
828.994	25209
829.134	25076
829.273	25042
829.412	25069
829.551	25034
829.69	24985
829.829	25050
829.968	25152
830.107	25198
830.246	25099
830.385	24913
830.524	25000
830.663	24875
830.802	24935
830.941	24703
831.08	24700
831.219	24833
831.357	24749
831.496	24897
831.635	24597
831.774	24589
831.913	24627
832.051	24517
832.19	24544
832.329	24486
832.467	24418
832.606	24399
832.744	24296
832.883	24441
833.022	24311
833.16	24311
833.299	24483
833.437	24323
833.576	24505
833.714	24448
833.852	24509
833.991	24475
834.129	24574
834.267	24448
834.406	24505
834.544	24627
834.682	24372
834.821	24361
834.959	24578
835.097	24376
835.235	24475
835.373	24395
835.511	24445
835.65	24281
835.788	24266
835.926	24163
836.064	24110
836.202	23999
836.34	24410
836.478	24350
836.615	24334
836.753	24159
836.891	24361
837.029	24258
837.167	24243
837.305	24197
837.443	24114
837.58	23920
837.718	24163
837.856	24194
837.993	24003
838.131	24251
838.269	23942
838.406	23999
838.544	23977
838.681	23733
838.819	23786
838.956	23570
839.094	23684
839.231	23680
839.369	23809
839.506	23893
839.643	23824
839.781	23520
839.918	23547
840.055	23687
840.193	23566
840.33	23455
840.467	23531
840.604	23600
840.742	23680
840.879	23410
841.016	23410
841.153	23288
841.29	23596
841.427	23440
841.564	23653
841.701	23566
841.838	23558
841.975	23246
842.112	23372
842.249	23315
842.385	23204
842.522	23448
842.659	23296
842.796	23246
842.933	23261
843.069	23246
843.206	23094
843.343	23379
843.479	23193
843.616	23151
843.752	23025
843.889	23041
844.025	23083
844.162	23083
844.298	23079
844.435	23102
844.571	23048
844.708	23022
844.844	23197
844.98	23159
845.117	23094
845.253	22862
845.389	22793
845.525	22900
845.661	22934
845.798	22736
845.934	22862
846.07	22691
846.206	22774
846.342	22790
846.478	22824
846.614	22603
846.75	22451
846.886	22428
847.022	22531
847.158	22607
847.294	22493
847.429	22485
847.565	22466
847.701	22679
847.837	22249
847.972	22226
848.108	22352
848.244	22303
848.379	22112
848.515	22017
848.65	22090
848.786	22120
848.921	22128
849.057	22185
849.192	22169
849.328	22135
849.463	22090
849.598	22051
849.734	22063
849.869	22017
850.004	21926
850.14	21907
850.275	21911
850.41	21823
850.545	21774
850.68	21842
850.815	21937
850.95	21835
851.085	22040
851.22	21975
851.355	21823
851.49	21876
851.625	21823
851.76	21808
851.895	21732
852.03	21770
852.165	21850
852.299	21842
852.434	21983
852.569	21854
852.703	21983
852.838	21888
852.973	21918
853.107	21945
853.242	21800
853.376	21705
853.511	21538
853.645	21614
853.78	21789
853.914	21652
854.048	21557
854.183	21553
854.317	21724
854.451	21778
854.585	21743
854.72	21591
854.854	21812
854.988	21591
855.122	21652
855.256	21591
855.39	21580
855.524	21694
855.658	21747
855.792	21637
855.926	21690
856.06	21701
856.194	21785
856.327	21751
856.461	21572
856.595	21667
856.729	21633
856.862	21781
856.996	21686
857.13	21751
857.263	21793
857.397	21778
857.53	21618
857.664	21793
857.797	21720
857.931	21751
858.064	21743
858.197	21759
858.331	21603
858.464	21671
858.597	21728
858.731	21679
858.864	21587
858.997	21515
859.13	21682
859.263	21641
859.396	21713
859.529	21542
859.662	21557
859.795	21572
859.928	21660
860.061	21755
860.194	21926
860.327	21682
860.46	21629
860.592	21739
860.725	21759
860.858	21739
860.99	21682
861.123	21530
861.256	21663
861.388	21755
861.521	22299
861.653	21473
861.786	21572
861.918	21523
862.05	21454
862.183	21606
862.315	21545
862.447	21603
862.58	21618
862.712	21382
862.844	21302
862.976	21401
863.108	21386
863.24	21797
863.372	21355
863.504	21416
863.636	21336
863.768	21454
863.9	21447
864.032	21192
864.164	21260
864.296	21428
864.428	21473
864.559	21420
864.691	21534
864.823	21420
864.954	21481
865.086	21325
865.217	21256
865.349	21287
865.48	21135
865.612	21195
865.743	21393
865.875	21294
866.006	21192
866.137	21237
866.269	21176
866.4	21237
866.531	21199
866.662	21093
866.793	21275
866.924	21108
867.055	21294
867.186	21245
867.317	21142
867.448	21154
867.579	21165
867.71	21112
867.841	21138
867.972	21157
868.103	21150
868.233	21230
868.364	21207
868.495	21359
868.625	21405
868.756	21504
868.886	21416
869.017	21500
869.147	21530
869.278	21580
869.408	21587
869.539	21359
869.669	21511
869.799	21412
869.929	21595
870.06	21542
870.19	21770
870.32	21660
870.45	21736
870.58	21622
870.71	21930
870.84	21975
870.97	21884
871.1	21873
871.23	21911
871.36	21960
871.489	21979
871.619	22013
871.749	22013
871.879	22013
872.008	22097
872.138	21960
872.267	22006
872.397	21793
872.526	21850
872.656	21926
872.785	21903
872.915	22105
873.044	22166
873.173	22097
873.303	22063
873.432	22105
873.561	22090
873.69	22135
873.819	22078
873.948	22086
874.077	22139
874.206	21918
874.335	21964
874.464	22097
874.593	22238
874.722	22318
874.851	22230
874.979	22246
875.108	22265
875.237	22242
875.365	22059
875.494	22253
875.623	22371
875.751	22192
875.88	22211
876.008	22421
876.136	22527
876.265	22710
876.393	22748
876.521	22660
876.65	22790
876.778	22603
876.906	22672
877.034	22557
877.162	22573
877.29	22523
877.418	22596
877.546	22592
877.674	22584
877.802	22607
877.93	22584
878.058	22596
878.185	22523
878.313	22500
878.441	22489
878.568	22318
878.696	22630
878.824	22561
878.951	22554
879.079	22767
879.206	22858
879.333	22683
879.461	22831
879.588	22630
879.715	22702
879.842	22892
879.97	22717
880.097	22455
880.224	22443
880.351	22580
880.478	22379
880.605	22371
880.732	22485
880.859	22653
880.986	22481
881.112	22432
881.239	22348
881.366	22048
881.493	22139
881.619	21994
881.746	22021
881.872	21956
881.999	21983
882.125	21895
882.252	22044
882.378	22017
882.505	22150
882.631	21880
882.757	21625
882.883	21675
883.01	21686
883.136	21663
883.262	21637
883.388	21428
883.514	21701
883.64	21679
883.766	21564
883.892	21485
884.018	21618
884.143	21542
884.269	21739
884.395	21264
884.52	21249
884.646	21291
884.772	21249
884.897	21268
885.023	21443
885.148	21321
885.274	21500
885.399	21359
885.524	21291
885.65	21294
885.775	21272
885.9	21412
886.025	21526
886.15	21473
886.275	21199
886.4	21237
886.525	21382
886.65	21313
886.775	21283
886.9	21344
887.025	21610
887.149	21256
887.274	21127
887.399	21150
887.523	21081
887.648	21032
887.773	21001
887.897	21009
888.021	21096
888.146	21028
888.27	21214
888.395	21127
888.519	21230
888.643	21180
888.767	21077
888.891	20872
889.015	20918
889.139	20910
889.263	20887
889.387	20975
889.511	21062
889.635	20971
889.759	20788
889.883	20815
890.006	20880
890.13	20864
890.254	20826
890.377	20750
890.501	20632
890.624	20579
890.748	20609
890.871	20522
890.995	20396
891.118	20370
891.241	20309
891.364	20492
891.488	20617
891.611	20492
891.734	20396
891.857	20568
891.98	20537
892.103	20469
892.226	20476
892.349	20446
892.471	20267
892.594	20423
892.717	20385
892.839	20393
892.962	20351
893.085	20381
893.207	20465
893.33	20240
893.452	20347
893.575	20370
893.697	20415
893.819	20381
893.941	20541
894.064	20644
894.186	20252
894.308	20309
894.43	20495
894.552	20454
894.674	20495
894.796	20233
894.918	20343
895.04	20339
895.161	20412
895.283	20381
895.405	20294
895.526	20332
895.648	20389
895.769	20450
895.891	20381
896.012	20320
896.134	20343
896.255	20343
896.376	20305
896.498	20415
896.619	20431
896.74	20393
896.861	20400
896.982	20598
897.103	20743
897.224	20651
897.345	20533
897.466	20446
897.587	20602
897.708	20705
897.828	20480
897.949	20389
898.07	20320
898.19	20362
898.311	20682
898.431	20571
898.552	20575
898.672	20602
898.792	20602
898.913	20579
899.033	20396
899.153	20408
899.273	20195
899.393	20278
899.513	20301
899.633	20233
899.753	20305
899.873	20225
899.993	20419
900.113	20180
900.232	20229
900.352	20180
900.472	20199
900.591	20039
900.711	20065
900.83	20024
900.95	20172
901.069	20069
901.189	19887
901.308	19651
901.427	19750
901.546	19750
901.665	19685
901.784	19677
901.904	19578
902.023	19445
902.141	19297
902.26	19236
902.379	19209
902.498	19198
902.617	19171
902.735	19209
902.854	19103
902.973	19141
903.091	18951
903.21	18924
903.328	18882
903.446	18734
903.565	18616
903.683	18513
903.801	18502
903.919	18483
904.038	18551
904.156	18327
904.274	18410
904.392	18357
904.51	18353
904.627	18338
904.745	18433
904.863	18414
904.981	18273
905.098	18136
905.216	18057
905.334	18125
905.451	18114
905.569	18045
905.686	18205
905.803	18087
905.921	17977
906.038	18011
906.155	17813
906.272	17752
906.389	17760
906.506	17627
906.623	17581
906.74	17566
906.857	17501
906.974	17402
907.091	17661
907.208	17741
907.324	17634
907.441	17486
907.557	17368
907.674	17345
907.79	17356
907.907	17269
908.023	17231
908.139	17322
908.256	17288
908.372	17159
908.488	17181
908.604	17113
908.72	17037
908.836	16942
908.952	16919
909.068	17037
909.184	17181
909.3	17071
909.415	17132
909.531	17022
909.647	16767
909.762	16824
909.878	16759
909.993	16755
910.108	16698
910.224	16641
910.339	16694
910.454	16569
910.57	16550
910.685	16527
910.8	16740
910.915	16649
911.03	16580
911.145	16405
911.259	16371
911.374	16337
911.489	16303
911.604	16196
911.718	16013
911.833	16063
911.947	15949
912.062	15922
912.176	15983
912.291	16059
912.405	16074
912.519	16249
912.633	16215
912.748	16105
912.862	16074
912.976	15869
913.09	15747
913.204	15827
913.318	15835
913.431	15998
913.545	15968
913.659	15945
913.772	15812
913.886	15701
914	15667
914.113	15827
914.226	15766
914.34	15701
914.453	15610
914.566	15739
914.68	15690
914.793	15606
914.906	15397
915.019	15306
915.132	15222
915.245	15291
915.358	15279
915.47	15401
915.583	15321
915.696	15192
915.809	15431
915.921	15450
916.034	15184
916.146	15184
916.259	15169
916.371	15279
916.483	15138
916.595	15138
916.708	15066
916.82	15161
916.932	14990
917.044	14990
917.156	14944
917.268	14941
917.38	14982
917.491	14975
917.603	14929
917.715	15058
917.826	15074
917.938	14918
918.049	14667
918.161	14876
918.272	15093
918.384	15100
918.495	14864
918.606	14765
918.717	14651
918.828	14804
918.939	14670
919.05	14648
919.161	14651
919.272	14454
919.383	14583
919.494	14697
919.604	14792
919.715	14659
919.826	14602
919.936	14651
920.047	14716
920.157	14674
920.267	14826
920.378	14651
920.488	14564
920.598	14834
920.708	14857
920.818	14853
920.928	14762
921.038	14960
921.148	14906
921.258	14606
921.368	14484
921.477	14507
921.587	14366
921.697	14278
921.806	14313
921.916	14221
922.025	14081
922.134	14012
922.244	13993
922.353	14096
922.462	13837
922.571	13799
922.68	13750
922.789	13651
922.898	13624
923.007	13510
923.116	13662
923.224	13605
923.333	13643
923.442	13476
923.55	13525
923.659	13445
923.767	13582
923.876	13362
923.984	13537
924.092	13244
924.201	13460
924.309	13426
924.417	13407
924.525	13396
924.633	13331
924.741	14218
924.849	13164
924.956	13297
925.064	13152
925.172	13084
925.279	13126
925.387	13076
925.494	13072
925.602	13187
925.709	13129
925.816	12951
925.924	13027
926.031	13103
926.138	12996
926.245	13107
926.352	13019
926.459	13103
926.566	13118
926.673	12966
926.779	12856
926.886	12741
926.993	12700
927.099	12589
927.206	12551
927.312	12593
927.419	12646
927.525	12627
927.631	12650
927.737	12532
927.843	12471
927.95	12395
928.056	12445
928.162	12433
928.267	12483
928.373	13031
928.479	12536
928.585	12247
928.69	12365
928.796	12494
928.901	12334
929.007	12251
929.112	12254
929.218	12258
929.323	12197
929.428	12201
929.533	12220
929.638	12155
929.743	12114
929.848	12114
929.953	12136
930.058	12117
930.163	11908
930.267	11996
930.372	12003
930.477	11775
930.581	12079
930.685	11912
930.79	11729
930.894	11726
930.998	11779
931.103	11851
931.207	11505
931.311	11353
931.415	11326
931.519	11155
931.623	11071
