Data from test_V78500241_3594.txt Node
Date: Fri Mar 25 15:34:53 CST 2022
User: usil
Spectrometer: V785-0024
Trigger mode: 0
Integration Time (sec): 4.000000E-1
Scans to average: 1
Nonlinearity correction enabled: false
Boxcar width: 0
Storing dark spectrum: false
XAxis mode: Wavelengths
Number of Pixels in Spectrum: 1024
>>>>>Begin Spectral Data<<<<<
801.071	27416
801.214	27279
801.356	27036
801.499	26975
801.641	26826
801.783	26811
801.926	26914
802.068	26823
802.211	26731
802.353	26876
802.496	26632
802.638	26609
802.78	26564
802.923	26385
803.065	26499
803.208	26526
803.35	26366
803.492	26530
803.635	26678
803.777	26594
803.919	26731
804.061	26918
804.204	26693
804.346	26678
804.488	26636
804.63	26632
804.773	26499
804.915	26693
805.057	26864
805.199	26686
805.341	26689
805.483	26777
805.626	26712
805.768	26655
805.91	26815
806.052	26762
806.194	26712
806.336	26948
806.478	26765
806.62	26693
806.762	26872
806.904	27036
807.046	27100
807.188	27104
807.33	27176
807.472	27233
807.614	27085
807.756	27039
807.898	26998
808.04	26948
808.182	26986
808.324	26960
808.465	27165
808.607	27260
808.749	27302
808.891	27458
809.033	27572
809.174	27389
809.316	27348
809.458	27268
809.6	27370
809.741	27325
809.883	27447
810.025	27580
810.166	27720
810.308	27618
810.45	27671
810.591	27648
810.733	27435
810.875	27447
811.016	27237
811.158	27321
811.299	27488
811.441	27511
811.582	27557
811.724	27408
811.865	27344
812.007	27363
812.148	27355
812.29	27329
812.431	27485
812.573	27644
812.714	27720
812.855	27945
812.997	27903
813.138	28105
813.279	28040
813.421	27884
813.562	27892
813.703	27713
813.845	27629
813.986	27401
814.127	27169
814.268	27028
814.41	27051
814.551	27116
814.692	27005
814.833	27005
814.974	26979
815.115	27032
815.256	26956
815.397	26853
815.539	27028
815.68	26872
815.821	26739
815.962	26857
816.103	26861
816.244	26693
816.385	26575
816.526	26678
816.666	26480
816.807	26191
816.948	26377
817.089	26332
817.23	26263
817.371	26434
817.512	26275
817.653	26210
817.793	26081
817.934	26290
818.075	26332
818.216	26351
818.356	26305
818.497	26050
818.638	25970
818.778	26046
818.919	26142
819.06	26096
819.2	26096
819.341	26278
819.481	26385
819.622	26514
819.762	26659
819.903	26640
820.043	26617
820.184	26381
820.324	26400
820.465	26419
820.605	26267
820.746	26450
820.886	26244
821.026	26355
821.167	26423
821.307	26461
821.447	26275
821.588	26142
821.728	26069
821.868	25917
822.008	25841
822.149	25818
822.289	25723
822.429	25464
822.569	25457
822.709	25491
822.849	25339
822.99	25209
823.13	25358
823.27	25221
823.41	25069
823.55	25034
823.69	25209
823.83	25122
823.97	24783
824.11	24867
824.25	24882
824.389	24795
824.529	24954
824.669	24954
824.809	24973
824.949	25004
825.089	25042
825.228	24913
825.368	24741
825.508	24814
825.648	24768
825.787	24798
825.927	24875
826.067	24734
826.206	24700
826.346	24806
826.485	24852
826.625	24817
826.765	24958
826.904	24829
827.044	24570
827.183	24601
827.323	24338
827.462	24445
827.601	24502
827.741	24502
827.88	24574
828.02	24304
828.159	24521
828.298	24582
828.437	24639
828.577	24441
828.716	24559
828.855	24441
828.994	24304
829.134	24243
829.273	24243
829.412	24102
829.551	24106
829.69	24102
829.829	24243
829.968	24304
830.107	24300
830.246	24338
830.385	24216
830.524	24129
830.663	24030
830.802	23916
830.941	23748
831.08	23897
831.219	23916
831.357	23901
831.496	23973
831.635	23847
831.774	23657
831.913	23703
832.051	23726
832.19	23646
832.329	23535
832.467	23478
832.606	23573
832.744	23592
832.883	23535
833.022	23551
833.16	23497
833.299	23585
833.437	23570
833.576	23516
833.714	23562
833.852	23611
833.991	23630
834.129	23649
834.267	23745
834.406	23554
834.544	23558
834.682	23604
834.821	23611
834.959	23722
835.097	23558
835.235	23653
835.373	23634
835.511	23562
835.65	23444
835.788	23474
835.926	23311
836.064	23254
836.202	23239
836.34	23433
836.478	23433
836.615	23417
836.753	23501
836.891	23467
837.029	23391
837.167	23463
837.305	23322
837.443	23414
837.58	23318
837.718	23387
837.856	23269
837.993	23258
838.131	23208
838.269	23212
838.406	23155
838.544	23098
838.681	22984
838.819	22911
838.956	22862
839.094	22752
839.231	22831
839.369	22942
839.506	23189
839.643	22900
839.781	22672
839.918	22683
840.055	22759
840.193	22759
840.33	22664
840.467	22656
840.604	22706
840.742	22949
840.879	22618
841.016	22603
841.153	22527
841.29	22790
841.427	22748
841.564	22782
841.701	22698
841.838	22584
841.975	22618
842.112	22611
842.249	22497
842.385	22527
842.522	22713
842.659	22573
842.796	22462
842.933	22459
843.069	22424
843.206	22390
843.343	22436
843.479	22421
843.616	22424
843.752	22333
843.889	22295
844.025	22303
844.162	22272
844.298	22310
844.435	22177
844.571	22162
844.708	22242
844.844	22348
844.98	22303
845.117	22341
845.253	22223
845.389	22013
845.525	22006
845.661	22162
845.798	22032
845.934	21994
846.07	21937
846.206	22048
846.342	21975
846.478	22078
846.614	21876
846.75	21637
846.886	21694
847.022	21770
847.158	21770
847.294	21705
847.429	21762
847.565	21770
847.701	21972
847.837	21443
847.972	21447
848.108	21500
848.244	21542
848.379	21408
848.515	21317
848.65	21317
848.786	21291
848.921	21283
849.057	21291
849.192	21397
849.328	21287
849.463	21359
849.598	21302
849.734	21252
849.869	21306
850.004	21058
850.14	21169
850.275	21017
850.41	21032
850.545	21074
850.68	21066
850.815	21146
850.95	21017
851.085	21252
851.22	21135
851.355	21074
851.49	21020
851.625	21009
851.76	21009
851.895	20994
852.03	20982
852.165	21108
852.299	21017
852.434	21135
852.569	21195
852.703	21112
852.838	21119
852.973	21203
853.107	21218
853.242	21123
853.376	20948
853.511	20830
853.645	20872
853.78	21005
853.914	21001
854.048	20998
854.183	20796
854.317	20914
854.451	21070
854.585	20853
854.72	20842
854.854	21043
854.988	20834
855.122	20819
855.256	20792
855.39	20887
855.524	20895
855.658	20891
855.792	20929
855.926	20902
856.06	20842
856.194	20998
856.327	20914
856.461	20804
856.595	20826
856.729	20902
856.862	20921
856.996	20891
857.13	20883
857.263	20914
857.397	21051
857.53	20902
857.664	20982
857.797	20914
857.931	20967
858.064	20853
858.197	21074
858.331	20815
858.464	20918
858.597	20796
858.731	20823
858.864	20902
858.997	20826
859.13	20937
859.263	21017
859.396	21024
859.529	20902
859.662	20834
859.795	20883
859.928	20777
860.061	21028
860.194	21077
860.327	21047
860.46	20868
860.592	21028
860.725	21138
860.858	21039
860.99	20929
861.123	20765
861.256	20765
861.388	20849
861.521	21808
861.653	20587
861.786	20800
861.918	20686
862.05	20651
862.183	20720
862.315	20902
862.447	20800
862.58	20670
862.712	20720
862.844	20579
862.976	20686
863.108	20655
863.24	20918
863.372	20617
863.504	20560
863.636	20609
863.768	20651
863.9	20575
864.032	20609
864.164	20545
864.296	20613
864.428	20689
864.559	20708
864.691	20655
864.823	20678
864.954	20526
865.086	20560
865.217	20575
865.349	20374
865.48	20450
865.612	20613
865.743	20568
865.875	20587
866.006	20393
866.137	20457
866.269	20454
866.4	20454
866.531	20389
866.662	20419
866.793	20507
866.924	20404
867.055	20393
867.186	20522
867.317	20473
867.448	20343
867.579	20431
867.71	20282
867.841	20286
867.972	20507
868.103	20537
868.233	20507
868.364	20461
868.495	20568
868.625	20678
868.756	20701
868.886	20629
869.017	20686
869.147	20800
869.278	20842
869.408	20777
869.539	20765
869.669	20758
869.799	20701
869.929	20830
870.06	20792
870.19	21009
870.32	20914
870.45	20967
870.58	21077
870.71	21192
870.84	21161
870.97	21005
871.1	21184
871.23	21203
871.36	21306
871.489	21192
871.619	21348
871.749	21222
871.879	21306
872.008	21416
872.138	21279
872.267	21412
872.397	21214
872.526	21218
872.656	21188
872.785	21169
872.915	21378
873.044	21294
873.173	21321
873.303	21424
873.432	21313
873.561	21401
873.69	21481
873.819	21344
873.948	21466
874.077	21367
874.206	21252
874.335	21450
874.464	21416
874.593	21720
874.722	21485
874.851	21576
874.979	21618
875.108	21629
875.237	21488
875.365	21561
875.494	21603
875.623	21698
875.751	21386
875.88	21568
876.008	21675
876.136	21793
876.265	21968
876.393	22010
876.521	21895
876.65	22090
876.778	21975
876.906	21953
877.034	21804
877.162	21892
877.29	21876
877.418	21979
877.546	21956
877.674	21926
877.802	21876
877.93	21823
878.058	21915
878.185	21637
878.313	21934
878.441	21915
878.568	21747
878.696	21857
878.824	22006
878.951	22002
879.079	22154
879.206	22223
879.333	22154
879.461	22048
879.588	21930
879.715	22048
879.842	22188
879.97	21903
880.097	21831
880.224	21770
880.351	21808
880.478	21785
880.605	21682
880.732	21770
880.859	21922
880.986	21736
881.112	21724
881.239	21583
881.366	21576
881.493	21469
881.619	21332
881.746	21313
881.872	21310
881.999	21332
882.125	21245
882.252	21256
882.378	21291
882.505	21416
882.631	21150
882.757	21036
882.883	21135
883.01	20982
883.136	21089
883.262	20933
883.388	20925
883.514	21055
883.64	20937
883.766	20826
883.892	20895
884.018	20838
884.143	20933
884.269	21055
884.395	20853
884.52	20750
884.646	20659
884.772	20587
884.897	20617
885.023	20708
885.148	20743
885.274	20849
885.399	20838
885.524	20560
885.65	20663
885.775	20613
885.9	20625
886.025	20811
886.15	20765
886.275	20716
886.4	20682
886.525	20644
886.65	20488
886.775	20560
886.9	20762
887.025	20838
887.149	20602
887.274	20473
887.399	20434
887.523	20438
887.648	20305
887.773	20309
887.897	20541
888.021	20431
888.146	20309
888.27	20450
888.395	20575
888.519	20465
888.643	20320
888.767	20499
888.891	20343
889.015	20248
889.139	20317
889.263	20301
889.387	20221
889.511	20480
889.635	20431
889.759	20157
889.883	20263
890.006	20214
890.13	20263
890.254	20084
890.377	20180
890.501	19997
890.624	19932
890.748	20054
890.871	19974
890.995	19788
891.118	19674
891.241	19776
891.364	19849
891.488	19978
891.611	19871
891.734	19864
891.857	19898
891.98	19780
892.103	19780
892.226	19791
892.349	19723
892.471	19620
892.594	19750
892.717	19761
892.839	19708
892.962	19738
893.085	19803
893.207	19597
893.33	19510
893.452	19670
893.575	19757
893.697	19704
893.819	19917
893.941	19811
894.064	19887
894.186	19708
894.308	19540
894.43	19837
894.552	19887
894.674	19803
894.796	19670
894.918	19677
895.04	19647
895.161	19803
895.283	19750
895.405	19643
895.526	19704
895.648	19731
895.769	19765
895.891	19750
896.012	19879
896.134	19788
896.255	19776
896.376	19632
896.498	19761
896.619	19719
896.74	19727
896.861	19753
896.982	20081
897.103	20183
897.224	20050
897.345	20054
897.466	19917
897.587	20024
897.708	20153
897.828	20008
897.949	19967
898.07	19685
898.19	19898
898.311	19982
898.431	19868
898.552	20039
898.672	19986
898.792	20024
898.913	19993
899.033	19955
899.153	19750
899.273	19689
899.393	19734
899.513	19803
899.633	19605
899.753	19655
899.873	19639
899.993	19799
900.113	19651
900.232	19761
900.352	19597
900.472	19533
900.591	19491
900.711	19537
900.83	19335
900.95	19556
901.069	19514
901.189	19483
901.308	19145
901.427	19034
901.546	19118
901.665	19057
901.784	19084
901.904	19008
902.023	18863
902.141	18669
902.26	18620
902.379	18616
902.498	18589
902.617	18502
902.735	18635
902.854	18559
902.973	18498
903.091	18289
903.21	18304
903.328	18121
903.446	18251
903.565	18205
903.683	18117
903.801	17961
903.919	18019
904.038	18102
904.156	17893
904.274	17923
904.392	17916
904.51	17885
904.627	17836
904.745	17901
904.863	17988
904.981	17592
905.098	17535
905.216	17589
905.334	17501
905.451	17551
905.569	17490
905.686	17585
905.803	17524
905.921	17311
906.038	17345
906.155	17288
906.272	17231
906.389	17166
906.506	17124
906.623	17067
906.74	17117
906.857	16873
906.974	16987
907.091	17041
907.208	17151
907.324	17094
907.441	17048
907.557	16835
907.674	16847
907.79	16839
907.907	16774
908.023	16824
908.139	16828
908.256	16744
908.372	16675
908.488	16706
908.604	16542
908.72	16611
908.836	16443
908.952	16535
909.068	16470
909.184	16577
909.3	16485
909.415	16447
909.531	16512
909.647	16318
909.762	16219
909.878	16173
909.993	16162
910.108	16166
910.224	16196
910.339	16215
910.454	16048
910.57	15956
910.685	15968
910.8	16291
910.915	16162
911.03	16006
911.145	15873
911.259	15804
911.374	15766
911.489	15720
911.604	15747
911.718	15545
911.833	15504
911.947	15378
912.062	15488
912.176	15629
912.291	15595
912.405	15542
912.519	15789
912.633	15641
912.748	15656
912.862	15504
912.976	15397
913.09	15340
913.204	15332
913.318	15348
913.431	15519
913.545	15367
913.659	15549
913.772	15344
913.886	15203
914	15165
914.113	15245
914.226	15272
914.34	15176
914.453	14982
914.566	15165
914.68	15085
914.793	14982
914.906	14830
915.019	14762
915.132	14674
915.245	14762
915.358	14807
915.47	14864
915.583	14777
915.696	14819
915.809	14921
915.921	14960
916.034	14826
916.146	14705
916.259	14773
916.371	14823
916.483	14796
916.595	14674
916.708	14640
916.82	14731
916.932	14613
917.044	14594
917.156	14465
917.268	14419
917.38	14499
917.491	14434
917.603	14495
917.715	14564
917.826	14518
917.938	14400
918.049	14244
918.161	14404
918.272	14541
918.384	14575
918.495	14499
918.606	14278
918.717	14183
918.828	14267
918.939	14218
919.05	14187
919.161	14252
919.272	14073
919.383	13997
919.494	14298
919.604	14446
919.715	14191
919.826	14142
919.936	14164
920.047	14244
920.157	14240
920.267	14381
920.378	14267
920.488	14206
920.598	14362
920.708	14533
920.818	14377
920.928	14381
921.038	14526
921.148	14560
921.258	14180
921.368	14172
921.477	13967
921.587	14027
921.697	13898
921.806	13955
921.916	13906
922.025	13734
922.134	13609
922.244	13636
922.353	13677
922.462	13525
922.571	13453
922.68	13457
922.789	13434
922.898	13263
923.007	13251
923.116	13384
923.224	13285
923.333	13206
923.442	13118
923.55	13019
923.659	13160
923.767	13179
923.876	13050
923.984	13103
924.092	13031
924.201	13046
924.309	13129
924.417	13027
924.525	12989
924.633	12951
924.741	13879
924.849	12722
924.956	12867
925.064	12707
925.172	12616
925.279	12646
925.387	12753
925.494	12741
925.602	12867
925.709	12741
925.816	12662
925.924	12696
926.031	12722
926.138	12669
926.245	12662
926.352	12574
926.459	12650
926.566	12749
926.673	12551
926.779	12433
926.886	12483
926.993	12380
927.099	12315
927.206	12262
927.312	12197
927.419	12342
927.525	12292
927.631	12369
927.737	12159
927.843	12060
927.95	12011
928.056	12117
928.162	12159
928.267	12235
928.373	12681
928.479	12121
928.585	12026
928.69	12125
928.796	12117
928.901	12049
929.007	11843
929.112	11969
929.218	11965
929.323	11973
929.428	11843
929.533	12045
929.638	11817
929.743	11824
929.848	11878
929.953	11794
930.058	11737
930.163	11562
930.267	11528
930.372	11638
930.477	11474
930.581	11707
930.685	11581
930.79	11459
930.894	11436
930.998	11379
931.103	11539
931.207	11181
931.311	11102
931.415	10949
931.519	10740
931.623	10729
