Data from test_V78500241_1867.txt Node
Date: Fri Mar 25 15:22:51 CST 2022
User: usil
Spectrometer: V785-0024
Trigger mode: 0
Integration Time (sec): 4.000000E-1
Scans to average: 1
Nonlinearity correction enabled: false
Boxcar width: 0
Storing dark spectrum: false
XAxis mode: Wavelengths
Number of Pixels in Spectrum: 1024
>>>>>Begin Spectral Data<<<<<
801.071	27781
801.214	27812
801.356	27583
801.499	27591
801.641	27435
801.783	27389
801.926	27405
802.068	27443
802.211	27268
802.353	27119
802.496	27131
802.638	26902
802.78	26986
802.923	27055
803.065	26811
803.208	26967
803.35	27024
803.492	27127
803.635	27291
803.777	27176
803.919	27249
804.061	27507
804.204	27344
804.346	27195
804.488	27150
804.63	27188
804.773	27214
804.915	27093
805.057	27473
805.199	27207
805.341	27188
805.483	27344
805.626	27329
805.768	27237
805.91	27249
806.052	27454
806.194	27252
806.336	27416
806.478	27332
806.62	27313
806.762	27355
806.904	27591
807.046	27831
807.188	27713
807.33	27778
807.472	27903
807.614	27747
807.756	27793
807.898	27610
808.04	27591
808.182	27412
808.324	27644
808.465	27633
808.607	27949
808.749	27899
808.891	28070
809.033	28002
809.174	28017
809.316	27804
809.458	27823
809.6	27903
809.741	27998
809.883	28128
810.025	28177
810.166	28223
810.308	28287
810.45	28105
810.591	28173
810.733	27991
810.875	27823
811.016	27759
811.158	27854
811.299	28051
811.441	28013
811.582	28128
811.724	27941
811.865	27972
812.007	27983
812.148	27903
812.29	28051
812.431	28215
812.573	28249
812.714	28424
812.855	28421
812.997	28519
813.138	28774
813.279	28634
813.421	28542
813.562	28299
813.703	28322
813.845	28059
813.986	27907
814.127	27937
814.268	27759
814.41	27599
814.551	27667
814.692	27827
814.833	27637
814.974	27671
815.115	27583
815.256	27519
815.397	27599
815.539	27511
815.68	27477
815.821	27382
815.962	27500
816.103	27454
816.244	27325
816.385	27176
816.526	27233
816.666	26998
816.807	26792
816.948	27055
817.089	27005
817.23	27116
817.371	26845
817.512	26788
817.653	26902
817.793	26826
817.934	26963
818.075	27028
818.216	26902
818.356	27043
818.497	26834
818.638	26678
818.778	26750
818.919	26686
819.06	26735
819.2	26773
819.341	26842
819.481	26842
819.622	27062
819.762	27237
819.903	27184
820.043	27146
820.184	27096
820.324	27135
820.465	27169
820.605	27024
820.746	27135
820.886	26921
821.026	26990
821.167	26986
821.307	27036
821.447	26960
821.588	26864
821.728	26670
821.868	26575
822.008	26495
822.149	26446
822.289	26347
822.429	26058
822.569	26088
822.709	26206
822.849	25841
822.99	25986
823.13	25963
823.27	26012
823.41	25788
823.55	25719
823.69	25734
823.83	25677
823.97	25727
824.11	25556
824.25	25537
824.389	25529
824.529	25704
824.669	25639
824.809	25845
824.949	25662
825.089	25590
825.228	25605
825.368	25407
825.508	25495
825.648	25441
825.787	25449
825.927	25411
826.067	25392
826.206	25441
826.346	25457
826.485	25422
826.625	25426
826.765	25548
826.904	25601
827.044	25324
827.183	25282
827.323	25137
827.462	25152
827.601	25164
827.741	25084
827.88	25107
828.02	25027
828.159	25080
828.298	25244
828.437	25122
828.577	25209
828.716	25335
828.855	25050
828.994	24878
829.134	24798
829.273	24943
829.412	24719
829.551	24783
829.69	24901
829.829	24768
829.968	24970
830.107	24924
830.246	24844
830.385	24909
830.524	24738
830.663	24730
830.802	24608
830.941	24418
831.08	24494
831.219	24601
831.357	24642
831.496	24658
831.635	24517
831.774	24372
831.913	24319
832.051	24285
832.19	24243
832.329	24346
832.467	24216
832.606	23969
832.744	24057
832.883	24144
833.022	24057
833.16	24216
833.299	24220
833.437	24205
833.576	24197
833.714	24319
833.852	24216
833.991	24220
834.129	24388
834.267	24171
834.406	24266
834.544	24190
834.682	24213
834.821	24209
834.959	24414
835.097	24224
835.235	24197
835.373	24182
835.511	24178
835.65	24117
835.788	24155
835.926	24060
836.064	23889
836.202	23901
836.34	24102
836.478	24057
836.615	23999
836.753	23969
836.891	24087
837.029	24174
837.167	24053
837.305	23958
837.443	24003
837.58	23931
837.718	23999
837.856	23885
837.993	23828
838.131	23973
838.269	23668
838.406	23714
838.544	23866
838.681	23684
838.819	23570
838.956	23288
839.094	23433
839.231	23524
839.369	23551
839.506	23783
839.643	23710
839.781	23406
839.918	23315
840.055	23425
840.193	23349
840.33	23197
840.467	23356
840.604	23311
840.742	23402
840.879	23174
841.016	23166
841.153	23136
841.29	23292
841.427	23341
841.564	23315
841.701	23417
841.838	23159
841.975	23102
842.112	23296
842.249	23102
842.385	23079
842.522	23292
842.659	23132
842.796	23109
842.933	23086
843.069	23159
843.206	23006
843.343	23006
843.479	23071
843.616	23060
843.752	22790
843.889	22904
844.025	22885
844.162	22790
844.298	23037
844.435	22763
844.571	22805
844.708	22744
844.844	22938
844.98	22980
845.117	23052
845.253	22786
845.389	22706
845.525	22854
845.661	22672
845.798	22554
845.934	22603
846.07	22527
846.206	22626
846.342	22675
846.478	22573
846.614	22382
846.75	22390
846.886	22318
847.022	22344
847.158	22272
847.294	22310
847.429	22386
847.565	22265
847.701	22546
847.837	22074
847.972	21991
848.108	22093
848.244	22112
848.379	21827
848.515	21812
848.65	21899
848.786	21899
848.921	21915
849.057	21960
849.192	21964
849.328	21979
849.463	21705
849.598	21903
849.734	21770
849.869	21766
850.004	21671
850.14	21759
850.275	21701
850.41	21591
850.545	21663
850.68	21553
850.815	21625
850.95	21633
851.085	21926
851.22	21728
851.355	21679
851.49	21663
851.625	21625
851.76	21591
851.895	21481
852.03	21561
852.165	21557
852.299	21686
852.434	21755
852.569	21701
852.703	21637
852.838	21690
852.973	21842
853.107	21869
853.242	21610
853.376	21431
853.511	21332
853.645	21393
853.78	21641
853.914	21519
854.048	21393
854.183	21405
854.317	21428
854.451	21595
854.585	21412
854.72	21530
854.854	21504
854.988	21351
855.122	21477
855.256	21340
855.39	21260
855.524	21530
855.658	21416
855.792	21408
855.926	21564
856.06	21511
856.194	21515
856.327	21466
856.461	21488
856.595	21348
856.729	21523
856.862	21587
856.996	21583
857.13	21469
857.263	21568
857.397	21511
857.53	21538
857.664	21443
857.797	21515
857.931	21576
858.064	21405
858.197	21534
858.331	21538
858.464	21340
858.597	21378
858.731	21351
858.864	21408
858.997	21500
859.13	21477
859.263	21500
859.396	21515
859.529	21382
859.662	21435
859.795	21477
859.928	21500
860.061	21511
860.194	21633
860.327	21500
860.46	21401
860.592	21519
860.725	21606
860.858	21629
860.99	21549
861.123	21496
861.256	21435
861.388	21473
861.521	22219
861.653	21351
861.786	21214
861.918	21252
862.05	21340
862.183	21325
862.315	21370
862.447	21485
862.58	21351
862.712	21211
862.844	21096
862.976	21119
863.108	21458
863.24	21511
863.372	21184
863.504	21195
863.636	21176
863.768	21256
863.9	21264
864.032	21047
864.164	21104
864.296	21066
864.428	21298
864.559	21116
864.691	21275
864.823	21138
864.954	21195
865.086	21108
865.217	21100
865.349	20895
865.48	21039
865.612	21036
865.743	21275
865.875	21089
866.006	21017
866.137	21135
866.269	21070
866.4	20990
866.531	20925
866.662	20845
866.793	21024
866.924	21005
867.055	21024
867.186	21154
867.317	21077
867.448	20925
867.579	20963
867.71	20986
867.841	20963
867.972	20899
868.103	21070
868.233	21074
868.364	20990
868.495	21070
868.625	21207
868.756	21412
868.886	21214
869.017	21237
869.147	21226
869.278	21401
869.408	21264
869.539	21218
869.669	21302
869.799	21348
869.929	21405
870.06	21473
870.19	21450
870.32	21519
870.45	21644
870.58	21690
870.71	21774
870.84	21800
870.97	21561
871.1	21682
871.23	21736
871.36	21861
871.489	21648
871.619	21823
871.749	21793
871.879	21907
872.008	22013
872.138	21888
872.267	21838
872.397	21759
872.526	21671
872.656	21717
872.785	21644
872.915	22074
873.044	21941
873.173	21880
873.303	21895
873.432	21850
873.561	22063
873.69	21751
873.819	21888
873.948	21930
874.077	21903
874.206	21739
874.335	21827
874.464	21937
874.593	22135
874.722	21994
874.851	22090
874.979	22196
875.108	22074
875.237	22147
875.365	21930
875.494	22131
875.623	22230
875.751	21994
875.88	22036
876.008	22158
876.136	22051
876.265	22413
876.393	22618
876.521	22607
876.65	22637
876.778	22580
876.906	22466
877.034	22481
877.162	22519
877.29	22398
877.418	22424
877.546	22443
877.674	22459
877.802	22523
877.93	22497
878.058	22527
878.185	22325
878.313	22314
878.441	22512
878.568	22382
878.696	22352
878.824	22481
878.951	22542
879.079	22546
879.206	22592
879.333	22516
879.461	22386
879.588	22538
879.715	22584
879.842	22698
879.97	22519
880.097	22124
880.224	22219
880.351	22352
880.478	22318
880.605	22078
880.732	22204
880.859	22500
880.986	22147
881.112	22443
881.239	22257
881.366	22067
881.493	21907
881.619	21930
881.746	21869
881.872	21804
881.999	21869
882.125	21732
882.252	21732
882.378	21846
882.505	21907
882.631	21728
882.757	21530
882.883	21679
883.01	21545
883.136	21500
883.262	21439
883.388	21306
883.514	21595
883.64	21557
883.766	21435
883.892	21260
884.018	21336
884.143	21530
884.269	21576
884.395	21184
884.52	21062
884.646	21268
884.772	21135
884.897	21024
885.023	21176
885.148	21138
885.274	21332
885.399	21359
885.524	21161
885.65	21180
885.775	21272
885.9	21096
886.025	21256
886.15	21230
886.275	21058
886.4	20986
886.525	21161
886.65	21085
886.775	21051
886.9	21287
887.025	21382
887.149	21058
887.274	21005
887.399	20906
887.523	21039
887.648	20960
887.773	20701
887.897	21062
888.021	20982
888.146	20921
888.27	21032
888.395	20975
888.519	21001
888.643	20979
888.767	20994
888.891	20883
889.015	20716
889.139	20823
889.263	20815
889.387	20796
889.511	20956
889.635	20891
889.759	20720
889.883	20708
890.006	20750
890.13	20830
890.254	20705
890.377	20583
890.501	20568
890.624	20450
890.748	20556
890.871	20423
890.995	20286
891.118	20252
891.241	20370
891.364	20317
891.488	20389
891.611	20275
891.734	20347
891.857	20442
891.98	20324
892.103	20244
892.226	20324
892.349	20256
892.471	20073
892.594	20191
892.717	20237
892.839	20119
892.962	20187
893.085	20400
893.207	20111
893.33	20164
893.452	20161
893.575	20278
893.697	20149
893.819	20343
893.941	20374
894.064	20404
894.186	20168
894.308	20142
894.43	20267
894.552	20290
894.674	20290
894.796	20229
894.918	20115
895.04	20244
895.161	20221
895.283	20275
895.405	20130
895.526	20180
895.648	20282
895.769	20183
895.891	20142
896.012	20229
896.134	20267
896.255	20210
896.376	20138
896.498	20172
896.619	20309
896.74	20138
896.861	20157
896.982	20419
897.103	20568
897.224	20393
897.345	20290
897.466	20332
897.587	20423
897.708	20434
897.828	20377
897.949	20328
898.07	20259
898.19	20256
898.311	20533
898.431	20313
898.552	20511
898.672	20488
898.792	20488
898.913	20587
899.033	20355
899.153	20214
899.273	20016
899.393	20149
899.513	20031
899.633	20134
899.753	20263
899.873	20172
899.993	20130
900.113	20024
900.232	20115
900.352	20065
900.472	19921
900.591	19940
900.711	19978
900.83	19921
900.95	20073
901.069	19959
901.189	19883
901.308	19605
901.427	19426
901.546	19514
901.665	19464
901.784	19445
901.904	19434
902.023	19225
902.141	19145
902.26	18989
902.379	19160
902.498	19034
902.617	18856
902.735	19050
902.854	19091
902.973	18916
903.091	18635
903.21	18563
903.328	18677
903.446	18616
903.565	18593
903.683	18517
903.801	18418
903.919	18547
904.038	18407
904.156	18277
904.274	18342
904.392	18228
904.51	18285
904.627	18292
904.745	18281
904.863	18346
904.981	17954
905.098	17893
905.216	17935
905.334	18011
905.451	17980
905.569	17901
905.686	17958
905.803	17843
905.921	17657
906.038	17874
906.155	17710
906.272	17562
906.389	17718
906.506	17543
906.623	17452
906.74	17391
906.857	17288
906.974	17376
907.091	17543
907.208	17585
907.324	17455
907.441	17349
907.557	17204
907.674	17151
907.79	17193
907.907	17098
908.023	17128
908.139	17132
908.256	17121
908.372	17014
908.488	17140
908.604	17083
908.72	16892
908.836	16957
908.952	17006
909.068	16949
909.184	16976
909.3	16889
909.415	16896
909.531	16930
909.647	16592
909.762	16607
909.878	16733
909.993	16622
910.108	16618
910.224	16500
910.339	16512
910.454	16382
910.57	16497
910.685	16367
910.8	16641
910.915	16523
911.03	16360
911.145	16337
911.259	16200
911.374	16284
911.489	16006
911.604	16090
911.718	15937
911.833	15937
911.947	15922
912.062	15838
912.176	15907
912.291	15975
912.405	15915
912.519	16116
912.633	16131
912.748	15972
912.862	15861
912.976	15819
913.09	15694
913.204	15747
913.318	15800
913.431	15842
913.545	15823
913.659	15770
913.772	15789
913.886	15622
914	15584
914.113	15561
914.226	15675
914.34	15614
914.453	15485
914.566	15561
914.68	15412
914.793	15401
914.906	15222
915.019	15275
915.132	15127
915.245	15093
915.358	15188
915.47	15154
915.583	15199
915.696	15180
915.809	15336
915.921	15291
916.034	15157
916.146	15066
916.259	14986
916.371	15218
916.483	15157
916.595	15051
916.708	14990
916.82	14994
916.932	14929
917.044	14944
917.156	14883
917.268	14743
917.38	14826
917.491	14762
917.603	14804
917.715	14899
917.826	14857
917.938	14845
918.049	14602
918.161	14781
918.272	14960
918.384	14819
918.495	14762
918.606	14682
918.717	14598
918.828	14606
918.939	14587
919.05	14522
919.161	14461
919.272	14324
919.383	14400
919.494	14629
919.604	14807
919.715	14522
919.826	14457
919.936	14606
920.047	14632
920.157	14469
920.267	14788
920.378	14488
920.488	14438
920.598	14712
920.708	14830
920.818	14530
920.928	14598
921.038	14823
921.148	14800
921.258	14461
921.368	14450
921.477	14294
921.587	14229
921.697	14138
921.806	14240
921.916	14062
922.025	13974
922.134	13856
922.244	13833
922.353	13864
922.462	13837
922.571	13746
922.68	13548
922.789	13616
922.898	13571
923.007	13514
923.116	13540
923.224	13556
923.333	13582
923.442	13434
923.55	13384
923.659	13472
923.767	13426
923.876	13422
923.984	13320
924.092	13187
924.201	13293
924.309	13278
924.417	13240
924.525	13232
924.633	13247
924.741	14206
924.849	13088
924.956	13076
925.064	13057
925.172	12958
925.279	12958
925.387	13031
925.494	13053
925.602	13088
925.709	13023
925.816	12878
925.924	12901
926.031	13031
926.138	12954
926.245	13027
926.352	12798
926.459	12962
926.566	13023
926.673	12825
926.779	12787
926.886	12730
926.993	12601
927.099	12551
927.206	12471
927.312	12479
927.419	12563
927.525	12547
927.631	12479
927.737	12437
927.843	12327
927.95	12209
928.056	12289
928.162	12403
928.267	12486
928.373	12878
928.479	12452
928.585	12178
928.69	12338
928.796	12338
928.901	12247
929.007	12102
929.112	12296
929.218	12190
929.323	12060
929.428	12030
929.533	12087
929.638	12038
929.743	12011
929.848	12053
929.953	12068
930.058	11935
930.163	11836
930.267	11661
930.372	11885
930.477	11741
930.581	11942
930.685	11767
930.79	11733
930.894	11733
930.998	11589
931.103	11767
931.207	11406
931.311	11318
931.415	11242
931.519	11064
931.623	10987
