Data from test_V78500241_3064.txt Node
Date: Fri Mar 25 15:31:11 CST 2022
User: usil
Spectrometer: V785-0024
Trigger mode: 0
Integration Time (sec): 4.000000E-1
Scans to average: 1
Nonlinearity correction enabled: false
Boxcar width: 0
Storing dark spectrum: false
XAxis mode: Wavelengths
Number of Pixels in Spectrum: 1024
>>>>>Begin Spectral Data<<<<<
801.071	27306
801.214	27214
801.356	26982
801.499	26971
801.641	26811
801.783	26693
801.926	26895
802.068	26769
802.211	26872
802.353	26720
802.496	26469
802.638	26492
802.78	26446
802.923	26298
803.065	26324
803.208	26298
803.35	26473
803.492	26571
803.635	26640
803.777	26469
803.919	26701
804.061	26868
804.204	26606
804.346	26617
804.488	26530
804.63	26682
804.773	26453
804.915	26602
805.057	26769
805.199	26571
805.341	26640
805.483	26788
805.626	26651
805.768	26629
805.91	26724
806.052	26781
806.194	26636
806.336	26861
806.478	26739
806.62	26625
806.762	26697
806.904	27055
807.046	27211
807.188	27116
807.33	27195
807.472	27142
807.614	27062
807.756	27116
807.898	27066
808.04	26868
808.182	26906
808.324	26914
808.465	27028
808.607	27302
808.749	27481
808.891	27473
809.033	27469
809.174	27382
809.316	27241
809.458	27401
809.6	27268
809.741	27310
809.883	27359
810.025	27606
810.166	27492
810.308	27523
810.45	27553
810.591	27526
810.733	27359
810.875	27283
811.016	27173
811.158	27287
811.299	27382
811.441	27481
811.582	27382
811.724	27329
811.865	27279
812.007	27207
812.148	27298
812.29	27310
812.431	27473
812.573	27595
812.714	27679
812.855	27781
812.997	27835
813.138	27983
813.279	27865
813.421	27732
813.562	27728
813.703	27580
813.845	27568
813.986	27180
814.127	27188
814.268	27028
814.41	26868
814.551	26975
814.692	27020
814.833	26944
814.974	26940
815.115	27047
815.256	26838
815.397	26826
815.539	26804
815.68	26720
815.821	26781
815.962	26758
816.103	26693
816.244	26617
816.385	26598
816.526	26438
816.666	26381
816.807	26164
816.948	26248
817.089	26339
817.23	26278
817.371	26164
817.512	26122
817.653	26218
817.793	26081
817.934	26275
818.075	26240
818.216	26218
818.356	26301
818.497	26027
818.638	25875
818.778	25902
818.919	25986
819.06	25974
819.2	26142
819.341	26119
819.481	26275
819.622	26347
819.762	26590
819.903	26412
820.043	26351
820.184	26339
820.324	26259
820.465	26320
820.605	26225
820.746	26339
820.886	26111
821.026	26225
821.167	26263
821.307	26199
821.447	26286
821.588	26088
821.728	25993
821.868	25822
822.008	25723
822.149	25609
822.289	25723
822.429	25255
822.569	25373
822.709	25403
822.849	25217
822.99	25183
823.13	25023
823.27	25137
823.41	25133
823.55	24878
823.69	24958
823.83	25057
823.97	24977
824.11	24757
824.25	24768
824.389	24798
824.529	24920
824.669	24730
824.809	24947
824.949	24837
825.089	24924
825.228	24894
825.368	24833
825.508	24608
825.648	24772
825.787	24669
825.927	24837
826.067	24719
826.206	24715
826.346	24578
826.485	24741
826.625	24582
826.765	24707
826.904	24692
827.044	24513
827.183	24509
827.323	24429
827.462	24566
827.601	24300
827.741	24209
827.88	24311
828.02	24201
828.159	24365
828.298	24471
828.437	24422
828.577	24243
828.716	24547
828.855	24174
828.994	24030
829.134	24083
829.273	24030
829.412	24117
829.551	24030
829.69	24030
829.829	24102
829.968	24338
830.107	24194
830.246	24110
830.385	24053
830.524	23992
830.663	23920
830.802	23889
830.941	23733
831.08	23642
831.219	23779
831.357	23756
831.496	23912
831.635	23668
831.774	23615
831.913	23501
832.051	23455
832.19	23433
832.329	23490
832.467	23376
832.606	23136
832.744	23337
832.883	23315
833.022	23372
833.16	23345
833.299	23417
833.437	23459
833.576	23410
833.714	23436
833.852	23402
833.991	23474
834.129	23512
834.267	23497
834.406	23421
834.544	23512
834.682	23463
834.821	23299
834.959	23741
835.097	23444
835.235	23539
835.373	23372
835.511	23360
835.65	23345
835.788	23353
835.926	23132
836.064	23033
836.202	23052
836.34	23204
836.478	23330
836.615	23398
836.753	23261
836.891	23299
837.029	23265
837.167	23140
837.305	23227
837.443	23056
837.58	23124
837.718	23098
837.856	23181
837.993	23014
838.131	23105
838.269	22923
838.406	23056
838.544	22904
838.681	22774
838.819	22713
838.956	22611
839.094	22447
839.231	22733
839.369	22710
839.506	22984
839.643	22797
839.781	22588
839.918	22481
840.055	22542
840.193	22535
840.33	22554
840.467	22615
840.604	22470
840.742	22729
840.879	22371
841.016	22329
841.153	22497
841.29	22462
841.427	22462
841.564	22516
841.701	22466
841.838	22489
841.975	22402
842.112	22428
842.249	22291
842.385	22443
842.522	22497
842.659	22363
842.796	22147
842.933	22261
843.069	22223
843.206	22211
843.343	22379
843.479	22299
843.616	22219
843.752	22070
843.889	22131
844.025	22207
844.162	21857
844.298	22185
844.435	22036
844.571	22036
844.708	22226
844.844	22154
844.98	22055
845.117	22074
845.253	22021
845.389	21892
845.525	21975
845.661	21869
845.798	21724
845.934	21945
846.07	21762
846.206	21831
846.342	21903
846.478	21831
846.614	21614
846.75	21545
846.886	21534
847.022	21637
847.158	21526
847.294	21545
847.429	21553
847.565	21587
847.701	21679
847.837	21294
847.972	21195
848.108	21313
848.244	21363
848.379	21100
848.515	21039
848.65	21161
848.786	20986
848.921	21116
849.057	21154
849.192	21081
849.328	21116
849.463	21131
849.598	21142
849.734	21013
849.869	20960
850.004	20937
850.14	20925
850.275	20910
850.41	20727
850.545	20861
850.68	20819
850.815	20967
850.95	20807
851.085	20990
851.22	21085
851.355	20921
851.49	20788
851.625	20914
851.76	20857
851.895	20842
852.03	20830
852.165	20880
852.299	20921
852.434	20925
852.569	20899
852.703	20887
852.838	20845
852.973	20963
853.107	20975
853.242	20830
853.376	20804
853.511	20609
853.645	20545
853.78	20686
853.914	20583
854.048	20697
854.183	20640
854.317	20765
854.451	20861
854.585	20674
854.72	20606
854.854	20823
854.988	20621
855.122	20678
855.256	20651
855.39	20735
855.524	20807
855.658	20724
855.792	20629
855.926	20785
856.06	20670
856.194	20663
856.327	20693
856.461	20693
856.595	20629
856.729	20682
856.862	20670
856.996	20792
857.13	20762
857.263	20674
857.397	20781
857.53	20731
857.664	20716
857.797	20693
857.931	20750
858.064	20765
858.197	20849
858.331	20705
858.464	20750
858.597	20609
858.731	20746
858.864	20640
858.997	20648
859.13	20651
859.263	20781
859.396	20849
859.529	20708
859.662	20670
859.795	20621
859.928	20686
860.061	20735
860.194	20868
860.327	20712
860.46	20811
860.592	20944
860.725	20830
860.858	20838
860.99	20724
861.123	20625
861.256	20636
861.388	20705
861.521	21081
861.653	20514
861.786	20549
861.918	20507
862.05	20560
862.183	20590
862.315	20617
862.447	20712
862.58	20575
862.712	20389
862.844	20374
862.976	20518
863.108	20488
863.24	20735
863.372	20446
863.504	20362
863.636	20427
863.768	20454
863.9	20469
864.032	20351
864.164	20492
864.296	20484
864.428	20423
864.559	20602
864.691	20476
864.823	20389
864.954	20438
865.086	20313
865.217	20339
865.349	20328
865.48	20244
865.612	20317
865.743	20568
865.875	20294
866.006	20317
866.137	20309
866.269	20229
866.4	20328
866.531	20176
866.662	20256
866.793	20263
866.924	20332
867.055	20271
867.186	20240
867.317	20259
867.448	20115
867.579	20180
867.71	20202
867.841	20149
867.972	20244
868.103	20286
868.233	20301
868.364	20271
868.495	20355
868.625	20507
868.756	20708
868.886	20473
869.017	20438
869.147	20571
869.278	20606
869.408	20469
869.539	20511
869.669	20541
869.799	20522
869.929	20674
870.06	20560
870.19	20765
870.32	20762
870.45	20857
870.58	20765
870.71	20998
870.84	20921
870.97	20971
871.1	21055
871.23	21218
871.36	21005
871.489	21074
871.619	20986
871.749	21123
871.879	21119
872.008	21199
872.138	20963
872.267	21142
872.397	20929
872.526	20937
872.656	20933
872.785	20834
872.915	21218
873.044	21173
873.173	21108
873.303	21188
873.432	21226
873.561	21291
873.69	21176
873.819	21104
873.948	21230
874.077	21131
874.206	21195
874.335	21192
874.464	21176
874.593	21359
874.722	21188
874.851	21302
874.979	21424
875.108	21386
875.237	21279
875.365	21283
875.494	21447
875.623	21401
875.751	21420
875.88	21310
876.008	21439
876.136	21500
876.265	21736
876.393	21842
876.521	21785
876.65	21793
876.778	21739
876.906	21686
877.034	21690
877.162	21755
877.29	21800
877.418	21800
877.546	21789
877.674	21778
877.802	21564
877.93	21671
878.058	21690
878.185	21599
878.313	21587
878.441	21709
878.568	21504
878.696	21701
878.824	21694
878.951	21774
879.079	21698
879.206	21907
879.333	21895
879.461	21694
879.588	21827
879.715	21892
879.842	22017
879.97	21774
880.097	21389
880.224	21583
880.351	21561
880.478	21542
880.605	21504
880.732	21576
880.859	21709
880.986	21412
881.112	21595
881.239	21386
881.366	21260
881.493	21222
881.619	21169
881.746	21131
881.872	21211
881.999	21066
882.125	21058
882.252	21199
882.378	21077
882.505	21214
882.631	21017
882.757	20880
882.883	20998
883.01	20857
883.136	20800
883.262	20819
883.388	20720
883.514	20739
883.64	20849
883.766	20727
883.892	20640
884.018	20667
884.143	20872
884.269	20880
884.395	20408
884.52	20507
884.646	20594
884.772	20434
884.897	20385
885.023	20552
885.148	20499
885.274	20712
885.399	20568
885.524	20598
885.65	20552
885.775	20545
885.9	20457
886.025	20670
886.15	20632
886.275	20469
886.4	20305
886.525	20514
886.65	20450
886.775	20400
886.9	20613
887.025	20697
887.149	20370
887.274	20271
887.399	20183
887.523	20377
887.648	20309
887.773	20157
887.897	20442
888.021	20438
888.146	20180
888.27	20282
888.395	20275
888.519	20347
888.643	20263
888.767	20347
888.891	20103
889.015	20027
889.139	20142
889.263	20024
889.387	20229
889.511	20328
889.635	20225
889.759	20119
889.883	20031
890.006	20088
890.13	20103
890.254	19970
890.377	20005
890.501	19932
890.624	19875
890.748	19826
890.871	19894
890.995	19753
891.118	19696
891.241	19769
891.364	19613
891.488	19734
891.611	19693
891.734	19746
891.857	19727
891.98	19628
892.103	19746
892.226	19719
892.349	19609
892.471	19487
892.594	19590
892.717	19609
892.839	19635
892.962	19514
893.085	19685
893.207	19544
893.33	19464
893.452	19540
893.575	19567
893.697	19586
893.819	19852
893.941	19822
894.064	19780
894.186	19483
894.308	19468
894.43	19746
894.552	19761
894.674	19791
894.796	19457
894.918	19571
895.04	19480
895.161	19559
895.283	19537
895.405	19521
895.526	19643
895.648	19620
895.769	19723
895.891	19670
896.012	19685
896.134	19605
896.255	19643
896.376	19559
896.498	19609
896.619	19575
896.74	19563
896.861	19662
896.982	19830
897.103	20001
897.224	19917
897.345	19776
897.466	19818
897.587	19700
897.708	19978
897.828	20001
897.949	19712
898.07	19693
898.19	19723
898.311	19982
898.431	19890
898.552	19902
898.672	19978
898.792	19909
898.913	19864
899.033	19750
899.153	19647
899.273	19533
899.393	19514
899.513	19552
899.633	19670
899.753	19674
899.873	19514
899.993	19552
900.113	19483
900.232	19533
900.352	19419
900.472	19373
900.591	19457
900.711	19445
900.83	19312
900.95	19449
901.069	19453
901.189	19297
901.308	18977
901.427	18833
901.546	18901
901.665	19019
901.784	18977
901.904	18817
902.023	18810
902.141	18525
902.26	18460
902.379	18467
902.498	18475
902.617	18372
902.735	18627
902.854	18422
902.973	18357
903.091	18163
903.21	18251
903.328	18243
903.446	17988
903.565	18026
903.683	17973
903.801	17927
903.919	17950
904.038	17874
904.156	17878
904.274	17813
904.392	17691
904.51	17771
904.627	17741
904.745	17760
904.863	17775
904.981	17581
905.098	17490
905.216	17277
905.334	17406
905.451	17478
905.569	17330
905.686	17467
905.803	17436
905.921	17178
906.038	17440
906.155	17140
906.272	17064
906.389	17208
906.506	16938
906.623	16999
906.74	16896
906.857	16919
906.974	16892
907.091	16972
907.208	17060
907.324	16915
907.441	16908
907.557	16763
907.674	16622
907.79	16607
907.907	16630
908.023	16679
908.139	16622
908.256	16618
908.372	16550
908.488	16516
908.604	16478
908.72	16394
908.836	16421
908.952	16306
909.068	16398
909.184	16500
909.3	16394
909.415	16462
909.531	16363
909.647	16219
909.762	16078
909.878	16135
909.993	16230
910.108	16086
910.224	16067
910.339	16131
910.454	15945
910.57	15911
910.685	15816
910.8	16059
910.915	15953
911.03	15941
911.145	15759
911.259	15694
911.374	15728
911.489	15618
911.604	15717
911.718	15462
911.833	15447
911.947	15397
912.062	15317
912.176	15542
912.291	15492
912.405	15530
912.519	15610
912.633	15663
912.748	15458
912.862	15412
912.976	15370
913.09	15192
913.204	15199
913.318	15306
913.431	15367
913.545	15306
913.659	15351
913.772	15252
913.886	15043
914	15157
914.113	15195
914.226	15260
914.34	15085
914.453	14960
914.566	15097
914.68	14941
914.793	14895
914.906	14758
915.019	14731
915.132	14655
915.245	14750
915.358	14746
915.47	14689
915.583	14644
915.696	14617
915.809	14785
915.921	14826
916.034	14621
916.146	14606
916.259	14587
916.371	14667
916.483	14659
916.595	14610
916.708	14533
916.82	14556
916.932	14457
917.044	14533
917.156	14488
917.268	14313
917.38	14393
917.491	14240
917.603	14446
917.715	14438
917.826	14427
917.938	14317
918.049	14298
918.161	14267
918.272	14412
918.384	14400
918.495	14396
918.606	14218
918.717	14043
918.828	14161
918.939	14259
919.05	14027
919.161	14176
919.272	13837
919.383	13989
919.494	14073
919.604	14324
919.715	14084
919.826	14050
919.936	14062
920.047	14130
920.157	14172
920.267	14301
920.378	14123
920.488	14115
920.598	14248
920.708	14412
920.818	14256
920.928	14218
921.038	14442
921.148	14317
921.258	14043
921.368	13959
921.477	13902
921.587	13868
921.697	13772
921.806	13871
921.916	13616
922.025	13563
922.134	13533
922.244	13487
922.353	13491
922.462	13449
922.571	13293
922.68	13206
922.789	13133
922.898	13126
923.007	13122
923.116	13190
923.224	13080
923.333	13072
923.442	12977
923.55	12985
923.659	12962
923.767	13019
923.876	12890
923.984	13000
924.092	13008
924.201	12935
924.309	12935
924.417	12966
924.525	12821
924.633	12848
924.741	13742
924.849	12646
924.956	12764
925.064	12654
925.172	12547
925.279	12589
925.387	12620
925.494	12677
925.602	12669
925.709	12635
925.816	12525
925.924	12559
926.031	12589
926.138	12555
926.245	12517
926.352	12410
926.459	12593
926.566	12631
926.673	12448
926.779	12296
926.886	12277
926.993	12152
927.099	12167
927.206	12076
927.312	12060
927.419	12186
927.525	12175
927.631	12121
927.737	12057
927.843	11992
927.95	11863
928.056	11984
928.162	12049
928.267	12022
928.373	12703
928.479	12117
928.585	11874
928.69	11950
928.796	12053
928.901	11878
929.007	11767
929.112	11847
929.218	11775
929.323	11745
929.428	11703
929.533	11752
929.638	11661
929.743	11699
929.848	11710
929.953	11657
930.058	11604
930.163	11459
930.267	11433
930.372	11585
930.477	11356
930.581	11570
930.685	11436
930.79	11277
930.894	11353
930.998	11265
931.103	11372
931.207	11045
931.311	11003
931.415	10953
931.519	10691
931.623	10748
