Data from test_V78500241_1990.txt Node
Date: Fri Mar 25 15:23:42 CST 2022
User: usil
Spectrometer: V785-0024
Trigger mode: 0
Integration Time (sec): 4.000000E-1
Scans to average: 1
Nonlinearity correction enabled: false
Boxcar width: 0
Storing dark spectrum: false
XAxis mode: Wavelengths
Number of Pixels in Spectrum: 1024
>>>>>Begin Spectral Data<<<<<
801.071	27850
801.214	27861
801.356	27583
801.499	27583
801.641	27500
801.783	27401
801.926	27454
802.068	27397
802.211	27393
802.353	27256
802.496	27131
802.638	27096
802.78	27024
802.923	27013
803.065	27051
803.208	26975
803.35	26967
803.492	27218
803.635	27237
803.777	27096
803.919	27157
804.061	27568
804.204	27382
804.346	27207
804.488	27142
804.63	27260
804.773	27093
804.915	27279
805.057	27450
805.199	27317
805.341	27412
805.483	27496
805.626	27447
805.768	27283
805.91	27359
806.052	27408
806.194	27367
806.336	27599
806.478	27473
806.62	27450
806.762	27523
806.904	27660
807.046	28074
807.188	27873
807.33	27876
807.472	27892
807.614	27770
807.756	27770
807.898	27660
808.04	27762
808.182	27656
808.324	27728
808.465	27682
808.607	27895
808.749	27968
808.891	27991
809.033	28162
809.174	28074
809.316	27876
809.458	28025
809.6	28013
809.741	28143
809.883	28090
810.025	28314
810.166	28322
810.308	28287
810.45	28207
810.591	28409
810.733	28128
810.875	27956
811.016	27892
811.158	27953
811.299	28150
811.441	28246
811.582	28109
811.724	28116
811.865	28010
812.007	27979
812.148	28032
812.29	28006
812.431	28169
812.573	28306
812.714	28413
812.855	28459
812.997	28683
813.138	28740
813.279	28694
813.421	28634
813.562	28413
813.703	28386
813.845	28181
813.986	27979
814.127	27857
814.268	27873
814.41	27873
814.551	27690
814.692	27709
814.833	27895
814.974	27739
815.115	27823
815.256	27553
815.397	27545
815.539	27644
815.68	27538
815.821	27492
815.962	27492
816.103	27386
816.244	27279
816.385	27272
816.526	27230
816.666	27123
816.807	27093
816.948	27028
817.089	26990
817.23	26963
817.371	27028
817.512	26944
817.653	26902
817.793	27013
817.934	27024
818.075	26971
818.216	27028
818.356	26956
818.497	26842
818.638	26724
818.778	26769
818.919	26743
819.06	26720
819.2	26883
819.341	27028
819.481	26910
819.622	27096
819.762	27393
819.903	27112
820.043	27207
820.184	27192
820.324	27074
820.465	27161
820.605	27131
820.746	27036
820.886	26880
821.026	27093
821.167	27036
821.307	27169
821.447	27001
821.588	26895
821.728	26853
821.868	26552
822.008	26575
822.149	26461
822.289	26446
822.429	26210
822.569	26073
822.709	26176
822.849	25989
822.99	25997
823.13	26012
823.27	25963
823.41	25925
823.55	25734
823.69	25753
823.83	25826
823.97	25753
824.11	25655
824.25	25685
824.389	25575
824.529	25723
824.669	25605
824.809	25788
824.949	25647
825.089	25723
825.228	25670
825.368	25483
825.508	25514
825.648	25445
825.787	25567
825.927	25601
826.067	25514
826.206	25575
826.346	25506
826.485	25540
826.625	25518
826.765	25430
826.904	25537
827.044	25297
827.183	25285
827.323	25209
827.462	25343
827.601	25304
827.741	25103
827.88	25179
828.02	25206
828.159	25114
828.298	25194
828.437	25251
828.577	25118
828.716	25255
828.855	25091
828.994	24798
829.134	24821
829.273	24905
829.412	24928
829.551	24905
829.69	24962
829.829	24935
829.968	25004
830.107	25012
830.246	24973
830.385	24852
830.524	24768
830.663	24814
830.802	24574
830.941	24574
831.08	24498
831.219	24650
831.357	24631
831.496	24730
831.635	24490
831.774	24334
831.913	24426
832.051	24342
832.19	24365
832.329	24292
832.467	24270
832.606	24209
832.744	24270
832.883	24133
833.022	24117
833.16	24152
833.299	24251
833.437	24136
833.576	24235
833.714	24235
833.852	24292
833.991	24452
834.129	24372
834.267	24292
834.406	24410
834.544	24273
834.682	24178
834.821	24243
834.959	24330
835.097	24171
835.235	24152
835.373	24251
835.511	24224
835.65	24197
835.788	24114
835.926	24072
836.064	23809
836.202	24022
836.34	24106
836.478	24182
836.615	24117
836.753	24091
836.891	24098
837.029	24087
837.167	23992
837.305	23977
837.443	23745
837.58	23923
837.718	24110
837.856	23958
837.993	23882
838.131	23931
838.269	23836
838.406	23889
838.544	23756
838.681	23665
838.819	23531
838.956	23349
839.094	23452
839.231	23433
839.369	23512
839.506	23851
839.643	23707
839.781	23520
839.918	23383
840.055	23433
840.193	23448
840.33	23223
840.467	23360
840.604	23311
840.742	23577
840.879	23136
841.016	23273
841.153	23277
841.29	23353
841.427	23364
841.564	23421
841.701	23372
841.838	23326
841.975	23174
842.112	23136
842.249	22987
842.385	23124
842.522	23254
842.659	23155
842.796	23018
842.933	23155
843.069	23018
843.206	23064
843.343	23090
843.479	23208
843.616	23242
843.752	23018
843.889	22824
844.025	23064
844.162	22881
844.298	23037
844.435	22938
844.571	22908
844.708	22919
844.844	23056
844.98	23094
845.117	23025
845.253	22873
845.389	22660
845.525	22778
845.661	22721
845.798	22767
845.934	22656
846.07	22565
846.206	22645
846.342	22755
846.478	22588
846.614	22451
846.75	22295
846.886	22341
847.022	22379
847.158	22360
847.294	22284
847.429	22284
847.565	22466
847.701	22531
847.837	22070
847.972	22082
848.108	22181
848.244	22150
848.379	21964
848.515	21949
848.65	21968
848.786	21873
848.921	21899
849.057	21972
849.192	21964
849.328	21953
849.463	22017
849.598	21774
849.734	21873
849.869	21743
850.004	21644
850.14	21743
850.275	21831
850.41	21690
850.545	21663
850.68	21663
850.815	21724
850.95	21595
851.085	21876
851.22	21679
851.355	21629
851.49	21705
851.625	21682
851.76	21633
851.895	21606
852.03	21694
852.165	21671
852.299	21656
852.434	21736
852.569	21709
852.703	21572
852.838	21724
852.973	21774
853.107	21831
853.242	21675
853.376	21595
853.511	21386
853.645	21420
853.78	21713
853.914	21561
854.048	21496
854.183	21507
854.317	21473
854.451	21603
854.585	21603
854.72	21557
854.854	21686
854.988	21420
855.122	21485
855.256	21405
855.39	21416
855.524	21545
855.658	21686
855.792	21671
855.926	21488
856.06	21530
856.194	21629
856.327	21466
856.461	21458
856.595	21507
856.729	21679
856.862	21614
856.996	21557
857.13	21591
857.263	21492
857.397	21580
857.53	21458
857.664	21477
857.797	21519
857.931	21641
858.064	21408
858.197	21629
858.331	21504
858.464	21481
858.597	21443
858.731	21504
858.864	21370
858.997	21435
859.13	21515
859.263	21477
859.396	21656
859.529	21405
859.662	21496
859.795	21481
859.928	21488
860.061	21545
860.194	21701
860.327	21618
860.46	21523
860.592	21473
860.725	21819
860.858	21530
860.99	21538
861.123	21481
861.256	21340
861.388	21367
861.521	22139
861.653	21397
861.786	21264
861.918	21241
862.05	21389
862.183	21321
862.315	21466
862.447	21386
862.58	21488
862.712	21302
862.844	21150
862.976	21332
863.108	21321
863.24	21606
863.372	21138
863.504	21260
863.636	21214
863.768	21272
863.9	21207
864.032	21207
864.164	21138
864.296	21237
864.428	21302
864.559	21298
864.691	21287
864.823	21306
864.954	21131
865.086	21169
865.217	21135
865.349	20998
865.48	21028
865.612	21077
865.743	21154
865.875	21150
866.006	21131
866.137	21119
866.269	21188
866.4	21135
866.531	21043
866.662	20975
866.793	20960
866.924	21096
867.055	21074
867.186	21036
867.317	21058
867.448	20906
867.579	21005
867.71	20982
867.841	21032
867.972	21005
868.103	21005
868.233	21032
868.364	20998
868.495	21169
868.625	21218
868.756	21355
868.886	21230
869.017	21287
869.147	21370
869.278	21428
869.408	21211
869.539	21260
869.669	21370
869.799	21245
869.929	21443
870.06	21313
870.19	21583
870.32	21603
870.45	21625
870.58	21675
870.71	21747
870.84	21667
870.97	21747
871.1	21610
871.23	21819
871.36	21926
871.489	21789
871.619	21956
871.749	21835
871.879	21907
872.008	22044
872.138	21857
872.267	21873
872.397	21739
872.526	21637
872.656	21679
872.785	21682
872.915	21873
873.044	21956
873.173	21869
873.303	21994
873.432	21968
873.561	21964
873.69	21945
873.819	22006
873.948	21972
874.077	21812
874.206	21778
874.335	21972
874.464	22063
874.593	22135
874.722	22128
874.851	21972
874.979	22131
875.108	22124
875.237	22158
875.365	22086
875.494	22078
875.623	22162
875.751	22101
875.88	22169
876.008	22386
876.136	22428
876.265	22466
876.393	22660
876.521	22554
876.65	22554
876.778	22546
876.906	22398
877.034	22535
877.162	22508
877.29	22432
877.418	22489
877.546	22417
877.674	22382
877.802	22504
877.93	22405
878.058	22470
878.185	22382
878.313	22344
878.441	22348
878.568	22322
878.696	22394
878.824	22485
878.951	22489
879.079	22611
879.206	22752
879.333	22569
879.461	22459
879.588	22596
879.715	22402
879.842	22694
879.97	22580
880.097	22249
880.224	22238
880.351	22432
880.478	22124
880.605	22291
880.732	22390
880.859	22455
880.986	22333
881.112	22230
881.239	22204
881.366	22006
881.493	21915
881.619	21880
881.746	21861
881.872	21911
881.999	21903
882.125	21717
882.252	21838
882.378	21899
882.505	21979
882.631	21610
882.757	21485
882.883	21675
883.01	21504
883.136	21447
883.262	21519
883.388	21340
883.514	21530
883.64	21561
883.766	21496
883.892	21374
884.018	21435
884.143	21416
884.269	21545
884.395	21188
884.52	21306
884.646	21199
884.772	21108
884.897	21085
885.023	21245
885.148	21310
885.274	21481
885.399	21237
885.524	21154
885.65	21192
885.775	21150
885.9	21096
886.025	21226
886.15	21222
886.275	21180
886.4	21013
886.525	21108
886.65	21173
886.775	21089
886.9	21294
887.025	21340
887.149	21131
887.274	20956
887.399	21017
887.523	20967
887.648	20982
887.773	20925
887.897	21077
888.021	21005
888.146	20891
888.27	20956
888.395	21062
888.519	20994
888.643	20933
888.767	20910
888.891	20887
889.015	20914
889.139	20830
889.263	20739
889.387	20765
889.511	21058
889.635	20902
889.759	20830
889.883	20674
890.006	20777
890.13	20883
890.254	20556
890.377	20739
890.501	20556
890.624	20678
890.748	20625
890.871	20484
890.995	20324
891.118	20199
891.241	20271
891.364	20355
891.488	20442
891.611	20301
891.734	20370
891.857	20362
891.98	20298
892.103	20476
892.226	20286
892.349	20263
892.471	20218
892.594	20218
892.717	20252
892.839	20153
892.962	20351
893.085	20294
893.207	20229
893.33	20035
893.452	20126
893.575	20263
893.697	20210
893.819	20423
893.941	20469
894.064	20377
894.186	20191
894.308	20130
894.43	20271
894.552	20438
894.674	20423
894.796	20161
894.918	20259
895.04	20218
895.161	20259
895.283	20263
895.405	20286
895.526	20164
895.648	20199
895.769	20324
895.891	20244
896.012	20271
896.134	20252
896.255	20313
896.376	20263
896.498	20176
896.619	20191
896.74	20176
896.861	20278
896.982	20533
897.103	20670
897.224	20499
897.345	20332
897.466	20457
897.587	20400
897.708	20590
897.828	20484
897.949	20370
898.07	20240
898.19	20423
898.311	20404
898.431	20396
898.552	20362
898.672	20465
898.792	20465
898.913	20446
899.033	20362
899.153	20309
899.273	20081
899.393	20206
899.513	20282
899.633	20294
899.753	20176
899.873	20149
899.993	20195
900.113	20050
900.232	20084
900.352	20058
900.472	19959
900.591	19902
900.711	20035
900.83	19833
900.95	19955
901.069	19875
901.189	19898
901.308	19689
901.427	19518
901.546	19563
901.665	19582
901.784	19609
901.904	19472
902.023	19358
902.141	19145
902.26	19038
902.379	19213
902.498	19057
902.617	19019
902.735	19099
902.854	19000
902.973	19004
903.091	18745
903.21	18817
903.328	18787
903.446	18658
903.565	18589
903.683	18563
903.801	18509
903.919	18391
904.038	18365
904.156	18304
904.274	18395
904.392	18266
904.51	18273
904.627	18330
904.745	18319
904.863	18289
904.981	18068
905.098	17874
905.216	17988
905.334	17988
905.451	18038
905.569	17859
905.686	17946
905.803	18015
905.921	17798
906.038	17737
906.155	17798
906.272	17649
906.389	17764
906.506	17509
906.623	17543
906.74	17467
906.857	17440
906.974	17436
907.091	17524
907.208	17600
907.324	17383
907.441	17368
907.557	17315
907.674	17280
907.79	17075
907.907	17162
908.023	17200
908.139	17246
908.256	17231
908.372	17060
908.488	17056
908.604	17022
908.72	16938
908.836	16991
908.952	16949
909.068	16892
909.184	17006
909.3	16934
909.415	16953
909.531	16942
909.647	16816
909.762	16717
909.878	16702
909.993	16710
910.108	16611
910.224	16599
910.339	16683
910.454	16466
910.57	16428
910.685	16443
910.8	16725
910.915	16554
911.03	16481
911.145	16261
911.259	16314
911.374	16230
911.489	16105
911.604	16105
911.718	15972
911.833	15972
911.947	15804
912.062	15717
912.176	15953
912.291	15922
912.405	15998
912.519	16112
912.633	16120
912.748	16086
912.862	16021
912.976	15766
913.09	15728
913.204	15827
913.318	15819
913.431	15892
913.545	15793
913.659	15926
913.772	15724
913.886	15637
914	15599
914.113	15747
914.226	15743
914.34	15675
914.453	15511
914.566	15637
914.68	15504
914.793	15485
914.906	15275
915.019	15192
915.132	15230
915.245	15184
915.358	15165
915.47	15211
915.583	15169
915.696	15294
915.809	15283
915.921	15321
916.034	15131
916.146	15097
916.259	14963
916.371	15074
916.483	15089
916.595	15081
916.708	14910
916.82	15055
916.932	15093
917.044	14971
917.156	14960
917.268	14758
917.38	14861
917.491	14899
917.603	14902
917.715	14826
917.826	14804
917.938	14731
918.049	14655
918.161	14876
918.272	14868
918.384	15009
918.495	14792
918.606	14659
918.717	14514
918.828	14674
918.939	14655
919.05	14530
919.161	14511
919.272	14309
919.383	14434
919.494	14602
919.604	14701
919.715	14564
919.826	14530
919.936	14480
920.047	14606
920.157	14613
920.267	14697
920.378	14530
920.488	14629
920.598	14743
920.708	14857
920.818	14636
920.928	14746
921.038	14807
921.148	14773
921.258	14537
921.368	14431
921.477	14351
921.587	14164
921.697	14176
921.806	14328
921.916	14107
922.025	14031
922.134	13944
922.244	13761
922.353	14039
922.462	13822
922.571	13780
922.68	13540
922.789	13605
922.898	13704
923.007	13445
923.116	13601
923.224	13655
923.333	13571
923.442	13396
923.55	13487
923.659	13403
923.767	13453
923.876	13282
923.984	13472
924.092	13244
924.201	13228
924.309	13320
924.417	13415
924.525	13187
924.633	13266
924.741	13978
924.849	13053
924.956	13156
925.064	13057
925.172	13012
925.279	13023
925.387	13023
925.494	12993
925.602	13057
925.709	13091
925.816	12856
925.924	12947
926.031	13000
926.138	12943
926.245	13038
926.352	12753
926.459	12939
926.566	12951
926.673	12863
926.779	12795
926.886	12700
926.993	12650
927.099	12521
927.206	12525
927.312	12509
927.419	12570
927.525	12532
927.631	12623
927.737	12509
927.843	12395
927.95	12235
928.056	12407
928.162	12441
928.267	12502
928.373	13031
928.479	12475
928.585	12239
928.69	12270
928.796	12429
928.901	12220
929.007	12053
929.112	12235
929.218	12167
929.323	12072
929.428	12030
929.533	12266
929.638	12026
929.743	12064
929.848	12057
929.953	11992
930.058	11984
930.163	11847
930.267	11745
930.372	11901
930.477	11783
930.581	12003
930.685	11874
930.79	11741
930.894	11718
930.998	11726
931.103	11813
931.207	11372
931.311	11296
931.415	11261
931.519	11079
931.623	11014
