Data from test_V78500241_1405.txt Node
Date: Fri Mar 25 15:19:38 CST 2022
User: usil
Spectrometer: V785-0024
Trigger mode: 0
Integration Time (sec): 4.000000E-1
Scans to average: 1
Nonlinearity correction enabled: false
Boxcar width: 0
Storing dark spectrum: false
XAxis mode: Wavelengths
Number of Pixels in Spectrum: 1024
>>>>>Begin Spectral Data<<<<<
801.071	28090
801.214	27926
801.356	27785
801.499	27739
801.641	27496
801.783	27663
801.926	27534
802.068	27667
802.211	27622
802.353	27397
802.496	27176
802.638	27116
802.78	27211
802.923	27211
803.065	27131
803.208	27176
803.35	27169
803.492	27199
803.635	27355
803.777	27264
803.919	27469
804.061	27739
804.204	27450
804.346	27332
804.488	27275
804.63	27344
804.773	27389
804.915	27447
805.057	27561
805.199	27435
805.341	27519
805.483	27679
805.626	27561
805.768	27344
805.91	27720
806.052	27576
806.194	27374
806.336	27774
806.478	27663
806.62	27717
806.762	27698
806.904	27930
807.046	28074
807.188	28013
807.33	27975
807.472	28181
807.614	27903
807.756	28002
807.898	27816
808.04	27755
808.182	27739
808.324	27846
808.465	27800
808.607	28105
808.749	28287
808.891	28352
809.033	28584
809.174	28169
809.316	28265
809.458	28257
809.6	28234
809.741	28352
809.883	28379
810.025	28577
810.166	28584
810.308	28569
810.45	28546
810.591	28455
810.733	28375
810.875	28215
811.016	28116
811.158	28120
811.299	28341
811.441	28314
811.582	28223
811.724	28352
811.865	28295
812.007	28188
812.148	28322
812.29	28394
812.431	28440
812.573	28622
812.714	28645
812.855	28668
812.997	28869
813.138	28904
813.279	28919
813.421	28881
813.562	28885
813.703	28561
813.845	28424
813.986	28200
814.127	28067
814.268	28032
814.41	27956
814.551	27911
814.692	28048
814.833	27869
814.974	27884
815.115	28032
815.256	27835
815.397	27861
815.539	27861
815.68	27557
815.821	27530
815.962	27755
816.103	27690
816.244	27507
816.385	27469
816.526	27538
816.666	27268
816.807	27195
816.948	27233
817.089	27329
817.23	27332
817.371	27260
817.512	27192
817.653	27142
817.793	27233
817.934	27310
818.075	27237
818.216	27264
818.356	27226
818.497	27157
818.638	27047
818.778	26876
818.919	27005
819.06	26982
819.2	27119
819.341	27218
819.481	27313
819.622	27386
819.762	27618
819.903	27420
820.043	27549
820.184	27420
820.324	27294
820.465	27473
820.605	27363
820.746	27378
820.886	27131
821.026	27397
821.167	27165
821.307	27412
821.447	27226
821.588	27165
821.728	27017
821.868	26842
822.008	26781
822.149	26724
822.289	26598
822.429	26469
822.569	26370
822.709	26305
822.849	26351
822.99	26278
823.13	26157
823.27	26115
823.41	26077
823.55	25890
823.69	26024
823.83	26096
823.97	26027
824.11	25841
824.25	25753
824.389	25833
824.529	25864
824.669	25879
824.809	25966
824.949	26069
825.089	25898
825.228	25788
825.368	25731
825.508	25727
825.648	25708
825.787	25788
825.927	25761
826.067	25731
826.206	25738
826.346	25807
826.485	25784
826.625	25723
826.765	25852
826.904	25639
827.044	25518
827.183	25460
827.323	25384
827.462	25419
827.601	25407
827.741	25502
827.88	25449
828.02	25324
828.159	25350
828.298	25365
828.437	25476
828.577	25190
828.716	25388
828.855	25289
828.994	25122
829.134	25114
829.273	25168
829.412	25110
829.551	24943
829.69	25091
829.829	25171
829.968	25175
830.107	25091
830.246	25034
830.385	25004
830.524	24985
830.663	24840
830.802	24871
830.941	24760
831.08	24669
831.219	24951
831.357	24806
831.496	24905
831.635	24661
831.774	24597
831.913	24642
832.051	24494
832.19	24467
832.329	24536
832.467	24532
832.606	24376
832.744	24353
832.883	24357
833.022	24350
833.16	24296
833.299	24445
833.437	24437
833.576	24380
833.714	24483
833.852	24448
833.991	24437
834.129	24551
834.267	24448
834.406	24399
834.544	24376
834.682	24456
834.821	24418
834.959	24612
835.097	24369
835.235	24593
835.373	24540
835.511	24418
835.65	24194
835.788	24292
835.926	24163
836.064	24068
836.202	24239
836.34	24205
836.478	24361
836.615	24292
836.753	24232
836.891	24270
837.029	24327
837.167	24159
837.305	24155
837.443	24106
837.58	24213
837.718	24190
837.856	24068
837.993	24064
838.131	24087
838.269	24053
838.406	23977
838.544	23984
838.681	23779
838.819	23699
838.956	23695
839.094	23703
839.231	23661
839.369	23821
839.506	23965
839.643	23813
839.781	23528
839.918	23528
840.055	23604
840.193	23539
840.33	23703
840.467	23547
840.604	23490
840.742	23699
840.879	23387
841.016	23512
841.153	23539
841.29	23585
841.427	23410
841.564	23414
841.701	23638
841.838	23455
841.975	23372
842.112	23410
842.249	23406
842.385	23280
842.522	23414
842.659	23250
842.796	23277
842.933	23288
843.069	23197
843.206	23269
843.343	23341
843.479	23151
843.616	23261
843.752	23064
843.889	23029
844.025	23250
844.162	23052
844.298	23159
844.435	23033
844.571	23102
844.708	23052
844.844	23212
844.98	23204
845.117	23109
845.253	22991
845.389	22904
845.525	23025
845.661	22824
845.798	22763
845.934	22816
846.07	22752
846.206	22767
846.342	22790
846.478	22717
846.614	22424
846.75	22421
846.886	22462
847.022	22489
847.158	22542
847.294	22519
847.429	22546
847.565	22512
847.701	22809
847.837	22246
847.972	22238
848.108	22268
848.244	22341
848.379	22086
848.515	22181
848.65	22120
848.786	22162
848.921	22128
849.057	22188
849.192	22211
849.328	22097
849.463	22116
849.598	22017
849.734	21956
849.869	21964
850.004	21770
850.14	21934
850.275	21915
850.41	21838
850.545	21774
850.68	21804
850.815	21979
850.95	21846
851.085	21968
851.22	22048
851.355	21956
851.49	21789
851.625	21808
851.76	21812
851.895	21778
852.03	21717
852.165	21907
852.299	21835
852.434	21869
852.569	21827
852.703	21778
852.838	21926
852.973	21964
853.107	21960
853.242	21614
853.376	21564
853.511	21705
853.645	21599
853.78	21724
853.914	21705
854.048	21629
854.183	21690
854.317	21637
854.451	21926
854.585	21633
854.72	21644
854.854	21564
854.988	21610
855.122	21686
855.256	21595
855.39	21595
855.524	21732
855.658	21724
855.792	21603
855.926	21732
856.06	21633
856.194	21732
856.327	21682
856.461	21652
856.595	21728
856.729	21625
856.862	21831
856.996	21770
857.13	21682
857.263	21797
857.397	21751
857.53	21576
857.664	21732
857.797	21770
857.931	21694
858.064	21671
858.197	21717
858.331	21477
858.464	21610
858.597	21469
858.731	21663
858.864	21549
858.997	21526
859.13	21682
859.263	21663
859.396	21766
859.529	21622
859.662	21671
859.795	21568
859.928	21739
860.061	21618
860.194	21892
860.327	21671
860.46	21705
860.592	21884
860.725	21850
860.858	21739
860.99	21694
861.123	21595
861.256	21580
861.388	21671
861.521	22253
861.653	21439
861.786	21481
861.918	21420
862.05	21553
862.183	21561
862.315	21618
862.447	21679
862.58	21431
862.712	21367
862.844	21272
862.976	21454
863.108	21374
863.24	21705
863.372	21294
863.504	21408
863.636	21344
863.768	21298
863.9	21405
864.032	21112
864.164	21408
864.296	21306
864.428	21431
864.559	21439
864.691	21435
864.823	21450
864.954	21416
865.086	21211
865.217	21325
865.349	21184
865.48	21192
865.612	21203
865.743	21397
865.875	21165
866.006	21146
866.137	21241
866.269	21226
866.4	21298
866.531	21146
866.662	21013
866.793	21195
866.924	21195
867.055	21161
867.186	21123
867.317	21195
867.448	21028
867.579	21135
867.71	21173
867.841	21119
867.972	21260
868.103	21287
868.233	21203
868.364	21214
868.495	21298
868.625	21393
868.756	21618
868.886	21340
869.017	21386
869.147	21629
869.278	21610
869.408	21507
869.539	21538
869.669	21561
869.799	21519
869.929	21671
870.06	21576
870.19	21781
870.32	21610
870.45	21797
870.58	21842
870.71	21793
870.84	21907
870.97	21789
871.1	21679
871.23	21945
871.36	21930
871.489	21880
871.619	22040
871.749	21922
871.879	22036
872.008	22143
872.138	21991
872.267	22006
872.397	22017
872.526	21827
872.656	21880
872.785	21850
872.915	22078
873.044	22154
873.173	22051
873.303	22177
873.432	22086
873.561	22253
873.69	22192
873.819	22048
873.948	22086
874.077	22013
874.206	22063
874.335	21983
874.464	21949
874.593	22211
874.722	22109
874.851	22169
874.979	22253
875.108	22246
875.237	22246
875.365	22265
875.494	22196
875.623	22337
875.751	22219
875.88	22272
876.008	22382
876.136	22512
876.265	22618
876.393	22759
876.521	22752
876.65	22694
876.778	22641
876.906	22622
877.034	22592
877.162	22577
877.29	22603
877.418	22626
877.546	22599
877.674	22531
877.802	22516
877.93	22653
878.058	22557
878.185	22531
878.313	22611
878.441	22504
878.568	22356
878.696	22512
878.824	22615
878.951	22672
879.079	22847
879.206	22942
879.333	22797
879.461	22550
879.588	22809
879.715	22831
879.842	22938
879.97	22649
880.097	22519
880.224	22417
880.351	22413
880.478	22402
880.605	22459
880.732	22371
880.859	22653
880.986	22428
881.112	22382
881.239	22333
881.366	22276
881.493	22025
881.619	21994
881.746	22067
881.872	21975
881.999	21972
882.125	21945
882.252	22006
882.378	21983
882.505	22150
882.631	21762
882.757	21720
882.883	21865
883.01	21663
883.136	21663
883.262	21568
883.388	21561
883.514	21690
883.64	21618
883.766	21622
883.892	21397
884.018	21378
884.143	21618
884.269	21694
884.395	21477
884.52	21283
884.646	21344
884.772	21329
884.897	21317
885.023	21340
885.148	21538
885.274	21458
885.399	21515
885.524	21355
885.65	21302
885.775	21329
885.9	21256
886.025	21405
886.15	21386
886.275	21218
886.4	21180
886.525	21332
886.65	21310
886.775	21142
886.9	21416
887.025	21526
887.149	21195
887.274	21180
887.399	21070
887.523	21005
887.648	21055
887.773	21096
887.897	21150
888.021	21112
888.146	21039
888.27	21142
888.395	21252
888.519	21074
888.643	21047
888.767	21249
888.891	20933
889.015	20868
889.139	20826
889.263	20861
889.387	20998
889.511	21085
889.635	20933
889.759	20838
889.883	20754
890.006	20807
890.13	21039
890.254	20887
890.377	20758
890.501	20629
890.624	20598
890.748	20575
890.871	20442
890.995	20454
891.118	20423
891.241	20495
891.364	20351
891.488	20537
891.611	20541
891.734	20366
891.857	20465
891.98	20465
892.103	20545
892.226	20476
892.349	20415
892.471	20309
892.594	20400
892.717	20339
892.839	20450
892.962	20366
893.085	20511
893.207	20301
893.33	20259
893.452	20199
893.575	20366
893.697	20309
893.819	20476
893.941	20438
894.064	20408
894.186	20336
894.308	20187
894.43	20358
894.552	20522
894.674	20484
894.796	20237
894.918	20168
895.04	20275
895.161	20408
895.283	20393
895.405	20248
895.526	20301
895.648	20301
895.769	20431
895.891	20339
896.012	20393
896.134	20381
896.255	20343
896.376	20237
896.498	20313
896.619	20343
896.74	20336
896.861	20476
896.982	20651
897.103	20788
897.224	20617
897.345	20495
897.466	20636
897.587	20533
897.708	20598
897.828	20571
897.949	20518
898.07	20419
898.19	20495
898.311	20609
898.431	20564
898.552	20629
898.672	20625
898.792	20735
898.913	20579
899.033	20465
899.153	20336
899.273	20218
899.393	20301
899.513	20317
899.633	20275
899.753	20332
899.873	20210
899.993	20488
900.113	20199
900.232	20290
900.352	20229
900.472	20256
900.591	20107
900.711	20138
900.83	19970
900.95	20252
901.069	20202
901.189	19989
901.308	19750
901.427	19616
901.546	19799
901.665	19712
901.784	19635
901.904	19647
902.023	19438
902.141	19327
902.26	19141
902.379	19339
902.498	19217
902.617	19202
902.735	19270
902.854	19194
902.973	19065
903.091	18970
903.21	18863
903.328	18863
903.446	18814
903.565	18791
903.683	18692
903.801	18551
903.919	18525
904.038	18654
904.156	18407
904.274	18551
904.392	18399
904.51	18403
904.627	18422
904.745	18464
904.863	18521
904.981	18190
905.098	18174
905.216	18068
905.334	18174
905.451	18155
905.569	18129
905.686	18213
905.803	18133
905.921	17931
906.038	17988
906.155	17901
906.272	17779
906.389	17889
906.506	17596
906.623	17649
906.74	17585
906.857	17501
906.974	17520
907.091	17627
907.208	17581
907.324	17718
907.441	17596
907.557	17360
907.674	17356
907.79	17395
907.907	17383
908.023	17330
908.139	17360
908.256	17265
908.372	17197
908.488	17113
908.604	17048
908.72	17045
908.836	17060
908.952	17064
909.068	17067
909.184	17181
909.3	17033
909.415	17083
909.531	17181
909.647	16881
909.762	16805
909.878	16675
909.993	16797
910.108	16717
910.224	16744
910.339	16774
910.454	16577
910.57	16565
910.685	16474
910.8	16835
910.915	16660
911.03	16611
911.145	16344
911.259	16367
911.374	16352
911.489	16284
911.604	16204
911.718	16010
911.833	16177
911.947	16036
912.062	15861
912.176	16051
912.291	16093
912.405	16010
912.519	16185
912.633	16337
912.748	16185
912.862	16021
912.976	15956
913.09	15816
913.204	15956
913.318	15956
913.431	16063
913.545	15888
913.659	15945
913.772	15861
913.886	15713
914	15690
914.113	15770
914.226	15793
914.34	15713
914.453	15584
914.566	15686
914.68	15599
914.793	15625
914.906	15348
915.019	15252
915.132	15287
915.245	15344
915.358	15306
915.47	15199
915.583	15348
915.696	15317
915.809	15340
915.921	15389
916.034	15329
916.146	15222
916.259	15252
916.371	15154
916.483	15241
916.595	15192
916.708	15116
916.82	15173
916.932	15104
917.044	15085
917.156	15074
917.268	14925
917.38	14929
917.491	15074
917.603	14986
917.715	15009
917.826	15058
917.938	14944
918.049	14883
918.161	14902
918.272	15009
918.384	15100
918.495	14765
918.606	14861
918.717	14636
918.828	14792
918.939	14758
919.05	14613
919.161	14636
919.272	14442
919.383	14644
919.494	14708
919.604	14872
919.715	14686
919.826	14625
919.936	14655
920.047	14788
920.157	14727
920.267	14788
920.378	14762
920.488	14636
920.598	14807
920.708	14895
920.818	14773
920.928	14758
921.038	14948
921.148	14994
921.258	14522
921.368	14488
921.477	14473
921.587	14484
921.697	14221
921.806	14454
921.916	14229
922.025	14176
922.134	14024
922.244	14088
922.353	14073
922.462	13921
922.571	13837
922.68	13769
922.789	13693
922.898	13715
923.007	13609
923.116	13537
923.224	13693
923.333	13639
923.442	13548
923.55	13464
923.659	13457
923.767	13506
923.876	13514
923.984	13540
924.092	13373
924.201	13460
924.309	13460
924.417	13441
924.525	13415
924.633	13430
924.741	14050
924.849	13202
924.956	13282
925.064	13076
925.172	13034
925.279	13065
925.387	13141
925.494	13099
925.602	13145
925.709	13129
925.816	12913
925.924	13053
926.031	13114
926.138	12920
926.245	13057
926.352	12981
926.459	13069
926.566	13194
926.673	13038
926.779	12852
926.886	12909
926.993	12783
927.099	12662
927.206	12620
927.312	12650
927.419	12753
927.525	12570
927.631	12623
927.737	12486
927.843	12506
927.95	12429
928.056	12486
928.162	12483
928.267	12540
928.373	13156
928.479	12658
928.585	12410
928.69	12384
928.796	12399
928.901	12323
929.007	12186
929.112	12388
929.218	12292
929.323	12239
929.428	12224
929.533	12304
929.638	12171
929.743	12201
929.848	12167
929.953	12045
930.058	12079
930.163	11794
930.267	11855
930.372	12034
930.477	11942
930.581	12030
930.685	11946
930.79	11764
930.894	11809
930.998	11668
931.103	11798
931.207	11524
931.311	11532
931.415	11372
931.519	11204
931.623	11151
