Data from test_V78500241_3379.txt Node
Date: Fri Mar 25 15:33:23 CST 2022
User: usil
Spectrometer: V785-0024
Trigger mode: 0
Integration Time (sec): 4.000000E-1
Scans to average: 1
Nonlinearity correction enabled: false
Boxcar width: 0
Storing dark spectrum: false
XAxis mode: Wavelengths
Number of Pixels in Spectrum: 1024
>>>>>Begin Spectral Data<<<<<
801.071	27317
801.214	27218
801.356	26982
801.499	27142
801.641	26887
801.783	26796
801.926	26861
802.068	26754
802.211	26739
802.353	26720
802.496	26609
802.638	26446
802.78	26446
802.923	26362
803.065	26206
803.208	26385
803.35	26370
803.492	26499
803.635	26571
803.777	26530
803.919	26682
804.061	27032
804.204	26537
804.346	26507
804.488	26476
804.63	26632
804.773	26503
804.915	26617
805.057	26663
805.199	26332
805.341	26629
805.483	26617
805.626	26773
805.768	26655
805.91	26834
806.052	26785
806.194	26705
806.336	26765
806.478	26769
806.62	26659
806.762	26861
806.904	26937
807.046	27192
807.188	27211
807.33	27176
807.472	27222
807.614	27028
807.756	27020
807.898	26921
808.04	26956
808.182	26815
808.324	26948
808.465	27032
808.607	27195
808.749	27329
808.891	27218
809.033	27443
809.174	27443
809.316	27348
809.458	27291
809.6	27233
809.741	27435
809.883	27405
810.025	27526
810.166	27477
810.308	27595
810.45	27561
810.591	27504
810.733	27336
810.875	27378
811.016	27275
811.158	27017
811.299	27367
811.441	27439
811.582	27416
811.724	27310
811.865	27096
812.007	27192
812.148	27184
812.29	27294
812.431	27450
812.573	27526
812.714	27705
812.855	27641
812.997	27869
813.138	27937
813.279	27819
813.421	27861
813.562	27633
813.703	27633
813.845	27427
813.986	27077
814.127	26963
814.268	26979
814.41	26895
814.551	26956
814.692	27070
814.833	26914
814.974	26914
815.115	26956
815.256	26762
815.397	26724
815.539	26815
815.68	26758
815.821	26632
815.962	26697
816.103	26781
816.244	26507
816.385	26602
816.526	26450
816.666	26229
816.807	26301
816.948	26355
817.089	26339
817.23	26180
817.371	26100
817.512	26126
817.653	26275
817.793	26195
817.934	26263
818.075	26339
818.216	26126
818.356	26096
818.497	26122
818.638	25807
818.778	26039
818.919	25757
819.06	26016
819.2	26134
819.341	26077
819.481	26157
819.622	26355
819.762	26522
819.903	26499
820.043	26358
820.184	26423
820.324	26294
820.465	26465
820.605	26370
820.746	26199
820.886	26176
821.026	26237
821.167	26164
821.307	26187
821.447	26275
821.588	26233
821.728	26027
821.868	25757
822.008	25578
822.149	25666
822.289	25738
822.429	25343
822.569	25236
822.709	25213
822.849	25129
822.99	25198
823.13	25232
823.27	25038
823.41	24996
823.55	24878
823.69	24958
823.83	25004
823.97	24871
824.11	24825
824.25	24795
824.389	24772
824.529	24943
824.669	24962
824.809	24992
824.949	24924
825.089	24833
825.228	24875
825.368	24715
825.508	24688
825.648	24677
825.787	24692
825.927	24722
826.067	24669
826.206	24547
826.346	24776
826.485	24631
826.625	24547
826.765	24814
826.904	24654
827.044	24498
827.183	24429
827.323	24315
827.462	24407
827.601	24323
827.741	24357
827.88	24410
828.02	24308
828.159	24304
828.298	24376
828.437	24445
828.577	24277
828.716	24422
828.855	24273
828.994	24057
829.134	24152
829.273	24148
829.412	24129
829.551	24022
829.69	24030
829.829	24125
829.968	24216
830.107	24091
830.246	24190
830.385	24076
830.524	24030
830.663	23904
830.802	23840
830.941	23882
831.08	23741
831.219	23756
831.357	23775
831.496	23965
831.635	23760
831.774	23756
831.913	23589
832.051	23539
832.19	23414
832.329	23474
832.467	23349
832.606	23364
832.744	23288
832.883	23307
833.022	23387
833.16	23459
833.299	23486
833.437	23505
833.576	23433
833.714	23490
833.852	23509
833.991	23570
834.129	23558
834.267	23589
834.406	23486
834.544	23490
834.682	23596
834.821	23425
834.959	23653
835.097	23364
835.235	23611
835.373	23493
835.511	23577
835.65	23322
835.788	23417
835.926	23181
836.064	23159
836.202	23105
836.34	23273
836.478	23364
836.615	23197
836.753	23383
836.891	23269
837.029	23280
837.167	23307
837.305	23246
837.443	23254
837.58	23067
837.718	23220
837.856	23162
837.993	23052
838.131	23220
838.269	23044
838.406	23121
838.544	22934
838.681	22873
838.819	22816
838.956	22641
839.094	22694
839.231	22763
839.369	22835
839.506	22915
839.643	22873
839.781	22622
839.918	22607
840.055	22630
840.193	22622
840.33	22622
840.467	22554
840.604	22691
840.742	22839
840.879	22538
841.016	22519
841.153	22405
841.29	22816
841.427	22523
841.564	22573
841.701	22527
841.838	22531
841.975	22470
842.112	22577
842.249	22402
842.385	22287
842.522	22713
842.659	22299
842.796	22413
842.933	22246
843.069	22139
843.206	22268
843.343	22417
843.479	22341
843.616	22337
843.752	22101
843.889	22036
844.025	22284
844.162	22154
844.298	22219
844.435	22109
844.571	22131
844.708	22169
844.844	22341
844.98	22215
845.117	22185
845.253	22025
845.389	21991
845.525	21964
845.661	21972
845.798	21846
845.934	21895
846.07	21823
846.206	21915
846.342	21926
846.478	21888
846.614	21671
846.75	21557
846.886	21542
847.022	21583
847.158	21561
847.294	21511
847.429	21614
847.565	21542
847.701	21915
847.837	21294
847.972	21275
848.108	21249
848.244	21348
848.379	21241
848.515	21203
848.65	21279
848.786	21154
848.921	21112
849.057	21351
849.192	21268
849.328	21176
849.463	21169
849.598	21180
849.734	21100
849.869	20971
850.004	20883
850.14	20914
850.275	20960
850.41	20895
850.545	20838
850.68	20762
850.815	20979
850.95	20975
851.085	21154
851.22	21013
851.355	21001
851.49	20842
851.625	20872
851.76	20857
851.895	20849
852.03	20876
852.165	20868
852.299	21066
852.434	21047
852.569	20982
852.703	20933
852.838	21009
852.973	21032
853.107	21039
853.242	20883
853.376	20762
853.511	20613
853.645	20804
853.78	20960
853.914	20731
854.048	20701
854.183	20781
854.317	20872
854.451	21055
854.585	20796
854.72	20720
854.854	20861
854.988	20705
855.122	20762
855.256	20625
855.39	20686
855.524	20830
855.658	20864
855.792	20720
855.926	20921
856.06	20807
856.194	20864
856.327	20731
856.461	20693
856.595	20720
856.729	20735
856.862	20937
856.996	20815
857.13	20785
857.263	20876
857.397	20853
857.53	20838
857.664	20906
857.797	20815
857.931	20895
858.064	20868
858.197	20796
858.331	20651
858.464	20731
858.597	20720
858.731	20788
858.864	20880
858.997	20842
859.13	20899
859.263	20682
859.396	20880
859.529	20868
859.662	20765
859.795	20849
859.928	20769
860.061	20956
860.194	20891
860.327	20807
860.46	20800
860.592	20849
860.725	20906
860.858	20880
860.99	20838
861.123	20667
861.256	20701
861.388	20811
861.521	21454
861.653	20568
861.786	20560
861.918	20602
862.05	20701
862.183	20819
862.315	20689
862.447	20819
862.58	20788
862.712	20545
862.844	20484
862.976	20667
863.108	20537
863.24	20910
863.372	20541
863.504	20507
863.636	20495
863.768	20682
863.9	20617
864.032	20465
864.164	20396
864.296	20670
864.428	20659
864.559	20632
864.691	20708
864.823	20446
864.954	20465
865.086	20518
865.217	20446
865.349	20404
865.48	20381
865.612	20412
865.743	20488
865.875	20355
866.006	20324
866.137	20313
866.269	20358
866.4	20298
866.531	20237
866.662	20377
866.793	20313
866.924	20362
867.055	20362
867.186	20427
867.317	20301
867.448	20233
867.579	20237
867.71	20225
867.841	20305
867.972	20309
868.103	20248
868.233	20362
868.364	20400
868.495	20431
868.625	20552
868.756	20602
868.886	20511
869.017	20503
869.147	20667
869.278	20613
869.408	20629
869.539	20632
869.669	20651
869.799	20693
869.929	20716
870.06	20663
870.19	20880
870.32	20640
870.45	20887
870.58	20948
870.71	21127
870.84	21116
870.97	20891
871.1	20914
871.23	21123
871.36	21203
871.489	20952
871.619	21157
871.749	21138
871.879	21199
872.008	21367
872.138	21249
872.267	21268
872.397	21036
872.526	21100
872.656	21009
872.785	21074
872.915	21203
873.044	21195
873.173	21199
873.303	21321
873.432	21287
873.561	21386
873.69	21313
873.819	21127
873.948	21298
874.077	21138
874.206	21157
874.335	21195
874.464	21329
874.593	21397
874.722	21458
874.851	21481
874.979	21435
875.108	21439
875.237	21351
875.365	21268
875.494	21370
875.623	21473
875.751	21393
875.88	21519
876.008	21542
876.136	21724
876.265	21873
876.393	21968
876.521	21979
876.65	21994
876.778	21915
876.906	21854
877.034	21789
877.162	21838
877.29	21800
877.418	21808
877.546	21873
877.674	21629
877.802	21789
877.93	21793
878.058	21808
878.185	21751
878.313	21739
878.441	21789
878.568	21622
878.696	21644
878.824	21869
878.951	21876
879.079	21915
879.206	22109
879.333	21956
879.461	21865
879.588	21926
879.715	21903
879.842	21983
879.97	21876
880.097	21625
880.224	21656
880.351	21637
880.478	21641
880.605	21656
880.732	21663
880.859	21869
880.986	21553
881.112	21603
881.239	21519
881.366	21283
881.493	21268
881.619	21256
881.746	21359
881.872	21252
881.999	21260
882.125	21157
882.252	21294
882.378	21116
882.505	21287
882.631	21119
882.757	20986
882.883	21020
883.01	21142
883.136	20899
883.262	20720
883.388	20632
883.514	20960
883.64	21013
883.766	20864
883.892	20667
884.018	20792
884.143	20796
884.269	20979
884.395	20629
884.52	20549
884.646	20697
884.772	20632
884.897	20446
885.023	20545
885.148	20606
885.274	20667
885.399	20746
885.524	20632
885.65	20617
885.775	20590
885.9	20545
886.025	20674
886.15	20674
886.275	20408
886.4	20431
886.525	20590
886.65	20514
886.775	20419
886.9	20632
887.025	20811
887.149	20434
887.274	20408
887.399	20320
887.523	20362
887.648	20305
887.773	20252
887.897	20385
888.021	20278
888.146	20339
888.27	20499
888.395	20446
888.519	20377
888.643	20282
888.767	20427
888.891	20210
889.015	20214
889.139	20210
889.263	20210
889.387	20214
889.511	20423
889.635	20259
889.759	20172
889.883	20115
890.006	20119
890.13	20138
890.254	20145
890.377	19989
890.501	19902
890.624	19921
890.748	19852
890.871	19769
890.995	19704
891.118	19670
891.241	19769
891.364	19742
891.488	19814
891.611	19772
891.734	19746
891.857	19746
891.98	19807
892.103	19693
892.226	19837
892.349	19761
892.471	19480
892.594	19704
892.717	19658
892.839	19540
892.962	19594
893.085	19689
893.207	19643
893.33	19544
893.452	19586
893.575	19616
893.697	19651
893.819	19833
893.941	19883
894.064	19753
894.186	19472
894.308	19529
894.43	19647
894.552	19807
894.674	19578
894.796	19613
894.918	19605
895.04	19537
895.161	19693
895.283	19601
895.405	19548
895.526	19753
895.648	19556
895.769	19628
895.891	19746
896.012	19708
896.134	19643
896.255	19696
896.376	19674
896.498	19658
896.619	19635
896.74	19632
896.861	19689
896.982	19928
897.103	20069
897.224	19879
897.345	19860
897.466	19666
897.587	19856
897.708	19944
897.828	19795
897.949	19723
898.07	19700
898.19	19715
898.311	19902
898.431	19723
898.552	19898
898.672	19978
898.792	19776
898.913	19951
899.033	19772
899.153	19601
899.273	19502
899.393	19712
899.513	19632
899.633	19723
899.753	19559
899.873	19483
899.993	19689
900.113	19544
900.232	19609
900.352	19529
900.472	19468
900.591	19480
900.711	19343
900.83	19335
900.95	19335
901.069	19510
901.189	19240
901.308	19031
901.427	18989
901.546	18954
901.665	19042
901.784	19076
901.904	18829
902.023	18852
902.141	18597
902.26	18502
902.379	18627
902.498	18528
902.617	18361
902.735	18570
902.854	18494
902.973	18407
903.091	18330
903.21	18159
903.328	18098
903.446	18041
903.565	17939
903.683	17954
903.801	17954
903.919	17878
904.038	17901
904.156	17809
904.274	17840
904.392	17714
904.51	17741
904.627	17642
904.745	17802
904.863	17790
904.981	17619
905.098	17459
905.216	17429
905.334	17501
905.451	17452
905.569	17455
905.686	17497
905.803	17360
905.921	17166
906.038	17227
906.155	17311
906.272	17174
906.389	17136
906.506	17010
906.623	17022
906.74	16957
906.857	16930
906.974	16987
907.091	17006
907.208	17079
907.324	16961
907.441	16953
907.557	16778
907.674	16790
907.79	16622
907.907	16713
908.023	16664
908.139	16809
908.256	16679
908.372	16584
908.488	16561
908.604	16500
908.72	16428
908.836	16443
908.952	16375
909.068	16432
909.184	16550
909.3	16459
909.415	16512
909.531	16371
909.647	16215
909.762	16200
909.878	16124
909.993	16067
910.108	16143
910.224	16112
910.339	16135
910.454	16032
910.57	16006
910.685	15884
910.8	16169
910.915	16200
911.03	15937
911.145	15774
911.259	15732
911.374	15599
911.489	15576
911.604	15675
911.718	15523
911.833	15367
911.947	15447
912.062	15313
912.176	15515
912.291	15469
912.405	15507
912.519	15667
912.633	15690
912.748	15572
912.862	15515
912.976	15374
913.09	15146
913.204	15192
913.318	15329
913.431	15412
913.545	15363
913.659	15412
913.772	15329
913.886	15176
914	15154
914.113	15241
914.226	15249
914.34	15260
914.453	15055
914.566	15062
914.68	15017
914.793	14990
914.906	14864
915.019	14724
915.132	14629
915.245	14735
915.358	14693
915.47	14754
915.583	14697
915.696	14743
915.809	14849
915.921	14785
916.034	14716
916.146	14533
916.259	14670
916.371	14777
916.483	14621
916.595	14648
916.708	14530
916.82	14632
916.932	14610
917.044	14492
917.156	14484
917.268	14408
917.38	14400
917.491	14396
917.603	14415
917.715	14488
917.826	14507
917.938	14423
918.049	14195
918.161	14362
918.272	14446
918.384	14461
918.495	14347
918.606	14210
918.717	14142
918.828	14103
918.939	14157
919.05	14123
919.161	14187
919.272	13974
919.383	14020
919.494	14199
919.604	14336
919.715	14100
919.826	14046
919.936	14115
920.047	14123
920.157	14172
920.267	14298
920.378	14157
920.488	14096
920.598	14263
920.708	14419
920.818	14263
920.928	14282
921.038	14438
921.148	14393
921.258	14031
921.368	14020
921.477	13830
921.587	13871
921.697	13780
921.806	13890
921.916	13765
922.025	13521
922.134	13502
922.244	13499
922.353	13601
922.462	13445
922.571	13240
922.68	13198
922.789	13110
922.898	13149
923.007	13099
923.116	13099
923.224	13301
923.333	13110
923.442	13110
923.55	13042
923.659	13023
923.767	13095
923.876	13023
923.984	13050
924.092	12837
924.201	12981
924.309	12882
924.417	12932
924.525	12882
924.633	12863
924.741	13788
924.849	12688
924.956	12722
925.064	12502
925.172	12585
925.279	12673
925.387	12650
925.494	12589
925.602	12654
925.709	12635
925.816	12544
925.924	12547
926.031	12612
926.138	12555
926.245	12627
926.352	12479
926.459	12566
926.566	12734
926.673	12445
926.779	12418
926.886	12384
926.993	12140
927.099	12182
927.206	12091
927.312	12125
927.419	12197
927.525	12251
927.631	12247
927.737	12076
927.843	12041
927.95	11973
928.056	11999
928.162	12030
928.267	12053
928.373	12582
928.479	12083
928.585	11897
928.69	11980
928.796	12079
928.901	11847
929.007	11779
929.112	11923
929.218	11752
929.323	11764
929.428	11737
929.533	11859
929.638	11714
929.743	11646
929.848	11726
929.953	11741
930.058	11547
930.163	11452
930.267	11467
930.372	11543
930.477	11425
930.581	11646
930.685	11455
930.79	11307
930.894	11406
930.998	11307
931.103	11372
931.207	11102
931.311	11098
931.415	10934
931.519	10767
931.623	10721
