Data from test_V78500241_3457.txt Node
Date: Fri Mar 25 15:33:55 CST 2022
User: usil
Spectrometer: V785-0024
Trigger mode: 0
Integration Time (sec): 4.000000E-1
Scans to average: 1
Nonlinearity correction enabled: false
Boxcar width: 0
Storing dark spectrum: false
XAxis mode: Wavelengths
Number of Pixels in Spectrum: 1024
>>>>>Begin Spectral Data<<<<<
801.071	27211
801.214	27199
801.356	26819
801.499	26899
801.641	26777
801.783	26731
801.926	26800
802.068	26724
802.211	26667
802.353	26571
802.496	26473
802.638	26503
802.78	26366
802.923	26282
803.065	26233
803.208	26206
803.35	26419
803.492	26526
803.635	26583
803.777	26469
803.919	26606
804.061	26895
804.204	26594
804.346	26552
804.488	26434
804.63	26526
804.773	26594
804.915	26522
805.057	26644
805.199	26347
805.341	26514
805.483	26609
805.626	26507
805.768	26339
805.91	26518
806.052	26609
806.194	26636
806.336	26804
806.478	26617
806.62	26655
806.762	26739
806.904	26788
807.046	27089
807.188	27123
807.33	26956
807.472	27051
807.614	27062
807.756	27017
807.898	26739
808.04	26872
808.182	26739
808.324	26864
808.465	27036
808.607	27135
808.749	27211
808.891	27332
809.033	27310
809.174	27340
809.316	27359
809.458	27203
809.6	27180
809.741	27207
809.883	27363
810.025	27542
810.166	27389
810.308	27488
810.45	27363
810.591	27542
810.733	27359
810.875	27169
811.016	27119
811.158	27093
811.299	27363
811.441	27370
811.582	27313
811.724	27214
811.865	27096
812.007	27195
812.148	27146
812.29	27275
812.431	27443
812.573	27458
812.714	27667
812.855	27755
812.997	27945
813.138	27880
813.279	27876
813.421	27682
813.562	27671
813.703	27450
813.845	27435
813.986	27116
814.127	27051
814.268	26857
814.41	26967
814.551	26899
814.692	26975
814.833	26838
814.974	26811
815.115	26796
815.256	26773
815.397	26754
815.539	26716
815.68	26625
815.821	26659
815.962	26644
816.103	26632
816.244	26492
816.385	26423
816.526	26393
816.666	26191
816.807	26107
816.948	26244
817.089	26301
817.23	26199
817.371	26062
817.512	26027
817.653	26035
817.793	26096
817.934	26020
818.075	26119
818.216	26191
818.356	26088
818.497	25986
818.638	25795
818.778	25712
818.919	25925
819.06	25913
819.2	25997
819.341	26024
819.481	26088
819.622	26263
819.762	26389
819.903	26259
820.043	26294
820.184	26172
820.324	26210
820.465	26191
820.605	26218
820.746	26172
820.886	25890
821.026	26191
821.167	26202
821.307	26077
821.447	26180
821.588	26035
821.728	25799
821.868	25776
822.008	25548
822.149	25521
822.289	25449
822.429	25422
822.569	25194
822.709	25282
822.849	25103
822.99	25110
823.13	24943
823.27	25069
823.41	25004
823.55	24833
823.69	24817
823.83	24894
823.97	24821
824.11	24646
824.25	24688
824.389	24627
824.529	24852
824.669	24650
824.809	24882
824.949	24772
825.089	24825
825.228	24722
825.368	24544
825.508	24555
825.648	24612
825.787	24623
825.927	24661
826.067	24547
826.206	24616
826.346	24612
826.485	24608
826.625	24551
826.765	24783
826.904	24635
827.044	24342
827.183	24403
827.323	24254
827.462	24289
827.601	24315
827.741	24342
827.88	24266
828.02	24285
828.159	24300
828.298	24323
828.437	24228
828.577	24258
828.716	24361
828.855	24076
828.994	24091
829.134	24064
829.273	24011
829.412	23977
829.551	24049
829.69	23965
829.829	24076
829.968	24057
830.107	24220
830.246	24125
830.385	23939
830.524	24018
830.663	23843
830.802	23798
830.941	23642
831.08	23668
831.219	23794
831.357	23703
831.496	23809
831.635	23581
831.774	23611
831.913	23486
832.051	23440
832.19	23383
832.329	23395
832.467	23417
832.606	23265
832.744	23246
832.883	23372
833.022	23242
833.16	23315
833.299	23376
833.437	23356
833.576	23379
833.714	23379
833.852	23341
833.991	23353
834.129	23406
834.267	23421
834.406	23391
834.544	23486
834.682	23387
834.821	23391
834.959	23551
835.097	23368
835.235	23398
835.373	23410
835.511	23296
835.65	23220
835.788	23315
835.926	23124
836.064	22900
836.202	23174
836.34	23136
836.478	23433
836.615	23239
836.753	23204
836.891	23315
837.029	23318
837.167	23166
837.305	23113
837.443	23166
837.58	23086
837.718	23102
837.856	23212
837.993	23067
838.131	23083
838.269	22843
838.406	23075
838.544	22961
838.681	22782
838.819	22596
838.956	22561
839.094	22561
839.231	22645
839.369	22786
839.506	23029
839.643	22755
839.781	22478
839.918	22489
840.055	22691
840.193	22546
840.33	22489
840.467	22554
840.604	22565
840.742	22630
840.879	22367
841.016	22500
841.153	22417
841.29	22527
841.427	22474
841.564	22580
841.701	22459
841.838	22398
841.975	22363
842.112	22272
842.249	22344
842.385	22341
842.522	22466
842.659	22200
842.796	22409
842.933	22382
843.069	22246
843.206	22276
843.343	22276
843.479	22360
843.616	22306
843.752	22029
843.889	22207
844.025	22116
844.162	21983
844.298	22200
844.435	21975
844.571	22013
844.708	22063
844.844	22291
844.98	22173
845.117	22177
845.253	21987
845.389	21903
845.525	21922
845.661	21934
845.798	21804
845.934	21949
846.07	21770
846.206	21774
846.342	21907
846.478	21774
846.614	21606
846.75	21450
846.886	21648
847.022	21553
847.158	21587
847.294	21606
847.429	21515
847.565	21466
847.701	21755
847.837	21268
847.972	21424
848.108	21291
848.244	21272
848.379	21237
848.515	21195
848.65	21173
848.786	21135
848.921	21077
849.057	21256
849.192	21138
849.328	21268
849.463	21199
849.598	21062
849.734	20937
849.869	20960
850.004	20902
850.14	20872
850.275	20811
850.41	20781
850.545	20906
850.68	20838
850.815	20891
850.95	20864
851.085	21055
851.22	20933
851.355	20876
851.49	20880
851.625	20853
851.76	20826
851.895	20746
852.03	20788
852.165	20868
852.299	20880
852.434	21043
852.569	21009
852.703	20830
852.838	21058
852.973	20979
853.107	20864
853.242	20819
853.376	20720
853.511	20492
853.645	20659
853.78	20765
853.914	20575
854.048	20655
854.183	20724
854.317	20705
854.451	20864
854.585	20693
854.72	20746
854.854	20880
854.988	20724
855.122	20750
855.256	20651
855.39	20769
855.524	20785
855.658	20758
855.792	20686
855.926	20754
856.06	20705
856.194	20788
856.327	20663
856.461	20514
856.595	20629
856.729	20731
856.862	20819
856.996	20678
857.13	20686
857.263	20785
857.397	20830
857.53	20785
857.664	20663
857.797	20640
857.931	20800
858.064	20716
858.197	20861
858.331	20655
858.464	20701
858.597	20545
858.731	20644
858.864	20724
858.997	20613
859.13	20720
859.263	20674
859.396	20735
859.529	20663
859.662	20575
859.795	20686
859.928	20648
860.061	20811
860.194	20948
860.327	20769
860.46	20629
860.592	20857
860.725	20921
860.858	20792
860.99	20693
861.123	20541
861.256	20727
861.388	20667
861.521	21374
861.653	20712
861.786	20492
861.918	20522
862.05	20636
862.183	20674
862.315	20602
862.447	20621
862.58	20640
862.712	20457
862.844	20343
862.976	20568
863.108	20514
863.24	20933
863.372	20358
863.504	20374
863.636	20389
863.768	20374
863.9	20549
864.032	20305
864.164	20351
864.296	20545
864.428	20564
864.559	20537
864.691	20537
864.823	20396
864.954	20442
865.086	20450
865.217	20476
865.349	20286
865.48	20351
865.612	20313
865.743	20537
865.875	20298
866.006	20237
866.137	20267
866.269	20385
866.4	20317
866.531	20191
866.662	20267
866.793	20309
866.924	20267
867.055	20400
867.186	20225
867.317	20256
867.448	20130
867.579	20145
867.71	20298
867.841	20202
867.972	20122
868.103	20180
868.233	20374
868.364	20271
868.495	20271
868.625	20564
868.756	20499
868.886	20408
869.017	20526
869.147	20537
869.278	20560
869.408	20461
869.539	20518
869.669	20476
869.799	20575
869.929	20568
870.06	20678
870.19	20834
870.32	20788
870.45	20902
870.58	20948
870.71	21062
870.84	21074
870.97	20876
871.1	20864
871.23	21020
871.36	21005
871.489	20960
871.619	21036
871.749	20967
871.879	21108
872.008	21306
872.138	21131
872.267	21180
872.397	21032
872.526	20960
872.656	20891
872.785	20918
872.915	21192
873.044	21321
873.173	21116
873.303	21188
873.432	21135
873.561	21142
873.69	21108
873.819	21055
873.948	21237
874.077	21123
874.206	21116
874.335	21123
874.464	21340
874.593	21203
874.722	21336
874.851	21435
874.979	21370
875.108	21462
875.237	21408
875.365	21268
875.494	21142
875.623	21393
875.751	21405
875.88	21401
876.008	21557
876.136	21568
876.265	21823
876.393	21956
876.521	21850
876.65	21838
876.778	21778
876.906	21728
877.034	21736
877.162	21778
877.29	21778
877.418	21743
877.546	21819
877.674	21812
877.802	21713
877.93	21759
878.058	21667
878.185	21534
878.313	21709
878.441	21644
878.568	21595
878.696	21724
878.824	21778
878.951	21739
879.079	21835
879.206	22002
879.333	21899
879.461	21724
879.588	21800
879.715	22013
879.842	22002
879.97	21846
880.097	21530
880.224	21580
880.351	21625
880.478	21698
880.605	21450
880.732	21595
880.859	21766
880.986	21545
881.112	21595
881.239	21538
881.366	21363
881.493	21157
881.619	21146
881.746	21066
881.872	21169
881.999	20994
882.125	21085
882.252	21268
882.378	21165
882.505	21112
882.631	20880
882.757	20845
882.883	20971
883.01	20895
883.136	20838
883.262	20792
883.388	20777
883.514	20891
883.64	20861
883.766	20807
883.892	20651
884.018	20849
884.143	20872
884.269	20883
884.395	20636
884.52	20442
884.646	20533
884.772	20362
884.897	20438
885.023	20419
885.148	20571
885.274	20640
885.399	20495
885.524	20522
885.65	20594
885.775	20389
885.9	20503
886.025	20579
886.15	20511
886.275	20446
886.4	20366
886.525	20495
886.65	20339
886.775	20473
886.9	20594
887.025	20590
887.149	20602
887.274	20305
887.399	20149
887.523	20290
887.648	20206
887.773	20115
887.897	20366
888.021	20404
888.146	20142
888.27	20446
888.395	20362
888.519	20290
888.643	20290
888.767	20237
888.891	20206
889.015	20016
889.139	20005
889.263	20001
889.387	20210
889.511	20381
889.635	20142
889.759	19982
889.883	19967
890.006	20073
890.13	20062
890.254	19906
890.377	20035
890.501	19883
890.624	19791
890.748	19875
890.871	19776
890.995	19685
891.118	19559
891.241	19746
891.364	19567
891.488	19791
891.611	19719
891.734	19674
891.857	19727
891.98	19655
892.103	19651
892.226	19563
892.349	19499
892.471	19499
892.594	19578
892.717	19616
892.839	19544
892.962	19601
893.085	19578
893.207	19658
893.33	19430
893.452	19502
893.575	19628
893.697	19468
893.819	19700
893.941	19708
894.064	19655
894.186	19575
894.308	19487
894.43	19689
894.552	19651
894.674	19601
894.796	19472
894.918	19506
895.04	19575
895.161	19506
895.283	19601
895.405	19628
895.526	19609
895.648	19445
895.769	19647
895.891	19571
896.012	19609
896.134	19639
896.255	19670
896.376	19556
896.498	19525
896.619	19750
896.74	19620
896.861	19791
896.982	19963
897.103	20134
897.224	19856
897.345	19826
897.466	19784
897.587	19791
897.708	19917
897.828	19909
897.949	19807
898.07	19708
898.19	19727
898.311	19951
898.431	19746
898.552	19776
898.672	19791
898.792	19963
898.913	19795
899.033	19765
899.153	19662
899.273	19457
899.393	19643
899.513	19632
899.633	19601
899.753	19518
899.873	19525
899.993	19609
900.113	19434
900.232	19453
900.352	19525
900.472	19483
900.591	19289
900.711	19316
900.83	19168
900.95	19388
901.069	19362
901.189	19213
901.308	18935
901.427	18890
901.546	18821
901.665	18962
901.784	19050
901.904	18814
902.023	18787
902.141	18551
902.26	18513
902.379	18525
902.498	18479
902.617	18380
902.735	18509
902.854	18426
902.973	18372
903.091	18041
903.21	18136
903.328	18068
903.446	18083
903.565	17961
903.683	17942
903.801	17923
903.919	17866
904.038	17908
904.156	17684
904.274	17821
904.392	17604
904.51	17661
904.627	17691
904.745	17752
904.863	17668
904.981	17414
905.098	17459
905.216	17345
905.334	17387
905.451	17372
905.569	17406
905.686	17391
905.803	17349
905.921	17079
906.038	17341
906.155	17162
906.272	17033
906.389	17098
906.506	16862
906.623	16919
906.74	16843
906.857	16809
906.974	16801
907.091	16968
907.208	17033
907.324	16930
907.441	16854
907.557	16660
907.674	16656
907.79	16634
907.907	16630
908.023	16660
908.139	16668
908.256	16641
908.372	16656
908.488	16519
908.604	16489
908.72	16424
908.836	16310
908.952	16344
909.068	16481
909.184	16466
909.3	16360
909.415	16455
909.531	16455
909.647	16128
909.762	16078
909.878	16032
909.993	16169
910.108	16082
910.224	16128
910.339	16074
910.454	15880
910.57	16025
910.685	15827
910.8	16223
910.915	16253
911.03	15876
911.145	15778
911.259	15713
911.374	15789
911.489	15648
911.604	15606
911.718	15431
911.833	15492
911.947	15420
912.062	15382
912.176	15504
912.291	15492
912.405	15500
912.519	15698
912.633	15675
912.748	15618
912.862	15477
912.976	15275
913.09	15241
913.204	15291
913.318	15283
913.431	15340
913.545	15344
913.659	15408
913.772	15218
913.886	15157
914	15180
914.113	15173
914.226	15188
914.34	15100
914.453	15032
914.566	15184
914.68	15017
914.793	14994
914.906	14758
915.019	14796
915.132	14689
915.245	14686
915.358	14746
915.47	14739
915.583	14731
915.696	14636
915.809	14830
915.921	14826
916.034	14651
916.146	14549
916.259	14610
916.371	14708
916.483	14686
916.595	14473
916.708	14492
916.82	14587
916.932	14511
917.044	14556
917.156	14423
917.268	14434
917.38	14393
917.491	14454
917.603	14438
917.715	14393
917.826	14533
917.938	14415
918.049	14240
918.161	14309
918.272	14427
918.384	14419
918.495	14343
918.606	14218
918.717	14100
918.828	14126
918.939	14244
919.05	14046
919.161	14107
919.272	13986
919.383	14039
919.494	14206
919.604	14240
919.715	14069
919.826	14084
919.936	14100
920.047	14244
920.157	14149
920.267	14366
920.378	14142
920.488	14077
920.598	14282
920.708	14389
920.818	14275
920.928	14309
921.038	14355
921.148	14339
921.258	14107
921.368	13997
921.477	13974
921.587	13799
921.697	13807
921.806	13818
921.916	13753
922.025	13628
922.134	13609
922.244	13483
922.353	13559
922.462	13430
922.571	13324
922.68	13168
922.789	13217
922.898	13209
923.007	13133
923.116	13183
923.224	13152
923.333	13183
923.442	12947
923.55	13110
923.659	13050
923.767	13042
923.876	12924
923.984	13057
924.092	12802
924.201	12897
924.309	12871
924.417	12886
924.525	12852
924.633	12856
924.741	13700
924.849	12582
924.956	12840
925.064	12604
925.172	12570
925.279	12692
925.387	12604
925.494	12616
925.602	12787
925.709	12528
925.816	12517
925.924	12448
926.031	12635
926.138	12513
926.245	12620
926.352	12506
926.459	12597
926.566	12604
926.673	12441
926.779	12414
926.886	12376
926.993	12224
927.099	12144
927.206	12213
927.312	12152
927.419	12266
927.525	12186
927.631	12239
927.737	12144
927.843	12098
927.95	11954
928.056	12057
928.162	11999
928.267	12114
928.373	12662
928.479	12087
928.585	11843
928.69	11969
928.796	11961
928.901	11912
929.007	11764
929.112	11897
929.218	11863
929.323	11809
929.428	11756
929.533	11889
929.638	11691
929.743	11672
929.848	11718
929.953	11688
930.058	11615
930.163	11433
930.267	11505
930.372	11577
930.477	11417
930.581	11691
930.685	11509
930.79	11353
930.894	11440
930.998	11311
931.103	11410
931.207	11098
931.311	11064
931.415	10911
931.519	10698
931.623	10679
