Data from test_V78500241_1929.txt Node
Date: Fri Mar 25 15:23:17 CST 2022
User: usil
Spectrometer: V785-0024
Trigger mode: 0
Integration Time (sec): 4.000000E-1
Scans to average: 1
Nonlinearity correction enabled: false
Boxcar width: 0
Storing dark spectrum: false
XAxis mode: Wavelengths
Number of Pixels in Spectrum: 1024
>>>>>Begin Spectral Data<<<<<
801.071	27641
801.214	27701
801.356	27298
801.499	27424
801.641	27188
801.783	27294
801.926	27363
802.068	27275
802.211	27211
802.353	27199
802.496	26979
802.638	26861
802.78	26963
802.923	26963
803.065	26864
803.208	26914
803.35	26948
803.492	27032
803.635	27169
803.777	27020
803.919	26963
804.061	27397
804.204	27226
804.346	27036
804.488	26853
804.63	27032
804.773	26963
804.915	27085
805.057	27108
805.199	27062
805.341	27252
805.483	27359
805.626	27161
805.768	27066
805.91	27233
806.052	27207
806.194	27241
806.336	27313
806.478	27241
806.62	27336
806.762	27298
806.904	27526
807.046	27895
807.188	27576
807.33	27797
807.472	27671
807.614	27568
807.756	27728
807.898	27523
808.04	27500
808.182	27485
808.324	27481
808.465	27622
808.607	27770
808.749	27800
808.891	28063
809.033	28002
809.174	27857
809.316	27869
809.458	27774
809.6	27880
809.741	27960
809.883	27953
810.025	28185
810.166	28078
810.308	28128
810.45	28025
810.591	28158
810.733	27869
810.875	27724
811.016	27671
811.158	27663
811.299	27861
811.441	28101
811.582	27918
811.724	27770
811.865	27781
812.007	27720
812.148	27774
812.29	27926
812.431	27998
812.573	28040
812.714	28242
812.855	28466
812.997	28535
813.138	28656
813.279	28481
813.421	28352
813.562	28287
813.703	28265
813.845	28044
813.986	27694
814.127	27698
814.268	27587
814.41	27625
814.551	27629
814.692	27717
814.833	27561
814.974	27549
815.115	27473
815.256	27450
815.397	27378
815.539	27454
815.68	27245
815.821	27291
815.962	27397
816.103	27321
816.244	27241
816.385	27093
816.526	26975
816.666	26872
816.807	26906
816.948	26861
817.089	26876
817.23	26849
817.371	26746
817.512	26731
817.653	26788
817.793	26708
817.934	26842
818.075	26819
818.216	26826
818.356	26686
818.497	26689
818.638	26575
818.778	26621
818.919	26488
819.06	26579
819.2	26826
819.341	26849
819.481	26811
819.622	27032
819.762	27165
819.903	27051
820.043	26956
820.184	26994
820.324	26819
820.465	27017
820.605	27020
820.746	26929
820.886	26686
821.026	26826
821.167	26853
821.307	26952
821.447	26929
821.588	26727
821.728	26625
821.868	26518
822.008	26214
822.149	26237
822.289	26240
822.429	26088
822.569	25966
822.709	25913
822.849	25898
822.99	25841
823.13	25811
823.27	25586
823.41	25624
823.55	25518
823.69	25666
823.83	25696
823.97	25628
824.11	25426
824.25	25369
824.389	25362
824.529	25487
824.669	25460
824.809	25590
824.949	25415
825.089	25681
825.228	25411
825.368	25247
825.508	25362
825.648	25209
825.787	25293
825.927	25327
826.067	25198
826.206	25339
826.346	25304
826.485	25320
826.625	25228
826.765	25373
826.904	25266
827.044	25209
827.183	25183
827.323	25015
827.462	25076
827.601	25183
827.741	25023
827.88	25065
828.02	25015
828.159	24981
828.298	25038
828.437	25042
828.577	25027
828.716	25103
828.855	24856
828.994	24772
829.134	24768
829.273	24730
829.412	24688
829.551	24650
829.69	24639
829.829	24764
829.968	24817
830.107	24920
830.246	24631
830.385	24597
830.524	24608
830.663	24486
830.802	24395
830.941	24338
831.08	24319
831.219	24308
831.357	24528
831.496	24555
831.635	24350
831.774	24300
831.913	24266
832.051	24159
832.19	24129
832.329	24041
832.467	23977
832.606	23916
832.744	23950
832.883	24007
833.022	23908
833.16	24049
833.299	24087
833.437	24095
833.576	23999
833.714	24098
833.852	24133
833.991	24159
834.129	24083
834.267	24053
834.406	24159
834.544	24038
834.682	24076
834.821	24072
834.959	24194
835.097	24068
835.235	24213
835.373	24045
835.511	24110
835.65	23954
835.788	23901
835.926	23824
836.064	23764
836.202	23832
836.34	23920
836.478	24068
836.615	23889
836.753	23901
836.891	23935
837.029	23942
837.167	23893
837.305	23710
837.443	23729
837.58	23874
837.718	23805
837.856	23847
837.993	23676
838.131	23722
838.269	23710
838.406	23710
838.544	23657
838.681	23391
838.819	23337
838.956	23376
839.094	23296
839.231	23208
839.369	23501
839.506	23630
839.643	23547
839.781	23273
839.918	23124
840.055	23136
840.193	23121
840.33	23151
840.467	23140
840.604	23151
840.742	23497
840.879	23025
841.016	22999
841.153	23071
841.29	23288
841.427	23204
841.564	23231
841.701	23075
841.838	23197
841.975	23022
842.112	23143
842.249	23090
842.385	22942
842.522	23261
842.659	22987
842.796	22847
842.933	23010
843.069	22908
843.206	22961
843.343	23022
843.479	22934
843.616	22854
843.752	22736
843.889	22763
844.025	22900
844.162	22645
844.298	22793
844.435	22672
844.571	22672
844.708	22752
844.844	22843
844.98	22805
845.117	22797
845.253	22828
845.389	22577
845.525	22615
845.661	22489
845.798	22367
845.934	22481
846.07	22382
846.206	22455
846.342	22493
846.478	22451
846.614	22207
846.75	22230
846.886	22169
847.022	22257
847.158	22223
847.294	22318
847.429	22181
847.565	22112
847.701	22523
847.837	21968
847.972	21831
848.108	21930
848.244	21930
848.379	21804
848.515	21831
848.65	21595
848.786	21720
848.921	21842
849.057	21755
849.192	21895
849.328	21770
849.463	21819
849.598	21648
849.734	21694
849.869	21561
850.004	21538
850.14	21557
850.275	21530
850.41	21477
850.545	21519
850.68	21439
850.815	21549
850.95	21488
851.085	21755
851.22	21690
851.355	21568
851.49	21462
851.625	21511
851.76	21424
851.895	21363
852.03	21477
852.165	21462
852.299	21587
852.434	21629
852.569	21557
852.703	21401
852.838	21663
852.973	21728
853.107	21679
853.242	21431
853.376	21458
853.511	21222
853.645	21340
853.78	21363
853.914	21466
854.048	21275
854.183	21370
854.317	21412
854.451	21523
854.585	21348
854.72	21340
854.854	21431
854.988	21275
855.122	21329
855.256	21142
855.39	21344
855.524	21469
855.658	21378
855.792	21310
855.926	21408
856.06	21332
856.194	21488
856.327	21306
856.461	21268
856.595	21237
856.729	21363
856.862	21439
856.996	21439
857.13	21336
857.263	21382
857.397	21298
857.53	21325
857.664	21275
857.797	21424
857.931	21408
858.064	21382
858.197	21393
858.331	21344
858.464	21325
858.597	21256
858.731	21340
858.864	21203
858.997	21340
859.13	21302
859.263	21245
859.396	21382
859.529	21454
859.662	21310
859.795	21302
859.928	21359
860.061	21523
860.194	21542
860.327	21412
860.46	21378
860.592	21325
860.725	21473
860.858	21561
860.99	21317
861.123	21294
861.256	21367
861.388	21428
861.521	21888
861.653	21249
861.786	21138
861.918	21184
862.05	21279
862.183	21252
862.315	21329
862.447	21416
862.58	21176
862.712	20895
862.844	21154
862.976	21165
863.108	21005
863.24	21561
863.372	20956
863.504	21024
863.636	21028
863.768	21085
863.9	20941
864.032	20994
864.164	21032
864.296	21017
864.428	21199
864.559	21116
864.691	21108
864.823	21047
864.954	20998
865.086	20918
865.217	21024
865.349	20895
865.48	20986
865.612	20956
865.743	21024
865.875	20982
866.006	20963
866.137	20982
866.269	20857
866.4	20838
866.531	20845
866.662	20769
866.793	20868
866.924	20804
867.055	20830
867.186	20971
867.317	20864
867.448	20861
867.579	20876
867.71	20826
867.841	20765
867.972	21013
868.103	20941
868.233	20887
868.364	20933
868.495	20910
868.625	21081
868.756	21188
868.886	21017
869.017	21093
869.147	21268
869.278	21272
869.408	21195
869.539	21116
869.669	21203
869.799	21066
869.929	21260
870.06	21108
870.19	21420
870.32	21351
870.45	21515
870.58	21447
870.71	21583
870.84	21644
870.97	21587
871.1	21424
871.23	21660
871.36	21709
871.489	21610
871.619	21652
871.749	21774
871.879	21713
872.008	21888
872.138	21728
872.267	21819
872.397	21641
872.526	21629
872.656	21587
872.785	21507
872.915	21736
873.044	21846
873.173	21644
873.303	21755
873.432	21816
873.561	21857
873.69	21785
873.819	21701
873.948	21781
874.077	21705
874.206	21720
874.335	21698
874.464	21915
874.593	21899
874.722	21960
874.851	21998
874.979	21922
875.108	21991
875.237	21941
875.365	21838
875.494	21972
875.623	22055
875.751	21987
875.88	22010
876.008	22032
876.136	22162
876.265	22405
876.393	22512
876.521	22455
876.65	22413
876.778	22402
876.906	22333
877.034	22185
877.162	22402
877.29	22169
877.418	22325
877.546	22249
877.674	22314
877.802	22432
877.93	22341
878.058	22230
878.185	22204
878.313	22257
878.441	22284
878.568	22021
878.696	22242
878.824	22303
878.951	22390
879.079	22554
879.206	22428
879.333	22485
879.461	22318
879.588	22538
879.715	22569
879.842	22607
879.97	22375
880.097	22143
880.224	22025
880.351	22253
880.478	22135
880.605	22120
880.732	22147
880.859	22417
880.986	22185
881.112	22147
881.239	21956
881.366	21972
881.493	21690
881.619	21808
881.746	21759
881.872	21762
881.999	21686
882.125	21641
882.252	21785
882.378	21671
882.505	21842
882.631	21481
882.757	21420
882.883	21492
883.01	21424
883.136	21435
883.262	21408
883.388	21222
883.514	21378
883.64	21397
883.766	21351
883.892	21214
884.018	21218
884.143	21412
884.269	21450
884.395	21093
884.52	21020
884.646	20990
884.772	20941
884.897	20929
885.023	21036
885.148	21112
885.274	21332
885.399	21058
885.524	21138
885.65	21024
885.775	21089
885.9	21036
886.025	21176
886.15	21256
886.275	21001
886.4	20979
886.525	21074
886.65	20921
886.775	20948
886.9	21146
887.025	21252
887.149	21036
887.274	20906
887.399	20937
887.523	20887
887.648	20823
887.773	20727
887.897	20921
888.021	20758
888.146	20758
888.27	20921
888.395	20849
888.519	20872
888.643	20891
888.767	20887
888.891	20617
889.015	20697
889.139	20640
889.263	20575
889.387	20659
889.511	20815
889.635	20758
889.759	20590
889.883	20609
890.006	20583
890.13	20689
890.254	20488
890.377	20507
890.501	20427
890.624	20320
890.748	20396
890.871	20240
890.995	20043
891.118	20008
891.241	20157
891.364	20176
891.488	20324
891.611	20191
891.734	20233
891.857	20271
891.98	20214
892.103	20130
892.226	20199
892.349	20084
892.471	19887
892.594	20020
892.717	20054
892.839	19951
892.962	20058
893.085	20142
893.207	20020
893.33	19989
893.452	20225
893.575	20115
893.697	20005
893.819	20225
893.941	20317
894.064	20202
894.186	20054
894.308	20054
894.43	20218
894.552	20176
894.674	20206
894.796	20012
894.918	20111
895.04	19997
895.161	20092
895.283	20035
895.405	20024
895.526	20024
895.648	19993
895.769	20119
895.891	20115
896.012	20122
896.134	20122
896.255	19955
896.376	19974
896.498	20054
896.619	20115
896.74	19997
896.861	20142
896.982	20446
897.103	20537
897.224	20324
897.345	20244
897.466	20233
897.587	20317
897.708	20400
897.828	20355
897.949	20294
898.07	20088
898.19	20240
898.311	20206
898.431	20237
898.552	20305
898.672	20275
898.792	20328
898.913	20298
899.033	20024
899.153	20111
899.273	20027
899.393	19989
899.513	20031
899.633	20145
899.753	20088
899.873	19849
899.993	20020
900.113	20111
900.232	20107
900.352	19955
900.472	19845
900.591	19807
900.711	19879
900.83	19742
900.95	19799
901.069	19970
901.189	19643
901.308	19495
901.427	19301
901.546	19304
901.665	19373
901.784	19289
901.904	19282
902.023	19145
902.141	18954
902.26	18897
902.379	18962
902.498	18863
902.617	18878
902.735	18954
902.854	18939
902.973	18772
903.091	18604
903.21	18566
903.328	18452
903.446	18525
903.565	18361
903.683	18410
903.801	18346
903.919	18350
904.038	18426
904.156	18292
904.274	18254
904.392	18232
904.51	18019
904.627	18144
904.745	18201
904.863	18144
904.981	18064
905.098	17737
905.216	17878
905.334	17893
905.451	17878
905.569	17824
905.686	17866
905.803	17889
905.921	17657
906.038	17767
906.155	17684
906.272	17573
906.389	17554
906.506	17356
906.623	17326
906.74	17337
906.857	17254
906.974	17376
907.091	17440
907.208	17474
907.324	17391
907.441	17364
907.557	17128
907.674	17090
907.79	17060
907.907	16991
908.023	17086
908.139	17048
908.256	17052
908.372	16980
908.488	16919
908.604	16843
908.72	16782
908.836	16866
908.952	16733
909.068	16866
909.184	16843
909.3	16713
909.415	16831
909.531	16713
909.647	16675
909.762	16531
909.878	16577
909.993	16470
910.108	16481
910.224	16523
910.339	16497
910.454	16325
910.57	16318
910.685	16291
910.8	16546
910.915	16485
911.03	16284
911.145	16150
911.259	16097
911.374	16192
911.489	16101
911.604	15945
911.718	15793
911.833	15888
911.947	15751
912.062	15705
912.176	15873
912.291	15812
912.405	15831
912.519	15956
912.633	16036
912.748	15759
912.862	15850
912.976	15599
913.09	15599
913.204	15603
913.318	15648
913.431	15770
913.545	15785
913.659	15838
913.772	15622
913.886	15492
914	15477
914.113	15591
914.226	15526
914.34	15515
914.453	15386
914.566	15519
914.68	15443
914.793	15389
914.906	15195
915.019	15062
915.132	15055
915.245	15100
915.358	15192
915.47	15085
915.583	15070
915.696	15169
915.809	15112
915.921	15131
916.034	15039
916.146	14994
916.259	14925
916.371	15005
916.483	14986
916.595	14952
916.708	14982
916.82	14902
916.932	14864
917.044	14857
917.156	14857
917.268	14754
917.38	14682
917.491	14750
917.603	14716
917.715	14777
917.826	14815
917.938	14678
918.049	14514
918.161	14705
918.272	14853
918.384	14796
918.495	14606
918.606	14514
918.717	14396
918.828	14537
918.939	14560
919.05	14393
919.161	14442
919.272	14275
919.383	14408
919.494	14564
919.604	14670
919.715	14492
919.826	14412
919.936	14454
920.047	14552
920.157	14438
920.267	14659
920.378	14492
920.488	14355
920.598	14590
920.708	14781
920.818	14598
920.928	14590
921.038	14773
921.148	14648
921.258	14408
921.368	14282
921.477	14176
921.587	14161
921.697	14027
921.806	14214
921.916	14130
922.025	13944
922.134	13852
922.244	13795
922.353	13890
922.462	13719
922.571	13632
922.68	13658
922.789	13495
922.898	13548
923.007	13460
923.116	13495
923.224	13472
923.333	13419
923.442	13282
923.55	13308
923.659	13343
923.767	13411
923.876	13278
923.984	13320
924.092	13194
924.201	13327
924.309	13236
924.417	13206
924.525	13129
924.633	13110
924.741	14046
924.849	12924
924.956	13107
925.064	12935
925.172	12844
925.279	12894
925.387	12852
925.494	12886
925.602	13012
925.709	12920
925.816	12757
925.924	12837
926.031	12810
926.138	12787
926.245	12829
926.352	12753
926.459	12859
926.566	12932
926.673	12692
926.779	12658
926.886	12639
926.993	12460
927.099	12521
927.206	12452
927.312	12414
927.419	12574
927.525	12456
927.631	12506
927.737	12429
927.843	12323
927.95	12171
928.056	12251
928.162	12258
928.267	12300
928.373	12852
928.479	12338
928.585	12091
928.69	12323
928.796	12273
928.901	12140
929.007	11988
929.112	12178
929.218	12076
929.323	12030
929.428	11973
929.533	12159
929.638	11992
929.743	11946
929.848	12049
929.953	11992
930.058	11920
930.163	11634
930.267	11668
930.372	11813
930.477	11619
930.581	11893
930.685	11703
930.79	11566
930.894	11600
930.998	11600
931.103	11642
931.207	11444
931.311	11311
931.415	11204
931.519	11006
931.623	10965
