Data from test_V78500241_1901.txt Node
Date: Fri Mar 25 15:23:05 CST 2022
User: usil
Spectrometer: V785-0024
Trigger mode: 0
Integration Time (sec): 4.000000E-1
Scans to average: 1
Nonlinearity correction enabled: false
Boxcar width: 0
Storing dark spectrum: false
XAxis mode: Wavelengths
Number of Pixels in Spectrum: 1024
>>>>>Begin Spectral Data<<<<<
801.071	27793
801.214	27690
801.356	27477
801.499	27416
801.641	27188
801.783	27192
801.926	27416
802.068	27340
802.211	27230
802.353	27173
802.496	26937
802.638	26716
802.78	26876
802.923	26906
803.065	26834
803.208	26823
803.35	26902
803.492	27077
803.635	27096
803.777	26933
803.919	26933
804.061	27287
804.204	27165
804.346	27074
804.488	26944
804.63	27024
804.773	27043
804.915	27218
805.057	27256
805.199	27112
805.341	27150
805.483	27184
805.626	27313
805.768	27112
805.91	27233
806.052	27249
806.194	27245
806.336	27473
806.478	27264
806.62	27199
806.762	27355
806.904	27466
807.046	27606
807.188	27663
807.33	27675
807.472	27717
807.614	27568
807.756	27515
807.898	27511
808.04	27473
808.182	27405
808.324	27420
808.465	27519
808.607	27766
808.749	27812
808.891	27934
809.033	27785
809.174	27934
809.316	27785
809.458	27831
809.6	27804
809.741	27949
809.883	28006
810.025	28124
810.166	28063
810.308	28139
810.45	28090
810.591	28029
810.733	27778
810.875	27899
811.016	27717
811.158	27755
811.299	27949
811.441	27812
811.582	28082
811.724	27865
811.865	27831
812.007	27819
812.148	27816
812.29	27960
812.431	27926
812.573	28211
812.714	28204
812.855	28344
812.997	28371
813.138	28645
813.279	28474
813.421	28443
813.562	28238
813.703	28200
813.845	27922
813.986	27724
814.127	27762
814.268	27549
814.41	27523
814.551	27401
814.692	27477
814.833	27576
814.974	27405
815.115	27515
815.256	27374
815.397	27427
815.539	27386
815.68	27359
815.821	27367
815.962	27245
816.103	27416
816.244	27165
816.385	27138
816.526	27173
816.666	26925
816.807	26838
816.948	26800
817.089	26887
817.23	26914
817.371	26762
817.512	26826
817.653	26838
817.793	26735
817.934	26785
818.075	26899
818.216	26826
818.356	26785
818.497	26621
818.638	26640
818.778	26575
818.919	26598
819.06	26678
819.2	26735
819.341	26891
819.481	26868
819.622	26975
819.762	27138
819.903	27058
820.043	27051
820.184	26982
820.324	26857
820.465	27058
820.605	26998
820.746	26925
820.886	26815
821.026	26975
821.167	26773
821.307	27058
821.447	26796
821.588	26731
821.728	26720
821.868	26438
822.008	26450
822.149	26355
822.289	26317
822.429	26031
822.569	26134
822.709	25997
822.849	25925
822.99	25830
823.13	25833
823.27	25845
823.41	25639
823.55	25624
823.69	25712
823.83	25624
823.97	25552
824.11	25392
824.25	25308
824.389	25544
824.529	25518
824.669	25381
824.809	25464
824.949	25609
825.089	25506
825.228	25563
825.368	25301
825.508	25217
825.648	25369
825.787	25441
825.927	25331
826.067	25365
826.206	25297
826.346	25358
826.485	25285
826.625	25312
826.765	25544
826.904	25232
827.044	25103
827.183	25232
827.323	24996
827.462	25046
827.601	25072
827.741	25107
827.88	25042
828.02	24954
828.159	24924
828.298	25053
828.437	25027
828.577	25050
828.716	25122
828.855	24966
828.994	24726
829.134	24852
829.273	24787
829.412	24719
829.551	24700
829.69	24650
829.829	24757
829.968	24753
830.107	24806
830.246	24810
830.385	24620
830.524	24700
830.663	24544
830.802	24509
830.941	24414
831.08	24292
831.219	24464
831.357	24483
831.496	24677
831.635	24346
831.774	24289
831.913	24178
832.051	24091
832.19	24083
832.329	24178
832.467	24045
832.606	23897
832.744	24007
832.883	24144
833.022	23958
833.16	24079
833.299	23969
833.437	24072
833.576	24133
833.714	24129
833.852	24148
833.991	24045
834.129	24285
834.267	24311
834.406	24083
834.544	24087
834.682	24091
834.821	24018
834.959	24228
835.097	24026
835.235	24186
835.373	24095
835.511	24110
835.65	23927
835.788	24003
835.926	23840
836.064	23809
836.202	23775
836.34	23920
836.478	24102
836.615	23942
836.753	23920
836.891	23988
837.029	24030
837.167	23912
837.305	23897
837.443	23824
837.58	23756
837.718	23897
837.856	23779
837.993	23718
838.131	23775
838.269	23741
838.406	23733
838.544	23509
838.681	23524
838.819	23531
838.956	23341
839.094	23242
839.231	23391
839.369	23402
839.506	23627
839.643	23562
839.781	23204
839.918	23181
840.055	23105
840.193	23204
840.33	23162
840.467	23212
840.604	23189
840.742	23474
840.879	23022
841.016	23052
841.153	23029
841.29	23254
841.427	23204
841.564	23254
841.701	23132
841.838	23083
841.975	23052
842.112	23105
842.249	22889
842.385	22911
842.522	23025
842.659	23075
842.796	22881
842.933	22961
843.069	22847
843.206	22873
843.343	23090
843.479	22953
843.616	22900
843.752	22733
843.889	22717
844.025	22889
844.162	22679
844.298	22869
844.435	22755
844.571	22820
844.708	22687
844.844	22953
844.98	22797
845.117	22790
845.253	22698
845.389	22649
845.525	22675
845.661	22493
845.798	22474
845.934	22500
846.07	22451
846.206	22409
846.342	22641
846.478	22375
846.614	22261
846.75	22105
846.886	22230
847.022	22253
847.158	22177
847.294	22185
847.429	22398
847.565	22055
847.701	22314
847.837	21941
847.972	21842
848.108	22048
848.244	21945
848.379	21846
848.515	21705
848.65	21816
848.786	21728
848.921	21732
849.057	21884
849.192	21880
849.328	21724
849.463	21690
849.598	21625
849.734	21564
849.869	21458
850.004	21610
850.14	21488
850.275	21587
850.41	21397
850.545	21458
850.68	21458
850.815	21572
850.95	21439
851.085	21682
851.22	21625
851.355	21492
851.49	21542
851.625	21466
851.76	21511
851.895	21439
852.03	21416
852.165	21526
852.299	21553
852.434	21466
852.569	21545
852.703	21595
852.838	21553
852.973	21610
853.107	21580
853.242	21412
853.376	21291
853.511	21283
853.645	21256
853.78	21416
853.914	21348
854.048	21302
854.183	21431
854.317	21481
854.451	21420
854.585	21256
854.72	21386
854.854	21523
854.988	21321
855.122	21359
855.256	21108
855.39	21367
855.524	21367
855.658	21466
855.792	21382
855.926	21420
856.06	21329
856.194	21538
856.327	21332
856.461	21291
856.595	21218
856.729	21321
856.862	21450
856.996	21283
857.13	21450
857.263	21439
857.397	21454
857.53	21332
857.664	21336
857.797	21332
857.931	21431
858.064	21439
858.197	21408
858.331	21397
858.464	21249
858.597	21222
858.731	21283
858.864	21306
858.997	21378
859.13	21310
859.263	21249
859.396	21428
859.529	21321
859.662	21287
859.795	21302
859.928	21291
860.061	21420
860.194	21496
860.327	21336
860.46	21291
860.592	21431
860.725	21549
860.858	21526
860.99	21279
861.123	21291
861.256	21287
861.388	21336
861.521	21949
861.653	21192
861.786	21100
861.918	21272
862.05	21272
862.183	21401
862.315	21287
862.447	21424
862.58	21359
862.712	21055
862.844	21062
862.976	21237
863.108	21157
863.24	21526
863.372	21081
863.504	21100
863.636	21058
863.768	21150
863.9	21051
864.032	21051
864.164	21085
864.296	21119
864.428	21218
864.559	21161
864.691	21192
864.823	21173
864.954	21100
865.086	21119
865.217	21058
865.349	21009
865.48	20979
865.612	21013
865.743	21165
865.875	20921
866.006	20933
866.137	20910
866.269	20929
866.4	20998
866.531	20899
866.662	20902
866.793	20887
866.924	20956
867.055	20998
867.186	21032
867.317	20952
867.448	20864
867.579	20960
867.71	20887
867.841	20861
867.972	20902
868.103	20880
868.233	20979
868.364	20914
868.495	21123
868.625	21218
868.756	21306
868.886	21173
869.017	21150
869.147	21393
869.278	21214
869.408	21146
869.539	21275
869.669	21131
869.799	21138
869.929	21272
870.06	21291
870.19	21603
870.32	21542
870.45	21511
870.58	21542
870.71	21755
870.84	21705
870.97	21557
871.1	21583
871.23	21717
871.36	21797
871.489	21671
871.619	21728
871.749	21781
871.879	21797
872.008	21800
872.138	21770
872.267	21694
872.397	21648
872.526	21648
872.656	21682
872.785	21549
872.915	21724
873.044	21941
873.173	21854
873.303	21819
873.432	21762
873.561	21800
873.69	21804
873.819	21755
873.948	21831
874.077	21789
874.206	21675
874.335	21812
874.464	21899
874.593	21945
874.722	21991
874.851	22002
874.979	22021
875.108	22112
875.237	21975
875.365	21884
875.494	22055
875.623	22093
875.751	21975
875.88	22131
876.008	22086
876.136	22230
876.265	22360
876.393	22580
876.521	22428
876.65	22577
876.778	22356
876.906	22341
877.034	22322
877.162	22375
877.29	22333
877.418	22417
877.546	22291
877.674	22371
877.802	22257
877.93	22352
878.058	22299
878.185	22207
878.313	22268
878.441	22310
878.568	22135
878.696	22280
878.824	22344
878.951	22485
879.079	22683
879.206	22706
879.333	22512
879.461	22367
879.588	22504
879.715	22580
879.842	22584
879.97	22390
880.097	22238
880.224	22082
880.351	22135
880.478	22204
880.605	22169
880.732	22040
880.859	22455
880.986	22230
881.112	22101
881.239	22017
881.366	21873
881.493	21724
881.619	21732
881.746	21679
881.872	21850
881.999	21660
882.125	21667
882.252	21789
882.378	21682
882.505	21953
882.631	21622
882.757	21466
882.883	21553
883.01	21428
883.136	21329
883.262	21310
883.388	21298
883.514	21447
883.64	21534
883.766	21321
883.892	21188
884.018	21161
884.143	21477
884.269	21447
884.395	21184
884.52	21142
884.646	21112
884.772	21169
884.897	21036
885.023	21180
885.148	21230
885.274	21119
885.399	21081
885.524	21024
885.65	21127
885.775	21085
885.9	21142
886.025	21211
886.15	21112
886.275	21039
886.4	20986
886.525	21017
886.65	21001
886.775	20963
886.9	21188
887.025	21287
887.149	21093
887.274	20788
887.399	20792
887.523	20762
887.648	20830
887.773	20705
887.897	20876
888.021	20899
888.146	20777
888.27	20807
888.395	20895
888.519	20826
888.643	20906
888.767	20902
888.891	20807
889.015	20686
889.139	20716
889.263	20560
889.387	20697
889.511	20800
889.635	20746
889.759	20735
889.883	20651
890.006	20492
890.13	20708
890.254	20526
890.377	20434
890.501	20495
890.624	20332
890.748	20564
890.871	20415
890.995	20202
891.118	20138
891.241	20119
891.364	20259
891.488	20317
891.611	20351
891.734	20229
891.857	20240
891.98	20294
892.103	20351
892.226	20248
892.349	20153
892.471	20039
892.594	20122
892.717	20199
892.839	20065
892.962	20142
893.085	20328
893.207	20130
893.33	20016
893.452	20161
893.575	20138
893.697	20191
893.819	20244
893.941	20286
894.064	20252
894.186	20054
894.308	20126
894.43	20229
894.552	20278
894.674	20180
894.796	20039
894.918	20134
895.04	20149
895.161	20172
895.283	20130
895.405	20020
895.526	20084
895.648	20130
895.769	20183
895.891	20119
896.012	20176
896.134	20119
896.255	20214
896.376	20149
896.498	20119
896.619	20309
896.74	20020
896.861	20027
896.982	20400
897.103	20579
897.224	20404
897.345	20370
897.466	20252
897.587	20290
897.708	20514
897.828	20305
897.949	20286
898.07	20263
898.19	20237
898.311	20431
898.431	20347
898.552	20419
898.672	20317
898.792	20381
898.913	20328
899.033	20195
899.153	20069
899.273	20008
899.393	20088
899.513	19997
899.633	20142
899.753	20100
899.873	19986
899.993	20149
900.113	19997
900.232	20161
900.352	19947
900.472	19894
900.591	19811
900.711	19868
900.83	19830
900.95	19940
901.069	19970
901.189	19811
901.308	19540
901.427	19400
901.546	19426
901.665	19434
901.784	19464
901.904	19259
902.023	19289
902.141	19008
902.26	19034
902.379	19031
902.498	18901
902.617	18924
902.735	18920
902.854	18943
902.973	18875
903.091	18623
903.21	18616
903.328	18654
903.446	18460
903.565	18353
903.683	18395
903.801	18308
903.919	18357
904.038	18270
904.156	18194
904.274	18235
904.392	18243
904.51	18186
904.627	18155
904.745	18228
904.863	18125
904.981	17984
905.098	17882
905.216	17802
905.334	17885
905.451	17817
905.569	17904
905.686	17866
905.803	17824
905.921	17695
906.038	17786
906.155	17691
906.272	17455
906.389	17493
906.506	17463
906.623	17414
906.74	17406
906.857	17220
906.974	17277
907.091	17406
907.208	17452
907.324	17459
907.441	17318
907.557	17109
907.674	17113
907.79	17029
907.907	17094
908.023	17102
908.139	17102
908.256	17083
908.372	17140
908.488	17048
908.604	16919
908.72	16755
908.836	16805
908.952	16748
909.068	16828
909.184	16949
909.3	16831
909.415	16877
909.531	16908
909.647	16596
909.762	16489
909.878	16440
909.993	16607
910.108	16554
910.224	16500
910.339	16554
910.454	16367
910.57	16382
910.685	16352
910.8	16656
910.915	16569
911.03	16341
911.145	16238
911.259	16135
911.374	16093
911.489	16059
911.604	16021
911.718	15846
911.833	15934
911.947	15816
912.062	15663
912.176	15873
912.291	15842
912.405	15797
912.519	16063
912.633	16067
912.748	15918
912.862	15926
912.976	15720
913.09	15523
913.204	15648
913.318	15667
913.431	15774
913.545	15781
913.659	15838
913.772	15667
913.886	15530
914	15526
914.113	15606
914.226	15519
914.34	15561
914.453	15393
914.566	15481
914.68	15359
914.793	15268
914.906	15199
915.019	15104
915.132	15062
915.245	15085
915.358	15207
915.47	15089
915.583	15138
915.696	15131
915.809	15249
915.921	15230
916.034	15036
916.146	14887
916.259	15066
916.371	15173
916.483	15062
916.595	14952
916.708	14921
916.82	14887
916.932	14948
917.044	14880
917.156	14765
917.268	14731
917.38	14777
917.491	14682
917.603	14819
917.715	14838
917.826	14883
917.938	14663
918.049	14667
918.161	14659
918.272	14754
918.384	14842
918.495	14598
918.606	14568
918.717	14461
918.828	14431
918.939	14564
919.05	14465
919.161	14526
919.272	14180
919.383	14358
919.494	14674
919.604	14689
919.715	14457
919.826	14404
919.936	14396
920.047	14594
920.157	14473
920.267	14602
920.378	14514
920.488	14438
920.598	14678
920.708	14720
920.818	14613
920.928	14610
921.038	14758
921.148	14640
921.258	14377
921.368	14423
921.477	14271
921.587	14138
921.697	14092
921.806	14115
921.916	14073
922.025	13921
922.134	13989
922.244	13811
922.353	13955
922.462	13712
922.571	13651
922.68	13544
922.789	13419
922.898	13434
923.007	13449
923.116	13518
923.224	13556
923.333	13552
923.442	13316
923.55	13331
923.659	13419
923.767	13365
923.876	13312
923.984	13232
924.092	13175
924.201	13285
924.309	13297
924.417	13168
924.525	13244
924.633	13152
924.741	14142
924.849	12947
924.956	13171
925.064	12977
925.172	12882
925.279	12852
925.387	12894
925.494	12905
925.602	12970
925.709	12985
925.816	12810
925.924	12863
926.031	12882
926.138	12848
926.245	12886
926.352	12871
926.459	12886
926.566	12932
926.673	12795
926.779	12711
926.886	12688
926.993	12589
927.099	12574
927.206	12479
927.312	12429
927.419	12601
927.525	12403
927.631	12509
927.737	12448
927.843	12304
927.95	12163
928.056	12342
928.162	12338
928.267	12285
928.373	12905
928.479	12384
928.585	12148
928.69	12292
928.796	12315
928.901	12220
929.007	12095
929.112	12152
929.218	12186
929.323	12079
929.428	12053
929.533	12190
929.638	11946
929.743	11923
929.848	12076
929.953	11893
930.058	11832
930.163	11684
930.267	11695
930.372	11912
930.477	11676
930.581	11954
930.685	11813
930.79	11707
930.894	11653
930.998	11520
931.103	11680
931.207	11410
931.311	11311
931.415	11189
931.519	11018
931.623	11018
