Data from test_V78500241_1109.txt Node
Date: Fri Mar 25 15:17:34 CST 2022
User: usil
Spectrometer: V785-0024
Trigger mode: 0
Integration Time (sec): 4.000000E-1
Scans to average: 1
Nonlinearity correction enabled: false
Boxcar width: 0
Storing dark spectrum: false
XAxis mode: Wavelengths
Number of Pixels in Spectrum: 1024
>>>>>Begin Spectral Data<<<<<
801.071	28192
801.214	28116
801.356	27911
801.499	27804
801.641	27690
801.783	27682
801.926	27743
802.068	27724
802.211	27667
802.353	27553
802.496	27412
802.638	27355
802.78	27405
802.923	27317
803.065	27252
803.208	27393
803.35	27561
803.492	27477
803.635	27595
803.777	27549
803.919	27454
804.061	27819
804.204	27766
804.346	27564
804.488	27523
804.63	27515
804.773	27660
804.915	27667
805.057	27800
805.199	27599
805.341	27819
805.483	27770
805.626	27667
805.768	27595
805.91	27675
806.052	27793
806.194	27812
806.336	27956
806.478	27656
806.62	27884
806.762	27899
806.904	28040
807.046	28306
807.188	28032
807.33	28105
807.472	28272
807.614	28029
807.756	28234
807.898	28021
808.04	27983
808.182	27922
808.324	28078
808.465	28105
808.607	28230
808.749	28493
808.891	28325
809.033	28592
809.174	28371
809.316	28360
809.458	28352
809.6	28367
809.741	28649
809.883	28577
810.025	28656
810.166	28653
810.308	28721
810.45	28645
810.591	28721
810.733	28466
810.875	28470
811.016	28386
811.158	28310
811.299	28527
811.441	28596
811.582	28573
811.724	28485
811.865	28428
812.007	28432
812.148	28394
812.29	28341
812.431	28755
812.573	28660
812.714	28763
812.855	29010
812.997	29048
813.138	29337
813.279	29018
813.421	28934
813.562	28949
813.703	28710
813.845	28679
813.986	28447
814.127	28272
814.268	28036
814.41	28124
814.551	28230
814.692	28173
814.833	28097
814.974	28101
815.115	28169
815.256	27941
815.397	28036
815.539	27873
815.68	28055
815.821	27816
815.962	28002
816.103	27880
816.244	27922
816.385	27827
816.526	27633
816.666	27614
816.807	27523
816.948	27481
817.089	27477
817.23	27523
817.371	27492
817.512	27477
817.653	27249
817.793	27477
817.934	27523
818.075	27435
818.216	27485
818.356	27408
818.497	27336
818.638	27135
818.778	27131
818.919	27180
819.06	27294
819.2	27306
819.341	27355
819.481	27359
819.622	27564
819.762	27842
819.903	27751
820.043	27519
820.184	27507
820.324	27663
820.465	27637
820.605	27530
820.746	27553
820.886	27378
821.026	27545
821.167	27500
821.307	27515
821.447	27454
821.588	27344
821.728	27180
821.868	27077
822.008	26979
822.149	27017
822.289	26883
822.429	26655
822.569	26724
822.709	26648
822.849	26511
822.99	26602
823.13	26347
823.27	26358
823.41	26168
823.55	26027
823.69	26351
823.83	26282
823.97	26248
824.11	26164
824.25	26031
824.389	26115
824.529	26157
824.669	26214
824.809	26286
824.949	26153
825.089	26275
825.228	25932
825.368	26035
825.508	25860
825.648	25978
825.787	26077
825.927	26035
826.067	25928
826.206	25974
826.346	26069
826.485	25925
826.625	26039
826.765	26043
826.904	26062
827.044	25738
827.183	25769
827.323	25700
827.462	25700
827.601	25719
827.741	25643
827.88	25746
828.02	25639
828.159	25666
828.298	25784
828.437	25715
828.577	25624
828.716	25807
828.855	25628
828.994	25453
829.134	25324
829.273	25502
829.412	25350
829.551	25251
829.69	25400
829.829	25426
829.968	25438
830.107	25419
830.246	25411
830.385	25297
830.524	25240
830.663	25247
830.802	25198
830.941	24951
831.08	25008
831.219	25129
831.357	25266
831.496	25289
831.635	25038
831.774	24966
831.913	24913
832.051	24833
832.19	24779
832.329	24981
832.467	24821
832.606	24547
832.744	24597
832.883	24677
833.022	24715
833.16	24665
833.299	24738
833.437	24673
833.576	24757
833.714	24806
833.852	24681
833.991	24863
834.129	24856
834.267	24837
834.406	24620
834.544	24920
834.682	24954
834.821	24681
834.959	24886
835.097	24673
835.235	24821
835.373	24856
835.511	24764
835.65	24650
835.788	24661
835.926	24486
836.064	24494
836.202	24395
836.34	24601
836.478	24802
836.615	24608
836.753	24646
836.891	24700
837.029	24776
837.167	24566
837.305	24627
837.443	24509
837.58	24502
837.718	24418
837.856	24437
837.993	24460
838.131	24445
838.269	24426
838.406	24319
838.544	24224
838.681	24262
838.819	24190
838.956	24026
839.094	23889
839.231	23908
839.369	24083
839.506	24304
839.643	24133
839.781	23855
839.918	23946
840.055	23851
840.193	23832
840.33	23836
840.467	23847
840.604	23878
840.742	24201
840.879	23699
841.016	23710
841.153	23745
841.29	23946
841.427	23931
841.564	23840
841.701	23756
841.838	23718
841.975	23836
842.112	23691
842.249	23531
842.385	23638
842.522	23748
842.659	23630
842.796	23516
842.933	23493
843.069	23535
843.206	23493
843.343	23657
843.479	23619
843.616	23760
843.752	23364
843.889	23360
844.025	23573
844.162	23322
844.298	23387
844.435	23368
844.571	23368
844.708	23379
844.844	23604
844.98	23520
845.117	23570
845.253	23280
845.389	23273
845.525	23258
845.661	23307
845.798	23132
845.934	23105
846.07	23052
846.206	23155
846.342	23220
846.478	23170
846.614	22976
846.75	22843
846.886	22862
847.022	22915
847.158	22816
847.294	22828
847.429	22812
847.565	22733
847.701	23151
847.837	22611
847.972	22481
848.108	22698
848.244	22649
848.379	22413
848.515	22333
848.65	22402
848.786	22428
848.921	22557
849.057	22523
849.192	22527
849.328	22443
849.463	22356
849.598	22527
849.734	22371
849.869	22284
850.004	22261
850.14	22249
850.275	22402
850.41	22135
850.545	22173
850.68	22131
850.815	22147
850.95	22185
851.085	22280
851.22	22257
851.355	22234
851.49	22246
851.625	22158
851.76	22143
851.895	22101
852.03	22215
852.165	22082
852.299	22067
852.434	22211
852.569	22268
852.703	22188
852.838	22219
852.973	22299
853.107	22337
853.242	22196
853.376	21975
853.511	21968
853.645	21911
853.78	22112
853.914	22051
854.048	21968
854.183	21975
854.317	22101
854.451	22154
854.585	22010
854.72	22112
854.854	22101
854.988	21979
855.122	21915
855.256	21884
855.39	21998
855.524	22101
855.658	21983
855.792	21994
855.926	22055
856.06	22063
856.194	22154
856.327	21941
856.461	21857
856.595	21892
856.729	22002
856.862	21983
856.996	22097
857.13	22082
857.263	22070
857.397	22074
857.53	21945
857.664	22040
857.797	22017
857.931	22154
858.064	22055
858.197	22044
858.331	21994
858.464	21975
858.597	21873
858.731	22048
858.864	21895
858.997	21850
859.13	22067
859.263	22070
859.396	22097
859.529	21994
859.662	22044
859.795	21915
859.928	22013
860.061	22131
860.194	22070
860.327	22124
860.46	22086
860.592	22055
860.725	22230
860.858	22124
860.99	21953
861.123	22013
861.256	21934
861.388	21930
861.521	22725
861.653	21899
861.786	21922
861.918	21800
862.05	22006
862.183	21983
862.315	21979
862.447	22074
862.58	21842
862.712	21755
862.844	21679
862.976	21778
863.108	21800
863.24	22226
863.372	21660
863.504	21610
863.636	21694
863.768	21724
863.9	21717
864.032	21682
864.164	21660
864.296	21682
864.428	21812
864.559	21785
864.691	21736
864.823	21690
864.954	21644
865.086	21652
865.217	21587
865.349	21564
865.48	21545
865.612	21538
865.743	21724
865.875	21732
866.006	21557
866.137	21576
866.269	21561
866.4	21633
866.531	21549
866.662	21466
866.793	21511
866.924	21454
867.055	21545
867.186	21542
867.317	21500
867.448	21447
867.579	21488
867.71	21473
867.841	21488
867.972	21580
868.103	21454
868.233	21500
868.364	21462
868.495	21667
868.625	21671
868.756	21778
868.886	21660
869.017	21789
869.147	21915
869.278	21892
869.408	21770
869.539	21895
869.669	21751
869.799	21816
869.929	21861
870.06	21854
870.19	22070
870.32	21945
870.45	22226
870.58	22173
870.71	22207
870.84	22246
870.97	22158
871.1	22215
871.23	22356
871.36	22344
871.489	22230
871.619	22295
871.749	22322
871.879	22329
872.008	22329
872.138	22287
872.267	22329
872.397	22265
872.526	22173
872.656	22242
872.785	22185
872.915	22344
873.044	22440
873.173	22390
873.303	22421
873.432	22424
873.561	22466
873.69	22402
873.819	22299
873.948	22497
874.077	22360
874.206	22223
874.335	22257
874.464	22531
874.593	22523
874.722	22481
874.851	22596
874.979	22493
875.108	22649
875.237	22577
875.365	22531
875.494	22679
875.623	22660
875.751	22607
875.88	22618
876.008	22839
876.136	22885
876.265	23022
876.393	23075
876.521	23079
876.65	23147
876.778	22968
876.906	22923
877.034	22866
877.162	22980
877.29	22824
877.418	23083
877.546	22984
877.674	23018
877.802	22900
877.93	22930
878.058	22748
878.185	22820
878.313	22930
878.441	22805
878.568	22618
878.696	22934
878.824	22919
878.951	23010
879.079	22961
879.206	23258
879.333	23079
879.461	22915
879.588	22976
879.715	22999
879.842	23174
879.97	22987
880.097	22698
880.224	22786
880.351	22793
880.478	22691
880.605	22717
880.732	22611
880.859	22949
880.986	22835
881.112	22759
881.239	22710
881.366	22417
881.493	22443
881.619	22333
881.746	22200
881.872	22306
881.999	22375
882.125	22295
882.252	22284
882.378	22295
882.505	22303
882.631	22169
882.757	22055
882.883	22124
883.01	22021
883.136	22032
883.262	21941
883.388	21838
883.514	22044
883.64	22048
883.766	21884
883.892	21770
884.018	21827
884.143	21865
884.269	21865
884.395	21812
884.52	21614
884.646	21743
884.772	21511
884.897	21492
885.023	21580
885.148	21739
885.274	21835
885.399	21865
885.524	21686
885.65	21633
885.775	21557
885.9	21629
886.025	21770
886.15	21705
886.275	21580
886.4	21572
886.525	21641
886.65	21485
886.775	21450
886.9	21789
887.025	21800
887.149	21603
887.274	21443
887.399	21386
887.523	21408
887.648	21424
887.773	21344
887.897	21618
888.021	21401
888.146	21382
888.27	21606
888.395	21572
888.519	21428
888.643	21393
888.767	21458
888.891	21363
889.015	21161
889.139	21237
889.263	21146
889.387	21245
889.511	21473
889.635	21310
889.759	21123
889.883	21100
890.006	21104
890.13	21279
890.254	21036
890.377	21081
890.501	20960
890.624	20941
890.748	21001
890.871	20845
890.995	20796
891.118	20678
891.241	20754
891.364	20674
891.488	20819
891.611	20674
891.734	20720
891.857	20811
891.98	20823
892.103	20868
892.226	20811
892.349	20788
892.471	20526
892.594	20659
892.717	20701
892.839	20507
892.962	20632
893.085	20644
893.207	20663
893.33	20526
893.452	20602
893.575	20777
893.697	20674
893.819	20598
893.941	20826
894.064	20834
894.186	20476
894.308	20571
894.43	20739
894.552	20842
894.674	20667
894.796	20564
894.918	20556
895.04	20507
895.161	20617
895.283	20697
895.405	20575
895.526	20651
895.648	20689
895.769	20636
895.891	20667
896.012	20758
896.134	20667
896.255	20621
896.376	20549
896.498	20651
896.619	20686
896.74	20750
896.861	20629
896.982	20895
897.103	21116
897.224	20941
897.345	20834
897.466	20598
897.587	20765
897.708	21013
897.828	20815
897.949	20708
898.07	20644
898.19	20811
898.311	20952
898.431	20765
898.552	20830
898.672	20902
898.792	20861
898.913	20861
899.033	20667
899.153	20678
899.273	20377
899.393	20564
899.513	20583
899.633	20617
899.753	20533
899.873	20530
899.993	20541
900.113	20556
900.232	20552
900.352	20465
900.472	20476
900.591	20214
900.711	20339
900.83	20168
900.95	20385
901.069	20332
901.189	20195
901.308	19997
901.427	19852
901.546	19833
901.665	19921
901.784	19967
901.904	19742
902.023	19746
902.141	19548
902.26	19460
902.379	19563
902.498	19468
902.617	19274
902.735	19422
902.854	19563
902.973	19377
903.091	18981
903.21	19053
903.328	19053
903.446	19057
903.565	18947
903.683	18954
903.801	18810
903.919	18779
904.038	18791
904.156	18627
904.274	18814
904.392	18616
904.51	18612
904.627	18620
904.745	18661
904.863	18665
904.981	18525
905.098	18346
905.216	18308
905.334	18376
905.451	18350
905.569	18323
905.686	18353
905.803	18418
905.921	18125
906.038	18045
906.155	18174
906.272	17980
906.389	17980
906.506	17870
906.623	18003
906.74	17790
906.857	17714
906.974	17828
907.091	17931
907.208	18045
907.324	17843
907.441	17779
907.557	17733
907.674	17608
907.79	17543
907.907	17566
908.023	17589
908.139	17604
908.256	17414
908.372	17535
908.488	17334
908.604	17311
908.72	17261
908.836	17299
908.952	17334
909.068	17417
909.184	17414
909.3	17296
909.415	17368
909.531	17231
909.647	17041
909.762	17045
909.878	17010
909.993	16972
910.108	16889
910.224	16850
910.339	16984
910.454	16889
910.57	16839
910.685	16672
910.8	17014
910.915	16900
911.03	16839
911.145	16664
911.259	16649
911.374	16653
911.489	16504
911.604	16497
911.718	16352
911.833	16276
911.947	16185
912.062	16093
912.176	16253
912.291	16234
912.405	16272
912.519	16424
912.633	16535
912.748	16337
912.862	16265
912.976	16173
913.09	16074
913.204	16040
913.318	16154
913.431	16188
913.545	16234
913.659	16242
913.772	16036
913.886	15964
914	15888
914.113	15983
914.226	16044
914.34	16010
914.453	15762
914.566	15953
914.68	15892
914.793	15728
914.906	15660
915.019	15519
915.132	15500
915.245	15519
915.358	15504
915.47	15568
915.583	15553
915.696	15591
915.809	15671
915.921	15584
916.034	15454
916.146	15408
916.259	15443
916.371	15435
916.483	15447
916.595	15363
916.708	15393
916.82	15351
916.932	15298
917.044	15279
917.156	15306
917.268	15070
917.38	15192
917.491	15256
917.603	15214
917.715	15165
917.826	15249
917.938	15032
918.049	15066
918.161	15146
918.272	15233
918.384	15176
918.495	15036
918.606	14944
918.717	14861
918.828	14986
918.939	14921
919.05	14880
919.161	14838
919.272	14746
919.383	14762
919.494	14918
919.604	15028
919.715	14941
919.826	14765
919.936	14800
920.047	14883
920.157	14921
920.267	15062
920.378	14925
920.488	14777
920.598	14994
920.708	15097
920.818	15070
920.928	14963
921.038	15291
921.148	15165
921.258	14819
921.368	14781
921.477	14587
921.587	14613
921.697	14389
921.806	14598
921.916	14465
922.025	14332
922.134	14259
922.244	14142
922.353	14221
922.462	14081
922.571	13936
922.68	13967
922.789	13959
922.898	13830
923.007	13708
923.116	13845
923.224	13890
923.333	13788
923.442	13647
923.55	13666
923.659	13712
923.767	13636
923.876	13563
923.984	13738
924.092	13582
924.201	13601
924.309	13609
924.417	13586
924.525	13578
924.633	13483
924.741	14442
924.849	13396
924.956	13476
925.064	13270
925.172	13251
925.279	13240
925.387	13244
925.494	13236
925.602	13301
925.709	13320
925.816	13152
925.924	13160
926.031	13316
926.138	13247
926.245	13164
926.352	13133
926.459	13244
926.566	13289
926.673	13129
926.779	12966
926.886	12962
926.993	12863
927.099	12783
927.206	12768
927.312	12730
927.419	12943
927.525	12829
927.631	12760
927.737	12730
927.843	12642
927.95	12490
928.056	12570
928.162	12669
928.267	12726
928.373	13187
928.479	12662
928.585	12460
928.69	12559
928.796	12616
928.901	12467
929.007	12429
929.112	12551
929.218	12369
929.323	12357
929.428	12369
929.533	12498
929.638	12334
929.743	12281
929.848	12357
929.953	12342
930.058	12190
930.163	12041
930.267	12045
930.372	12053
930.477	11950
930.581	12262
930.685	12026
930.79	11923
930.894	11885
930.998	11851
931.103	12019
931.207	11714
931.311	11535
931.415	11547
931.519	11360
931.623	11280
