Data from test_V78500241_1447.txt Node
Date: Fri Mar 25 15:19:55 CST 2022
User: usil
Spectrometer: V785-0024
Trigger mode: 0
Integration Time (sec): 4.000000E-1
Scans to average: 1
Nonlinearity correction enabled: false
Boxcar width: 0
Storing dark spectrum: false
XAxis mode: Wavelengths
Number of Pixels in Spectrum: 1024
>>>>>Begin Spectral Data<<<<<
801.071	28306
801.214	28150
801.356	27945
801.499	27918
801.641	27736
801.783	27728
801.926	27972
802.068	27781
802.211	27755
802.353	27667
802.496	27637
802.638	27439
802.78	27477
802.923	27374
803.065	27351
803.208	27435
803.35	27469
803.492	27523
803.635	27622
803.777	27538
803.919	27759
804.061	27918
804.204	27789
804.346	27679
804.488	27583
804.63	27770
804.773	27663
804.915	27698
805.057	27854
805.199	27679
805.341	27800
805.483	27895
805.626	27728
805.768	27759
805.91	27789
806.052	27934
806.194	27610
806.336	28032
806.478	27934
806.62	27816
806.762	27838
806.904	28131
807.046	28223
807.188	28280
807.33	28344
807.472	28295
807.614	28116
807.756	28261
807.898	28207
808.04	27975
808.182	28040
808.324	28211
808.465	28112
808.607	28413
808.749	28557
808.891	28744
809.033	28672
809.174	28672
809.316	28493
809.458	28413
809.6	28398
809.741	28626
809.883	28656
810.025	28771
810.166	28797
810.308	28949
810.45	28748
810.591	28736
810.733	28592
810.875	28405
811.016	28466
811.158	28417
811.299	28611
811.441	28759
811.582	28702
811.724	28611
811.865	28481
812.007	28447
812.148	28470
812.29	28599
812.431	28744
812.573	28949
812.714	28923
812.855	29090
812.997	29056
813.138	29246
813.279	29200
813.421	29079
813.562	29178
813.703	28790
813.845	28847
813.986	28542
814.127	28348
814.268	28131
814.41	28284
814.551	28207
814.692	28253
814.833	28261
814.974	28246
815.115	28200
815.256	28109
815.397	28131
815.539	28090
815.68	28070
815.821	28067
815.962	28025
816.103	27972
816.244	27876
816.385	27800
816.526	27823
816.666	27633
816.807	27435
816.948	27530
817.089	27561
817.23	27633
817.371	27386
817.512	27511
817.653	27561
817.793	27462
817.934	27572
818.075	27553
818.216	27485
818.356	27408
818.497	27416
818.638	27298
818.778	27344
818.919	27283
819.06	27378
819.2	27256
819.341	27420
819.481	27549
819.622	27603
819.762	27914
819.903	27846
820.043	27709
820.184	27637
820.324	27717
820.465	27854
820.605	27599
820.746	27526
820.886	27515
821.026	27553
821.167	27580
821.307	27557
821.447	27534
821.588	27313
821.728	27192
821.868	27116
822.008	27096
822.149	27017
822.289	26937
822.429	26800
822.569	26746
822.709	26720
822.849	26526
822.99	26571
823.13	26514
823.27	26336
823.41	26355
823.55	26164
823.69	26256
823.83	26355
823.97	26267
824.11	26107
824.25	26115
824.389	26122
824.529	26172
824.669	26126
824.809	26396
824.949	26164
825.089	26256
825.228	26252
825.368	25951
825.508	26077
825.648	25906
825.787	26065
825.927	26092
826.067	25928
826.206	25936
826.346	26088
826.485	26084
826.625	25989
826.765	26103
826.904	26012
827.044	25807
827.183	25685
827.323	25597
827.462	25715
827.601	25693
827.741	25696
827.88	25750
828.02	25628
828.159	25601
828.298	25685
828.437	25807
828.577	25723
828.716	25845
828.855	25655
828.994	25320
829.134	25407
829.273	25365
829.412	25346
829.551	25396
829.69	25441
829.829	25453
829.968	25601
830.107	25396
830.246	25373
830.385	25304
830.524	25308
830.663	25213
830.802	25103
830.941	25027
831.08	25038
831.219	25187
831.357	25046
831.496	25194
831.635	24916
831.774	24886
831.913	24829
832.051	24856
832.19	24776
832.329	24772
832.467	24776
832.606	24768
832.744	24582
832.883	24692
833.022	24563
833.16	24741
833.299	24715
833.437	24749
833.576	24642
833.714	24635
833.852	24776
833.991	24837
834.129	24726
834.267	24783
834.406	24760
834.544	24905
834.682	24814
834.821	24730
834.959	25069
835.097	24688
835.235	24734
835.373	24661
835.511	24608
835.65	24604
835.788	24593
835.926	24471
836.064	24372
836.202	24380
836.34	24536
836.478	24635
836.615	24582
836.753	24475
836.891	24684
837.029	24627
837.167	24494
837.305	24410
837.443	24391
837.58	24486
837.718	24486
837.856	24380
837.993	24346
838.131	24372
838.269	24296
838.406	24308
838.544	24224
838.681	23980
838.819	24057
838.956	23737
839.094	23973
839.231	23961
839.369	24045
839.506	24235
839.643	23954
839.781	23939
839.918	23779
840.055	23840
840.193	23855
840.33	23752
840.467	23824
840.604	23843
840.742	23958
840.879	23493
841.016	23684
841.153	23722
841.29	23882
841.427	23707
841.564	23893
841.701	23840
841.838	23676
841.975	23623
842.112	23672
842.249	23608
842.385	23531
842.522	23714
842.659	23596
842.796	23562
842.933	23497
843.069	23478
843.206	23455
843.343	23539
843.479	23482
843.616	23509
843.752	23334
843.889	23379
844.025	23326
844.162	23261
844.298	23258
844.435	23284
844.571	23303
844.708	23376
844.844	23337
844.98	23417
845.117	23505
845.253	23254
845.389	23200
845.525	23193
845.661	23109
845.798	22957
845.934	23064
846.07	22995
846.206	23105
846.342	23105
846.478	22923
846.614	22835
846.75	22759
846.886	22767
847.022	22771
847.158	22717
847.294	22831
847.429	22786
847.565	22752
847.701	22946
847.837	22542
847.972	22405
848.108	22557
848.244	22588
848.379	22455
848.515	22405
848.65	22272
848.786	22333
848.921	22394
849.057	22405
849.192	22314
849.328	22386
849.463	22261
849.598	22344
849.734	22215
849.869	22200
850.004	22021
850.14	22188
850.275	22124
850.41	22025
850.545	22135
850.68	22135
850.815	22204
850.95	22223
851.085	22253
851.22	22268
851.355	22215
851.49	22074
851.625	22207
851.76	22082
851.895	22010
852.03	22097
852.165	22029
852.299	22101
852.434	22158
852.569	22204
852.703	22173
852.838	22215
852.973	22341
853.107	22242
853.242	22082
853.376	22010
853.511	21964
853.645	21857
853.78	21941
853.914	21876
854.048	21941
854.183	21899
854.317	21831
854.451	22112
854.585	21915
854.72	21918
854.854	21895
854.988	21876
855.122	21934
855.256	21835
855.39	21945
855.524	21964
855.658	22070
855.792	21972
855.926	22032
856.06	21857
856.194	22063
856.327	21781
856.461	21873
856.595	21926
856.729	21873
856.862	22036
856.996	22070
857.13	21926
857.263	22051
857.397	21991
857.53	21831
857.664	21918
857.797	21949
857.931	22032
858.064	21983
858.197	21987
858.331	21865
858.464	21827
858.597	21800
858.731	21827
858.864	21926
858.997	21770
859.13	21857
859.263	21869
859.396	21884
859.529	21827
859.662	21987
859.795	21800
859.928	21861
860.061	22150
860.194	22101
860.327	21994
860.46	21895
860.592	22078
860.725	22086
860.858	22086
860.99	21850
861.123	21880
861.256	21816
861.388	21915
861.521	22466
861.653	21785
861.786	21652
861.918	21797
862.05	21793
862.183	21800
862.315	21857
862.447	21968
862.58	21797
862.712	21618
862.844	21595
862.976	21694
863.108	21755
863.24	21960
863.372	21515
863.504	21504
863.636	21641
863.768	21599
863.9	21709
864.032	21603
864.164	21511
864.296	21755
864.428	21686
864.559	21679
864.691	21656
864.823	21652
864.954	21660
865.086	21625
865.217	21591
865.349	21416
865.48	21428
865.612	21389
865.743	21545
865.875	21625
866.006	21534
866.137	21545
866.269	21466
866.4	21492
866.531	21378
866.662	21428
866.793	21317
866.924	21313
867.055	21526
867.186	21496
867.317	21378
867.448	21355
867.579	21458
867.71	21275
867.841	21313
867.972	21359
868.103	21504
868.233	21348
868.364	21431
868.495	21469
868.625	21492
868.756	21739
868.886	21633
869.017	21656
869.147	21781
869.278	21747
869.408	21728
869.539	21675
869.669	21808
869.799	21751
869.929	21774
870.06	21709
870.19	21956
870.32	21972
870.45	22048
870.58	22044
870.71	22192
870.84	22169
870.97	21960
871.1	22051
871.23	22246
871.36	22329
871.489	22185
871.619	22192
871.749	22196
871.879	22234
872.008	22390
872.138	22344
872.267	22272
872.397	22124
872.526	22105
872.656	22067
872.785	22112
872.915	22219
873.044	22344
873.173	22413
873.303	22295
873.432	22333
873.561	22367
873.69	22322
873.819	22329
873.948	22261
874.077	22253
874.206	22200
874.335	22200
874.464	22398
874.593	22622
874.722	22443
874.851	22531
874.979	22588
875.108	22512
875.237	22413
875.365	22485
875.494	22375
875.623	22653
875.751	22542
875.88	22535
876.008	22725
876.136	22748
876.265	22900
876.393	23044
876.521	22797
876.65	22934
876.778	22919
876.906	22782
877.034	22816
877.162	22793
877.29	22793
877.418	22805
877.546	22847
877.674	22702
877.802	22687
877.93	22729
878.058	22744
878.185	22774
878.313	22862
878.441	22839
878.568	22508
878.696	22816
878.824	22900
878.951	22885
879.079	22999
879.206	23162
879.333	23121
879.461	22889
879.588	22984
879.715	23136
879.842	22987
879.97	22984
880.097	22641
880.224	22649
880.351	22508
880.478	22618
880.605	22649
880.732	22672
880.859	22828
880.986	22596
881.112	22599
881.239	22577
881.366	22398
881.493	22367
881.619	22192
881.746	22147
881.872	22268
881.999	22150
882.125	22112
882.252	22219
882.378	22287
882.505	22341
882.631	22128
882.757	22010
882.883	21945
883.01	21956
883.136	21915
883.262	21869
883.388	21808
883.514	21998
883.64	21930
883.766	21816
883.892	21606
884.018	21736
884.143	21846
884.269	21937
884.395	21682
884.52	21534
884.646	21568
884.772	21405
884.897	21511
885.023	21641
885.148	21610
885.274	21751
885.399	21644
885.524	21663
885.65	21572
885.775	21625
885.9	21641
886.025	21606
886.15	21656
886.275	21580
886.4	21386
886.525	21462
886.65	21424
886.775	21355
886.9	21667
887.025	21774
887.149	21557
887.274	21325
887.399	21291
887.523	21313
887.648	21294
887.773	21207
887.897	21405
888.021	21332
888.146	21222
888.27	21260
888.395	21355
888.519	21355
888.643	21389
888.767	21469
888.891	21161
889.015	21077
889.139	21108
889.263	21135
889.387	21192
889.511	21260
889.635	21218
889.759	21116
889.883	21062
890.006	21020
890.13	21169
890.254	21001
890.377	21062
890.501	20941
890.624	20758
890.748	21024
890.871	20876
890.995	20724
891.118	20678
891.241	20655
891.364	20788
891.488	20712
891.611	20689
891.734	20640
891.857	20754
891.98	20667
892.103	20724
892.226	20579
892.349	20602
892.471	20492
892.594	20651
892.717	20571
892.839	20533
892.962	20579
893.085	20693
893.207	20587
893.33	20484
893.452	20530
893.575	20602
893.697	20609
893.819	20629
893.941	20849
894.064	20663
894.186	20560
894.308	20434
894.43	20560
894.552	20632
894.674	20625
894.796	20549
894.918	20507
895.04	20488
895.161	20606
895.283	20602
895.405	20488
895.526	20587
895.648	20552
895.769	20575
895.891	20655
896.012	20655
896.134	20526
896.255	20541
896.376	20503
896.498	20549
896.619	20571
896.74	20575
896.861	20644
896.982	20868
897.103	20910
897.224	20781
897.345	20724
897.466	20785
897.587	20689
897.708	20807
897.828	20746
897.949	20788
898.07	20598
898.19	20655
898.311	20807
898.431	20670
898.552	20769
898.672	20845
898.792	20937
898.913	20724
899.033	20552
899.153	20507
899.273	20438
899.393	20377
899.513	20476
899.633	20518
899.753	20431
899.873	20492
899.993	20526
900.113	20473
900.232	20499
900.352	20389
900.472	20233
900.591	20103
900.711	20339
900.83	20180
900.95	20336
901.069	20396
901.189	20103
901.308	20024
901.427	19811
901.546	19799
901.665	19917
901.784	19967
901.904	19803
902.023	19658
902.141	19396
902.26	19400
902.379	19430
902.498	19441
902.617	19339
902.735	19369
902.854	19304
902.973	19236
903.091	19046
903.21	18985
903.328	19072
903.446	18882
903.565	18852
903.683	18837
903.801	18749
903.919	18825
904.038	18684
904.156	18601
904.274	18703
904.392	18570
904.51	18528
904.627	18532
904.745	18620
904.863	18544
904.981	18388
905.098	18327
905.216	18220
905.334	18296
905.451	18285
905.569	18251
905.686	18308
905.803	18327
905.921	18068
906.038	18091
906.155	18091
906.272	17973
906.389	17942
906.506	17992
906.623	17908
906.74	17851
906.857	17623
906.974	17547
907.091	17931
907.208	18019
907.324	17912
907.441	17775
907.557	17512
907.674	17433
907.79	17402
907.907	17520
908.023	17524
908.139	17459
908.256	17440
908.372	17398
908.488	17368
908.604	17250
908.72	17113
908.836	17280
908.952	17098
909.068	17254
909.184	17337
909.3	17242
909.415	17178
909.531	17102
909.647	16930
909.762	16892
909.878	16881
909.993	16987
910.108	16968
910.224	16904
910.339	16892
910.454	16797
910.57	16805
910.685	16721
910.8	17010
910.915	16854
911.03	16763
911.145	16538
911.259	16504
911.374	16504
911.489	16440
911.604	16405
911.718	16303
911.833	16226
911.947	16105
912.062	16025
912.176	16219
912.291	16238
912.405	16196
912.519	16417
912.633	16424
912.748	16310
912.862	16181
912.976	15998
913.09	16044
913.204	16067
913.318	16109
913.431	16101
913.545	16150
913.659	16082
913.772	15983
913.886	15808
914	15831
914.113	15869
914.226	16067
914.34	15884
914.453	15778
914.566	15907
914.68	15797
914.793	15603
914.906	15599
915.019	15393
915.132	15534
915.245	15389
915.358	15435
915.47	15458
915.583	15545
915.696	15530
915.809	15530
915.921	15534
916.034	15405
916.146	15275
916.259	15302
916.371	15428
916.483	15344
916.595	15298
916.708	15344
916.82	15264
916.932	15233
917.044	15169
917.156	15176
917.268	15138
917.38	15131
917.491	15112
917.603	15119
917.715	15085
917.826	15138
917.938	15123
918.049	14906
918.161	15028
918.272	15142
918.384	15123
918.495	14967
918.606	14899
918.717	14807
918.828	14819
918.939	14899
919.05	14720
919.161	14712
919.272	14663
919.383	14697
919.494	14902
919.604	14967
919.715	14826
919.826	14701
919.936	14743
920.047	14880
920.157	14727
920.267	14979
920.378	14773
920.488	14792
920.598	14914
920.708	15081
920.818	14914
920.928	14960
921.038	15127
921.148	15039
921.258	14731
921.368	14689
921.477	14488
921.587	14549
921.697	14465
921.806	14522
921.916	14358
922.025	14199
922.134	14214
922.244	14210
922.353	14142
922.462	14126
922.571	14020
922.68	13818
922.789	13830
922.898	13757
923.007	13814
923.116	13803
923.224	13738
923.333	13651
923.442	13769
923.55	13620
923.659	13632
923.767	13689
923.876	13590
923.984	13769
924.092	13510
924.201	13620
924.309	13544
924.417	13472
924.525	13430
924.633	13529
924.741	14256
924.849	13194
924.956	13343
925.064	13270
925.172	13175
925.279	13164
925.387	13259
925.494	13110
925.602	13308
925.709	13209
925.816	13137
925.924	13099
926.031	13225
926.138	13118
926.245	13168
926.352	13141
926.459	13118
926.566	13209
926.673	13019
926.779	12981
926.886	12928
926.993	12749
927.099	12795
927.206	12707
927.312	12700
927.419	12905
927.525	12730
927.631	12749
927.737	12642
927.843	12654
927.95	12483
928.056	12566
928.162	12585
928.267	12578
928.373	13198
928.479	12642
928.585	12414
928.69	12536
928.796	12589
928.901	12429
929.007	12239
929.112	12494
929.218	12319
929.323	12361
929.428	12281
929.533	12445
929.638	12224
929.743	12361
929.848	12395
929.953	12239
930.058	12182
930.163	12053
930.267	12026
930.372	12076
930.477	11889
930.581	12178
930.685	11946
930.79	11874
930.894	11893
930.998	11840
931.103	11984
931.207	11642
931.311	11554
931.415	11417
931.519	11239
931.623	11220
