Data from test_V78500241_1767.txt Node
Date: Fri Mar 25 15:22:09 CST 2022
User: usil
Spectrometer: V785-0024
Trigger mode: 0
Integration Time (sec): 4.000000E-1
Scans to average: 1
Nonlinearity correction enabled: false
Boxcar width: 0
Storing dark spectrum: false
XAxis mode: Wavelengths
Number of Pixels in Spectrum: 1024
>>>>>Begin Spectral Data<<<<<
801.071	27911
801.214	27751
801.356	27599
801.499	27549
801.641	27424
801.783	27351
801.926	27317
802.068	27614
802.211	27477
802.353	27351
802.496	27051
802.638	27150
802.78	27123
802.923	27192
803.065	26994
803.208	26963
803.35	27070
803.492	27367
803.635	27431
803.777	27176
803.919	27447
804.061	27633
804.204	27469
804.346	27249
804.488	27397
804.63	27184
804.773	27214
804.915	27370
805.057	27473
805.199	27447
805.341	27469
805.483	27447
805.626	27561
805.768	27370
805.91	27519
806.052	27519
806.194	27310
806.336	27557
806.478	27534
806.62	27363
806.762	27591
806.904	27781
807.046	27987
807.188	27918
807.33	27759
807.472	28002
807.614	28006
807.756	27823
807.898	27865
808.04	27660
808.182	27789
808.324	27774
808.465	27819
808.607	28002
808.749	27949
808.891	28131
809.033	28101
809.174	28223
809.316	28158
809.458	28173
809.6	28135
809.741	28204
809.883	28200
810.025	28318
810.166	28405
810.308	28363
810.45	28314
810.591	28249
810.733	28074
810.875	28093
811.016	28078
811.158	27842
811.299	28120
811.441	28344
811.582	28238
811.724	27972
811.865	28013
812.007	28021
812.148	28044
812.29	28139
812.431	28166
812.573	28390
812.714	28512
812.855	28626
812.997	28691
813.138	28873
813.279	28797
813.421	28691
813.562	28535
813.703	28432
813.845	28246
813.986	28067
814.127	27964
814.268	27819
814.41	27831
814.551	27949
814.692	27934
814.833	27766
814.974	27778
815.115	27892
815.256	27606
815.397	27732
815.539	27587
815.68	27625
815.821	27515
815.962	27610
816.103	27466
816.244	27435
816.385	27363
816.526	27272
816.666	27180
816.807	27051
816.948	27108
817.089	27138
817.23	27047
817.371	27043
817.512	27051
817.653	27036
817.793	27036
817.934	27131
818.075	26990
818.216	27020
818.356	27176
818.497	27001
818.638	26921
818.778	26845
818.919	26590
819.06	26891
819.2	26815
819.341	27218
819.481	27112
819.622	27340
819.762	27511
819.903	27275
820.043	27275
820.184	27291
820.324	27241
820.465	27325
820.605	27165
820.746	27237
820.886	27058
821.026	27169
821.167	27180
821.307	27256
821.447	27135
821.588	26960
821.728	26887
821.868	26826
822.008	26526
822.149	26640
822.289	26590
822.429	26309
822.569	26313
822.709	26191
822.849	26134
822.99	26069
823.13	26024
823.27	26073
823.41	25940
823.55	25822
823.69	25852
823.83	25837
823.97	25894
824.11	25670
824.25	25635
824.389	25662
824.529	25784
824.669	25776
824.809	25856
824.949	25738
825.089	25784
825.228	25803
825.368	25708
825.508	25582
825.648	25559
825.787	25571
825.927	25635
826.067	25563
826.206	25464
826.346	25597
826.485	25658
826.625	25582
826.765	25651
826.904	25670
827.044	25441
827.183	25430
827.323	25164
827.462	25365
827.601	25438
827.741	25285
827.88	25335
828.02	25190
828.159	25228
828.298	25369
828.437	25422
828.577	25282
828.716	25419
828.855	25331
828.994	25023
829.134	25126
829.273	25084
829.412	24962
829.551	24992
829.69	25122
829.829	25072
829.968	25076
830.107	25069
830.246	25050
830.385	25084
830.524	24867
830.663	24859
830.802	24798
830.941	24692
831.08	24551
831.219	24658
831.357	24692
831.496	24875
831.635	24601
831.774	24563
831.913	24547
832.051	24452
832.19	24475
832.329	24494
832.467	24315
832.606	24338
832.744	24308
832.883	24285
833.022	24262
833.16	24292
833.299	24407
833.437	24235
833.576	24414
833.714	24441
833.852	24494
833.991	24589
834.129	24464
834.267	24414
834.406	24289
834.544	24429
834.682	24509
834.821	24388
834.959	24467
835.097	24342
835.235	24429
835.373	24418
835.511	24205
835.65	24334
835.788	24182
835.926	24095
836.064	24007
836.202	23973
836.34	24213
836.478	24308
836.615	24315
836.753	24155
836.891	24315
837.029	24220
837.167	24106
837.305	24178
837.443	24076
837.58	24079
837.718	24190
837.856	24083
837.993	23961
838.131	23946
838.269	23935
838.406	24049
838.544	23863
838.681	23764
838.819	23608
838.956	23627
839.094	23524
839.231	23512
839.369	23767
839.506	23961
839.643	23752
839.781	23490
839.918	23425
840.055	23573
840.193	23520
840.33	23337
840.467	23562
840.604	23627
840.742	23623
840.879	23299
841.016	23391
841.153	23292
841.29	23562
841.427	23410
841.564	23551
841.701	23406
841.838	23334
841.975	23383
842.112	23273
842.249	23159
842.385	23216
842.522	23467
842.659	23269
842.796	23277
842.933	23113
843.069	23136
843.206	23151
843.343	23284
843.479	23189
843.616	23181
843.752	23140
843.889	23064
844.025	23098
844.162	22873
844.298	23121
844.435	22927
844.571	23010
844.708	22968
844.844	23094
844.98	23075
845.117	22984
845.253	22900
845.389	22809
845.525	22965
845.661	22881
845.798	22771
845.934	22698
846.07	22710
846.206	22713
846.342	22816
846.478	22645
846.614	22421
846.75	22409
846.886	22459
847.022	22451
847.158	22550
847.294	22538
847.429	22352
847.565	22424
847.701	22637
847.837	22173
847.972	22051
848.108	22314
848.244	22363
848.379	22147
848.515	22135
848.65	22097
848.786	22017
848.921	22002
849.057	22192
849.192	22063
849.328	22124
849.463	21998
849.598	21953
849.734	21800
849.869	21861
850.004	21759
850.14	21835
850.275	21816
850.41	21816
850.545	21759
850.68	21709
850.815	21827
850.95	21720
851.085	21979
851.22	21876
851.355	21762
851.49	21854
851.625	21743
851.76	21865
851.895	21778
852.03	21846
852.165	21778
852.299	21785
852.434	21808
852.569	21781
852.703	21827
852.838	21892
852.973	21934
853.107	21945
853.242	21732
853.376	21534
853.511	21428
853.645	21606
853.78	21717
853.914	21618
854.048	21473
854.183	21603
854.317	21774
854.451	21778
854.585	21629
854.72	21553
854.854	21778
854.988	21663
855.122	21622
855.256	21401
855.39	21625
855.524	21679
855.658	21606
855.792	21705
855.926	21583
856.06	21686
856.194	21762
856.327	21622
856.461	21576
856.595	21660
856.729	21701
856.862	21671
856.996	21641
857.13	21641
857.263	21713
857.397	21808
857.53	21572
857.664	21701
857.797	21641
857.931	21739
858.064	21690
858.197	21663
858.331	21568
858.464	21576
858.597	21481
858.731	21587
858.864	21591
858.997	21625
859.13	21648
859.263	21694
859.396	21572
859.529	21580
859.662	21606
859.795	21603
859.928	21603
860.061	21819
860.194	21850
860.327	21759
860.46	21660
860.592	21629
860.725	21816
860.858	21736
860.99	21637
861.123	21443
861.256	21564
861.388	21622
861.521	22367
861.653	21572
861.786	21492
861.918	21511
862.05	21469
862.183	21530
862.315	21511
862.447	21629
862.58	21564
862.712	21275
862.844	21310
862.976	21454
863.108	21310
863.24	21785
863.372	21321
863.504	21233
863.636	21313
863.768	21332
863.9	21401
864.032	21249
864.164	21291
864.296	21450
864.428	21443
864.559	21454
864.691	21306
864.823	21382
864.954	21336
865.086	21245
865.217	21230
865.349	21055
865.48	21192
865.612	21249
865.743	21332
865.875	21287
866.006	21317
866.137	21268
866.269	21161
866.4	21252
866.531	21096
866.662	21055
866.793	21055
866.924	21142
867.055	21313
867.186	21142
867.317	21195
867.448	20975
867.579	21135
867.71	21104
867.841	21047
867.972	21089
868.103	21142
868.233	21195
868.364	21138
868.495	21218
868.625	21378
868.756	21462
868.886	21264
869.017	21401
869.147	21504
869.278	21534
869.408	21367
869.539	21454
869.669	21557
869.799	21473
869.929	21492
870.06	21477
870.19	21743
870.32	21656
870.45	21557
870.58	21812
870.71	21941
870.84	21838
870.97	21880
871.1	21934
871.23	21949
871.36	21911
871.489	21975
871.619	21926
871.749	22074
871.879	22032
872.008	22048
872.138	21949
872.267	21983
872.397	21835
872.526	21854
872.656	21812
872.785	21850
872.915	22025
873.044	22143
873.173	21865
873.303	22063
873.432	21998
873.561	22143
873.69	21983
873.819	21876
873.948	22105
874.077	22006
874.206	21915
874.335	22051
874.464	22120
874.593	22287
874.722	22185
874.851	22325
874.979	22322
875.108	22337
875.237	22230
875.365	22093
875.494	22158
875.623	22344
875.751	22223
875.88	22215
876.008	22402
876.136	22287
876.265	22679
876.393	22805
876.521	22702
876.65	22717
876.778	22622
876.906	22596
877.034	22607
877.162	22573
877.29	22596
877.418	22656
877.546	22546
877.674	22516
877.802	22611
877.93	22588
878.058	22596
878.185	22531
878.313	22455
878.441	22561
878.568	22394
878.696	22630
878.824	22672
878.951	22706
879.079	22725
879.206	22820
879.333	22618
879.461	22660
879.588	22596
879.715	22729
879.842	22809
879.97	22607
880.097	22455
880.224	22489
880.351	22459
880.478	22363
880.605	22322
880.732	22394
880.859	22588
880.986	22363
881.112	22508
881.239	22188
881.366	22211
881.493	22109
881.619	21930
881.746	22036
881.872	21979
881.999	21956
882.125	21876
882.252	22040
882.378	21949
882.505	21922
882.631	21911
882.757	21747
882.883	21755
883.01	21679
883.136	21648
883.262	21553
883.388	21454
883.514	21686
883.64	21751
883.766	21519
883.892	21504
884.018	21507
884.143	21538
884.269	21595
884.395	21317
884.52	21389
884.646	21317
884.772	21382
884.897	21161
885.023	21336
885.148	21458
885.274	21340
885.399	21275
885.524	21249
885.65	21207
885.775	21374
885.9	21249
886.025	21351
886.15	21306
886.275	21256
886.4	21264
886.525	21359
886.65	21241
886.775	21112
886.9	21336
887.025	21534
887.149	21214
887.274	21180
887.399	21119
887.523	20929
887.648	20914
887.773	21020
887.897	21138
888.021	21028
888.146	21070
888.27	21127
888.395	21195
888.519	20868
888.643	21039
888.767	21093
888.891	20899
889.015	20933
889.139	20876
889.263	20925
889.387	21009
889.511	21096
889.635	20929
889.759	20921
889.883	20807
890.006	20785
890.13	20895
890.254	20804
890.377	20792
890.501	20674
890.624	20476
890.748	20648
890.871	20537
890.995	20514
891.118	20385
891.241	20358
891.364	20503
891.488	20533
891.611	20537
891.734	20370
891.857	20446
891.98	20507
892.103	20484
892.226	20332
892.349	20336
892.471	20168
892.594	20278
892.717	20431
892.839	20282
892.962	20267
893.085	20450
893.207	20320
893.33	20259
893.452	20248
893.575	20317
893.697	20191
893.819	20442
893.941	20431
894.064	20499
894.186	20259
894.308	20214
894.43	20381
894.552	20381
894.674	20431
894.796	20290
894.918	20252
895.04	20298
895.161	20343
895.283	20396
895.405	20252
895.526	20309
895.648	20286
895.769	20355
895.891	20290
896.012	20324
896.134	20225
896.255	20381
896.376	20259
896.498	20305
896.619	20400
896.74	20320
896.861	20393
896.982	20632
897.103	20804
897.224	20587
897.345	20423
897.466	20556
897.587	20465
897.708	20514
897.828	20625
897.949	20469
898.07	20305
898.19	20461
898.311	20461
898.431	20438
898.552	20465
898.672	20541
898.792	20629
898.913	20609
899.033	20358
899.153	20317
899.273	20119
899.393	20263
899.513	20240
899.633	20221
899.753	20419
899.873	20164
899.993	20313
900.113	20221
900.232	20183
900.352	20202
900.472	20134
900.591	20027
900.711	20012
900.83	19932
900.95	20092
901.069	20092
901.189	19978
901.308	19715
901.427	19605
901.546	19632
901.665	19715
901.784	19559
901.904	19415
902.023	19327
902.141	19171
902.26	19175
902.379	19266
902.498	19114
902.617	19091
902.735	19145
902.854	19065
902.973	19031
903.091	18867
903.21	18760
903.328	18772
903.446	18707
903.565	18578
903.683	18601
903.801	18486
903.919	18623
904.038	18486
904.156	18346
904.274	18429
904.392	18338
904.51	18319
904.627	18346
904.745	18357
904.863	18346
904.981	18194
905.098	18068
905.216	17977
905.334	17999
905.451	18007
905.569	17977
905.686	18098
905.803	18011
905.921	17794
906.038	18034
906.155	17790
906.272	17737
906.389	17710
906.506	17516
906.623	17585
906.74	17570
906.857	17474
906.974	17467
907.091	17619
907.208	17627
907.324	17509
907.441	17463
907.557	17353
907.674	17197
907.79	17231
907.907	17261
908.023	17303
908.139	17296
908.256	17227
908.372	17193
908.488	17280
908.604	17048
908.72	17090
908.836	17052
908.952	17003
909.068	17071
909.184	17025
909.3	16991
909.415	17045
909.531	17041
909.647	16729
909.762	16721
909.878	16577
909.993	16672
910.108	16744
910.224	16618
910.339	16683
910.454	16569
910.57	16478
910.685	16497
910.8	16653
910.915	16630
911.03	16641
911.145	16371
911.259	16341
911.374	16318
911.489	16177
911.604	16162
911.718	16021
911.833	16059
911.947	15972
912.062	15983
912.176	16013
912.291	15987
912.405	16109
912.519	16188
912.633	16173
912.748	16078
912.862	15968
912.976	15926
913.09	15709
913.204	15736
913.318	15937
913.431	15937
913.545	15956
913.659	15907
913.772	15751
913.886	15625
914	15705
914.113	15774
914.226	15770
914.34	15720
914.453	15477
914.566	15732
914.68	15534
914.793	15549
914.906	15355
915.019	15272
915.132	15192
915.245	15317
915.358	15249
915.47	15268
915.583	15302
915.696	15294
915.809	15397
915.921	15272
916.034	15230
916.146	15260
916.259	15199
916.371	15275
916.483	15154
916.595	15097
916.708	15062
916.82	15058
916.932	15097
917.044	15074
917.156	15032
917.268	14834
917.38	14925
917.491	14861
917.603	14918
917.715	14944
917.826	15055
917.938	14887
918.049	14819
918.161	14876
918.272	15017
918.384	14948
918.495	14868
918.606	14693
918.717	14541
918.828	14594
918.939	14727
919.05	14571
919.161	14651
919.272	14545
919.383	14492
919.494	14659
919.604	14792
919.715	14564
919.826	14621
919.936	14549
920.047	14655
920.157	14583
920.267	14857
920.378	14518
920.488	14579
920.598	14815
920.708	14944
920.818	14765
920.928	14811
921.038	14887
921.148	14921
921.258	14541
921.368	14549
921.477	14393
921.587	14404
921.697	14294
921.806	14385
921.916	14172
922.025	14077
922.134	13993
922.244	14043
922.353	14020
922.462	13902
922.571	13852
922.68	13712
922.789	13712
922.898	13666
923.007	13647
923.116	13723
923.224	13723
923.333	13681
923.442	13514
923.55	13533
923.659	13514
923.767	13563
923.876	13434
923.984	13559
924.092	13381
924.201	13426
924.309	13335
924.417	13339
924.525	13335
924.633	13289
924.741	14172
924.849	13209
924.956	13320
925.064	13129
925.172	13084
925.279	13038
925.387	13084
925.494	12958
925.602	13240
925.709	13103
925.816	13046
925.924	13072
926.031	13103
926.138	12943
926.245	13050
926.352	12996
926.459	13118
926.566	13160
926.673	12939
926.779	12863
926.886	12844
926.993	12623
927.099	12662
927.206	12589
927.312	12566
927.419	12677
927.525	12703
927.631	12730
927.737	12513
927.843	12528
927.95	12376
928.056	12410
928.162	12448
928.267	12521
928.373	13137
928.479	12578
928.585	12346
928.69	12399
928.796	12521
928.901	12334
929.007	12205
929.112	12296
929.218	12228
929.323	12213
929.428	12129
929.533	12266
929.638	12117
929.743	12197
929.848	12235
929.953	12144
930.058	11996
930.163	11889
930.267	11866
930.372	12079
930.477	11840
930.581	12034
930.685	11893
930.79	11767
930.894	11779
930.998	11828
931.103	11840
931.207	11512
931.311	11406
931.415	11315
931.519	11235
931.623	11124
