Data from test_V78500241_102.txt Node
Date: Fri Mar 25 15:10:34 CST 2022
User: usil
Spectrometer: V785-0024
Trigger mode: 0
Integration Time (sec): 4.000000E-1
Scans to average: 1
Nonlinearity correction enabled: false
Boxcar width: 0
Storing dark spectrum: false
XAxis mode: Wavelengths
Number of Pixels in Spectrum: 1024
>>>>>Begin Spectral Data<<<<<
801.071	28207
801.214	28242
801.356	28082
801.499	27888
801.641	27713
801.783	27876
801.926	27717
802.068	27778
802.211	27580
802.353	27698
802.496	27583
802.638	27424
802.78	27382
802.923	27157
803.065	27119
803.208	27291
803.35	27389
803.492	27435
803.635	27526
803.777	27378
803.919	27416
804.061	27857
804.204	27625
804.346	27454
804.488	27359
804.63	27287
804.773	27260
804.915	27298
805.057	27572
805.199	27462
805.341	27523
805.483	27610
805.626	27408
805.768	27378
805.91	27500
806.052	27511
806.194	27427
806.336	27641
806.478	27515
806.62	27359
806.762	27587
806.904	27709
807.046	27873
807.188	27861
807.33	27781
807.472	27937
807.614	27778
807.756	27854
807.898	27591
808.04	27755
808.182	27686
808.324	27694
808.465	27709
808.607	27964
808.749	27964
808.891	27930
809.033	28234
809.174	28036
809.316	28097
809.458	28082
809.6	27949
809.741	28036
809.883	28055
810.025	28147
810.166	28200
810.308	28280
810.45	28131
810.591	28143
810.733	27964
810.875	27934
811.016	27785
811.158	27785
811.299	27934
811.441	28051
811.582	28078
811.724	27831
811.865	27823
812.007	27922
812.148	27781
812.29	27953
812.431	28154
812.573	28314
812.714	28318
812.855	28401
812.997	28561
813.138	28702
813.279	28607
813.421	28481
813.562	28428
813.703	28204
813.845	28032
813.986	27831
814.127	27629
814.268	27785
814.41	27644
814.551	27641
814.692	27587
814.833	27534
814.974	27473
815.115	27633
815.256	27488
815.397	27397
815.539	27348
815.68	27207
815.821	27203
815.962	27332
816.103	27279
816.244	27024
816.385	26971
816.526	26960
816.666	26777
816.807	26910
816.948	26765
817.089	26796
817.23	26712
817.371	26678
817.512	26667
817.653	26640
817.793	26598
817.934	26693
818.075	26689
818.216	26834
818.356	26659
818.497	26526
818.638	26385
818.778	26328
818.919	26427
819.06	26385
819.2	26587
819.341	26503
819.481	26632
819.622	26705
819.762	26933
819.903	26918
820.043	26651
820.184	26788
820.324	26602
820.465	26686
820.605	26674
820.746	26663
820.886	26549
821.026	26545
821.167	26689
821.307	26564
821.447	26625
821.588	26461
821.728	26438
821.868	26202
822.008	26020
822.149	26005
822.289	25913
822.429	25791
822.569	25578
822.709	25746
822.849	25518
822.99	25460
823.13	25430
823.27	25556
823.41	25293
823.55	25251
823.69	25259
823.83	25377
823.97	25194
824.11	25080
824.25	25225
824.389	25053
824.529	25084
824.669	25027
824.809	25114
824.949	25263
825.089	25240
825.228	25240
825.368	24992
825.508	24741
825.648	24924
825.787	24920
825.927	24901
826.067	24837
826.206	24958
826.346	24829
826.485	24932
826.625	24871
826.765	25038
826.904	24897
827.044	24620
827.183	24642
827.323	24597
827.462	24521
827.601	24475
827.741	24528
827.88	24505
828.02	24323
828.159	24566
828.298	24597
828.437	24464
828.577	24566
828.716	24563
828.855	24540
828.994	24330
829.134	24357
829.273	24353
829.412	24209
829.551	24110
829.69	24258
829.829	24289
829.968	24315
830.107	24315
830.246	24232
830.385	24148
830.524	24114
830.663	24003
830.802	23855
830.941	23779
831.08	23954
831.219	23954
831.357	23908
831.496	23977
831.635	23817
831.774	23718
831.913	23676
832.051	23668
832.19	23551
832.329	23619
832.467	23531
832.606	23478
832.744	23509
832.883	23421
833.022	23326
833.16	23554
833.299	23501
833.437	23539
833.576	23566
833.714	23516
833.852	23501
833.991	23535
834.129	23649
834.267	23539
834.406	23573
834.544	23516
834.682	23474
834.821	23414
834.959	23657
835.097	23372
835.235	23520
835.373	23425
835.511	23558
835.65	23193
835.788	23455
835.926	23197
836.064	23189
836.202	23090
836.34	23414
836.478	23387
836.615	23273
836.753	23280
836.891	23353
837.029	23334
837.167	23124
837.305	23220
837.443	23128
837.58	23113
837.718	23174
837.856	23246
837.993	23121
838.131	23181
838.269	23010
838.406	22976
838.544	22972
838.681	22752
838.819	22577
838.956	22637
839.094	22497
839.231	22603
839.369	22710
839.506	23003
839.643	22831
839.781	22565
839.918	22443
840.055	22481
840.193	22523
840.33	22382
840.467	22508
840.604	22535
840.742	22679
840.879	22360
841.016	22314
841.153	22310
841.29	22485
841.427	22367
841.564	22538
841.701	22497
841.838	22409
841.975	22287
842.112	22474
842.249	22238
842.385	22181
842.522	22386
842.659	22295
842.796	22143
842.933	22150
843.069	22135
843.206	22177
843.343	22166
843.479	22265
843.616	22093
843.752	21953
843.889	21785
844.025	22154
844.162	21949
844.298	22074
844.435	22010
844.571	21979
844.708	21941
844.844	22074
844.98	22078
845.117	21994
845.253	21827
845.389	21781
845.525	21736
845.661	21774
845.798	21682
845.934	21701
846.07	21606
846.206	21625
846.342	21690
846.478	21690
846.614	21416
846.75	21313
846.886	21294
847.022	21378
847.158	21389
847.294	21321
847.429	21374
847.565	21412
847.701	21473
847.837	21024
847.972	21024
848.108	21230
848.244	21119
848.379	20937
848.515	20895
848.65	20925
848.786	20861
848.921	21013
849.057	20971
849.192	21127
849.328	20979
849.463	20998
849.598	20929
849.734	20826
849.869	20918
850.004	20636
850.14	20792
850.275	20693
850.41	20644
850.545	20560
850.68	20575
850.815	20663
850.95	20712
851.085	20720
851.22	20872
851.355	20609
851.49	20651
851.625	20682
851.76	20640
851.895	20514
852.03	20533
852.165	20617
852.299	20674
852.434	20754
852.569	20670
852.703	20644
852.838	20743
852.973	20834
853.107	20785
853.242	20590
853.376	20309
853.511	20161
853.645	20492
853.78	20625
853.914	20560
854.048	20469
854.183	20366
854.317	20404
854.451	20663
854.585	20259
854.72	20450
854.854	20393
854.988	20351
855.122	20450
855.256	20370
855.39	20427
855.524	20499
855.658	20537
855.792	20514
855.926	20473
856.06	20465
856.194	20499
856.327	20454
856.461	20438
856.595	20343
856.729	20450
856.862	20488
856.996	20431
857.13	20469
857.263	20571
857.397	20507
857.53	20438
857.664	20499
857.797	20434
857.931	20579
858.064	20400
858.197	20575
858.331	20415
858.464	20294
858.597	20256
858.731	20225
858.864	20389
858.997	20332
859.13	20469
859.263	20415
859.396	20400
859.529	20366
859.662	20412
859.795	20214
859.928	20343
860.061	20362
860.194	20530
860.327	20339
860.46	20381
860.592	20533
860.725	20499
860.858	20495
860.99	20290
861.123	20252
861.256	20187
861.388	20408
861.521	21070
861.653	20187
861.786	20278
861.918	20202
862.05	20282
862.183	20362
862.315	20404
862.447	20446
862.58	20381
862.712	20176
862.844	20195
862.976	20248
863.108	20176
863.24	20556
863.372	20122
863.504	20077
863.636	20122
863.768	20115
863.9	20142
864.032	19986
864.164	20005
864.296	20043
864.428	20210
864.559	20122
864.691	20069
864.823	20058
864.954	19993
865.086	19986
865.217	19982
865.349	19982
865.48	20008
865.612	20039
865.743	20039
865.875	20050
866.006	19963
866.137	20153
866.269	19944
866.4	19940
866.531	20016
866.662	19940
866.793	19818
866.924	19989
867.055	19940
867.186	19879
867.317	19818
867.448	19738
867.579	20024
867.71	19856
867.841	19826
867.972	20005
868.103	19887
868.233	19925
868.364	19887
868.495	20073
868.625	20081
868.756	20290
868.886	20084
869.017	20088
869.147	20301
869.278	20271
869.408	20195
869.539	20084
869.669	20145
869.799	20199
869.929	20206
870.06	20275
870.19	20575
870.32	20442
870.45	20419
870.58	20484
870.71	20667
870.84	20735
870.97	20511
871.1	20621
871.23	20682
871.36	20754
871.489	20602
871.619	20758
871.749	20689
871.879	20659
872.008	20914
872.138	20750
872.267	20682
872.397	20568
872.526	20571
872.656	20533
872.785	20564
872.915	20754
873.044	20815
873.173	20746
873.303	20769
873.432	20765
873.561	20933
873.69	20663
873.819	20796
873.948	20883
874.077	20659
874.206	20750
874.335	20670
874.464	20861
874.593	20971
874.722	20994
874.851	21062
874.979	21119
875.108	21123
875.237	20979
875.365	20914
875.494	21028
875.623	21043
875.751	20948
875.88	21028
876.008	21104
876.136	21176
876.265	21443
876.393	21572
876.521	21507
876.65	21561
876.778	21401
876.906	21302
877.034	21287
877.162	21310
877.29	21241
877.418	21492
877.546	21317
877.674	21329
877.802	21401
877.93	21310
878.058	21325
878.185	21237
878.313	21378
878.441	21344
878.568	21150
878.696	21294
878.824	21370
878.951	21378
879.079	21523
879.206	21599
879.333	21435
879.461	21431
879.588	21595
879.715	21450
879.842	21663
879.97	21382
880.097	21199
880.224	21222
880.351	21264
880.478	21241
880.605	21116
880.732	21127
880.859	21477
880.986	21321
881.112	21089
881.239	21070
881.366	20880
881.493	20914
881.619	20674
881.746	20697
881.872	20785
881.999	20686
882.125	20712
882.252	20834
882.378	20849
882.505	20861
882.631	20659
882.757	20511
882.883	20651
883.01	20644
883.136	20564
883.262	20362
883.388	20434
883.514	20552
883.64	20530
883.766	20434
883.892	20328
884.018	20339
884.143	20606
884.269	20606
884.395	20168
884.52	20214
884.646	20305
884.772	20107
884.897	20153
885.023	20069
885.148	20248
885.274	20278
885.399	20191
885.524	20195
885.65	20050
885.775	20134
885.9	20122
886.025	20286
886.15	20240
886.275	20107
886.4	20035
886.525	20062
886.65	20092
886.775	20130
886.9	20221
887.025	20355
887.149	20092
887.274	19955
887.399	19894
887.523	19906
887.648	19879
887.773	19803
887.897	19928
888.021	19936
888.146	19864
888.27	19890
888.395	20008
888.519	19993
888.643	19993
888.767	20031
888.891	19795
889.015	19685
889.139	19761
889.263	19788
889.387	19788
889.511	19879
889.635	19890
889.759	19632
889.883	19670
890.006	19586
890.13	19795
890.254	19616
890.377	19662
890.501	19502
890.624	19396
890.748	19506
890.871	19320
890.995	19308
891.118	19107
891.241	19301
891.364	19308
891.488	19430
891.611	19232
891.734	19354
891.857	19221
891.98	19228
892.103	19441
892.226	19297
892.349	19236
892.471	19012
892.594	19206
892.717	19190
892.839	19282
892.962	19213
893.085	19240
893.207	19259
893.33	19065
893.452	19164
893.575	19160
893.697	19095
893.819	19327
893.941	19434
894.064	19255
894.186	19164
894.308	19148
894.43	19324
894.552	19396
894.674	19419
894.796	19088
894.918	19194
895.04	19107
895.161	19263
895.283	19240
895.405	19194
895.526	19225
895.648	19232
895.769	19289
895.891	19255
896.012	19365
896.134	19251
896.255	19236
896.376	19259
896.498	19160
896.619	19350
896.74	19278
896.861	19411
896.982	19605
897.103	19715
897.224	19594
897.345	19529
897.466	19396
897.587	19506
897.708	19605
897.828	19559
897.949	19403
898.07	19274
898.19	19388
898.311	19533
898.431	19468
898.552	19438
898.672	19460
898.792	19548
898.913	19381
899.033	19263
899.153	19312
899.273	18977
899.393	19141
899.513	19270
899.633	19187
899.753	19240
899.873	19126
899.993	19095
900.113	19183
900.232	19297
900.352	19164
900.472	19057
900.591	18909
900.711	18928
900.83	18954
900.95	19145
901.069	19118
901.189	18966
901.308	18506
901.427	18612
901.546	18582
901.665	18585
901.784	18700
901.904	18585
902.023	18327
902.141	18133
902.26	18114
902.379	18197
902.498	18083
902.617	18026
902.735	18064
902.854	18155
902.973	18019
903.091	17771
903.21	17718
903.328	17779
903.446	17722
903.565	17623
903.683	17520
903.801	17505
903.919	17562
904.038	17482
904.156	17341
904.274	17387
904.392	17440
904.51	17410
904.627	17372
904.745	17383
904.863	17482
904.981	17090
905.098	17079
905.216	17041
905.334	17060
905.451	17018
905.569	16949
905.686	16938
905.803	17113
905.921	16774
906.038	16908
906.155	16866
906.272	16721
906.389	16664
906.506	16580
906.623	16611
906.74	16497
906.857	16554
906.974	16440
907.091	16588
907.208	16637
907.324	16611
907.441	16451
907.557	16306
907.674	16276
907.79	16223
907.907	16299
908.023	16261
908.139	16143
908.256	16196
908.372	16192
908.488	16078
908.604	15953
908.72	15930
908.836	15972
908.952	15816
909.068	15937
909.184	15991
909.3	15991
909.415	15899
909.531	15869
909.647	15671
909.762	15732
909.878	15633
909.993	15641
910.108	15530
910.224	15564
910.339	15603
910.454	15526
910.57	15424
910.685	15519
910.8	15622
910.915	15599
911.03	15469
911.145	15272
911.259	15207
911.374	15294
911.489	15180
911.604	15119
911.718	15039
911.833	14941
911.947	14750
912.062	14777
912.176	14994
912.291	15013
912.405	14918
912.519	15074
912.633	15157
912.748	15032
912.862	14918
912.976	14781
913.09	14613
913.204	14815
913.318	14792
913.431	14960
913.545	14906
913.659	14929
913.772	14853
913.886	14636
914	14579
914.113	14804
914.226	14777
914.34	14705
914.453	14511
914.566	14617
914.68	14518
914.793	14476
914.906	14332
915.019	14221
915.132	14221
915.245	14355
915.358	14305
915.47	14191
915.583	14317
915.696	14237
915.809	14389
915.921	14370
916.034	14149
916.146	14149
916.259	14180
916.371	14191
916.483	14229
916.595	14172
916.708	14073
916.82	13974
916.932	14035
917.044	13986
917.156	14058
917.268	13906
917.38	13936
917.491	13955
917.603	13963
917.715	14058
917.826	14012
917.938	13894
918.049	13883
918.161	13826
918.272	13997
918.384	14001
918.495	13913
918.606	13742
918.717	13719
918.828	13750
918.939	13738
919.05	13605
919.161	13696
919.272	13472
919.383	13491
919.494	13776
919.604	13925
919.715	13670
919.826	13578
919.936	13597
920.047	13689
920.157	13719
920.267	13814
920.378	13704
920.488	13597
920.598	13780
920.708	13986
920.818	13788
920.928	13791
921.038	13974
921.148	13902
921.258	13582
921.368	13575
921.477	13377
921.587	13362
921.697	13308
921.806	13354
921.916	13308
922.025	13145
922.134	13015
922.244	12920
922.353	13149
922.462	12985
922.571	12840
922.68	12669
922.789	12707
922.898	12673
923.007	12654
923.116	12787
923.224	12688
923.333	12673
923.442	12517
923.55	12498
923.659	12574
923.767	12589
923.876	12452
923.984	12490
924.092	12502
924.201	12452
924.309	12506
924.417	12486
924.525	12353
924.633	12292
924.741	13198
924.849	12155
924.956	12315
925.064	12110
925.172	12045
925.279	12125
925.387	12144
925.494	12190
925.602	12285
925.709	12285
925.816	12064
925.924	12079
926.031	12258
926.138	12041
926.245	12171
926.352	11961
926.459	12144
926.566	12163
926.673	12053
926.779	11859
926.886	11923
926.993	11809
927.099	11748
927.206	11688
927.312	11684
927.419	11729
927.525	11707
927.631	11741
927.737	11646
927.843	11558
927.95	11524
928.056	11596
928.162	11592
928.267	11573
928.373	12190
928.479	11695
928.585	11410
928.69	11642
928.796	11562
928.901	11345
929.007	11303
929.112	11383
929.218	11410
929.323	11322
929.428	11280
929.533	11433
929.638	11124
929.743	11269
929.848	11398
929.953	11326
930.058	11258
930.163	10976
930.267	10995
930.372	11109
930.477	10942
930.581	11220
930.685	11064
930.79	10854
930.894	10957
930.998	10873
931.103	11022
931.207	10733
931.311	10607
931.415	10481
931.519	10295
931.623	10291
