Data from test_V78500241_1439.txt Node
Date: Fri Mar 25 15:19:52 CST 2022
User: usil
Spectrometer: V785-0024
Trigger mode: 0
Integration Time (sec): 4.000000E-1
Scans to average: 1
Nonlinearity correction enabled: false
Boxcar width: 0
Storing dark spectrum: false
XAxis mode: Wavelengths
Number of Pixels in Spectrum: 1024
>>>>>Begin Spectral Data<<<<<
801.071	27922
801.214	28067
801.356	27873
801.499	27595
801.641	27561
801.783	27568
801.926	27694
802.068	27606
802.211	27477
802.353	27526
802.496	27226
802.638	27218
802.78	27233
802.923	27211
803.065	27161
803.208	27127
803.35	27313
803.492	27332
803.635	27435
803.777	27275
803.919	27359
804.061	27781
804.204	27424
804.346	27389
804.488	27260
804.63	27458
804.773	27458
804.915	27408
805.057	27492
805.199	27458
805.341	27523
805.483	27427
805.626	27622
805.768	27454
805.91	27682
806.052	27637
806.194	27542
806.336	27808
806.478	27682
806.62	27610
806.762	27709
806.904	27827
807.046	28166
807.188	28040
807.33	28002
807.472	28074
807.614	27956
807.756	28253
807.898	27918
808.04	27892
808.182	27964
808.324	27960
808.465	27998
808.607	28185
808.749	28234
808.891	28310
809.033	28318
809.174	28314
809.316	28318
809.458	28226
809.6	28276
809.741	28382
809.883	28478
810.025	28611
810.166	28577
810.308	28497
810.45	28413
810.591	28493
810.733	28382
810.875	28375
811.016	28158
811.158	28169
811.299	28356
811.441	28360
811.582	28360
811.724	28295
811.865	28306
812.007	28303
812.148	28337
812.29	28371
812.431	28417
812.573	28641
812.714	28679
812.855	28771
812.997	28873
813.138	28946
813.279	28885
813.421	28790
813.562	28862
813.703	28603
813.845	28577
813.986	28333
814.127	28040
814.268	28006
814.41	28036
814.551	27911
814.692	28044
814.833	27846
814.974	28082
815.115	27953
815.256	27888
815.397	27770
815.539	27876
815.68	27724
815.821	27781
815.962	27831
816.103	27660
816.244	27641
816.385	27488
816.526	27538
816.666	27485
816.807	27298
816.948	27355
817.089	27435
817.23	27252
817.371	27222
817.512	27447
817.653	27203
817.793	27256
817.934	27275
818.075	27214
818.216	27336
818.356	27081
818.497	27081
818.638	26990
818.778	27085
818.919	27020
819.06	27116
819.2	27241
819.341	27222
819.481	27203
819.622	27275
819.762	27557
819.903	27614
820.043	27542
820.184	27370
820.324	27374
820.465	27450
820.605	27416
820.746	27351
820.886	27176
821.026	27397
821.167	27370
821.307	27447
821.447	27272
821.588	27188
821.728	26963
821.868	26864
822.008	26651
822.149	26701
822.289	26648
822.429	26434
822.569	26488
822.709	26423
822.849	26351
822.99	26320
823.13	26233
823.27	26176
823.41	26062
823.55	25978
823.69	26088
823.83	26134
823.97	26016
824.11	25860
824.25	25750
824.389	25830
824.529	25879
824.669	25719
824.809	26092
824.949	25959
825.089	25875
825.228	25731
825.368	25693
825.508	25799
825.648	25620
825.787	25693
825.927	25879
826.067	25670
826.206	25772
826.346	25799
826.485	25784
826.625	25803
826.765	25906
826.904	25868
827.044	25479
827.183	25434
827.323	25483
827.462	25479
827.601	25540
827.741	25499
827.88	25514
828.02	25377
828.159	25556
828.298	25544
828.437	25518
828.577	25297
828.716	25529
828.855	25335
828.994	25133
829.134	25179
829.273	25270
829.412	25148
829.551	24954
829.69	25107
829.829	25285
829.968	25209
830.107	25240
830.246	25183
830.385	25171
830.524	25038
830.663	24989
830.802	24932
830.941	24741
831.08	24798
831.219	24829
831.357	24844
831.496	25061
831.635	24810
831.774	24696
831.913	24589
832.051	24627
832.19	24521
832.329	24722
832.467	24479
832.606	24384
832.744	24380
832.883	24369
833.022	24350
833.16	24403
833.299	24505
833.437	24338
833.576	24544
833.714	24578
833.852	24521
833.991	24517
834.129	24646
834.267	24559
834.406	24475
834.544	24525
834.682	24566
834.821	24460
834.959	24578
835.097	24433
835.235	24460
835.373	24475
835.511	24517
835.65	24315
835.788	24270
835.926	24182
836.064	24323
836.202	24095
836.34	24372
836.478	24422
836.615	24266
836.753	24243
836.891	24445
837.029	24452
837.167	24117
837.305	24152
837.443	24121
837.58	24224
837.718	24190
837.856	24224
837.993	24034
838.131	24148
838.269	23977
838.406	24034
838.544	23996
838.681	23798
838.819	23817
838.956	23741
839.094	23611
839.231	23657
839.369	23798
839.506	24011
839.643	23863
839.781	23642
839.918	23615
840.055	23547
840.193	23577
840.33	23505
840.467	23581
840.604	23558
840.742	23843
840.879	23520
841.016	23417
841.153	23440
841.29	23566
841.427	23638
841.564	23444
841.701	23649
841.838	23387
841.975	23440
842.112	23337
842.249	23341
842.385	23292
842.522	23410
842.659	23345
842.796	23391
842.933	23334
843.069	23071
843.206	23337
843.343	23273
843.479	23330
843.616	23261
843.752	23060
843.889	23071
844.025	23094
844.162	23056
844.298	23166
844.435	23143
844.571	22930
844.708	22995
844.844	23178
844.98	23216
845.117	23155
845.253	23064
845.389	22915
845.525	23086
845.661	22866
845.798	22729
845.934	22740
846.07	22649
846.206	22850
846.342	22854
846.478	22786
846.614	22542
846.75	22481
846.886	22554
847.022	22512
847.158	22538
847.294	22447
847.429	22630
847.565	22481
847.701	22755
847.837	22303
847.972	22181
848.108	22284
848.244	22337
848.379	22116
848.515	22090
848.65	22086
848.786	22207
848.921	22200
849.057	22143
849.192	22249
849.328	22226
849.463	22177
849.598	22059
849.734	22128
849.869	21937
850.004	21869
850.14	21964
850.275	21793
850.41	21880
850.545	21846
850.68	21831
850.815	21842
850.95	21842
851.085	22021
851.22	22017
851.355	21918
851.49	21804
851.625	21926
851.76	21827
851.895	21778
852.03	21774
852.165	21876
852.299	21835
852.434	21972
852.569	21903
852.703	21972
852.838	21960
852.973	22025
853.107	22010
853.242	21728
853.376	21759
853.511	21648
853.645	21701
853.78	21743
853.914	21766
854.048	21603
854.183	21644
854.317	21838
854.451	21873
854.585	21671
854.72	21812
854.854	21850
854.988	21660
855.122	21766
855.256	21545
855.39	21736
855.524	21823
855.658	21762
855.792	21747
855.926	21652
856.06	21774
856.194	21899
856.327	21823
856.461	21690
856.595	21614
856.729	21690
856.862	21739
856.996	21797
857.13	21667
857.263	21709
857.397	21736
857.53	21709
857.664	21800
857.797	21838
857.931	21637
858.064	21770
858.197	21774
858.331	21751
858.464	21648
858.597	21610
858.731	21633
858.864	21736
858.997	21652
859.13	21568
859.263	21652
859.396	21728
859.529	21698
859.662	21675
859.795	21713
859.928	21690
860.061	21842
860.194	21945
860.327	21663
860.46	21728
860.592	21751
860.725	21895
860.858	21789
860.99	21800
861.123	21587
861.256	21671
861.388	21698
861.521	22139
861.653	21511
861.786	21564
861.918	21523
862.05	21576
862.183	21481
862.315	21595
862.447	21705
862.58	21561
862.712	21340
862.844	21511
862.976	21492
863.108	21454
863.24	21793
863.372	21306
863.504	21367
863.636	21344
863.768	21367
863.9	21511
864.032	21386
864.164	21336
864.296	21348
864.428	21519
864.559	21473
864.691	21553
864.823	21408
864.954	21233
865.086	21424
865.217	21466
865.349	21214
865.48	21279
865.612	21252
865.743	21412
865.875	21272
866.006	21317
866.137	21298
866.269	21310
866.4	21313
866.531	21306
866.662	21203
866.793	21203
866.924	21195
867.055	21214
867.186	21230
867.317	21150
867.448	21173
867.579	21123
867.71	21173
867.841	21100
867.972	21264
868.103	21192
868.233	21211
868.364	21150
868.495	21332
868.625	21382
868.756	21469
868.886	21405
869.017	21466
869.147	21564
869.278	21439
869.408	21408
869.539	21401
869.669	21481
869.799	21530
869.929	21625
870.06	21561
870.19	21762
870.32	21656
870.45	21838
870.58	21831
870.71	21869
870.84	21915
870.97	21819
871.1	21816
871.23	21983
871.36	22051
871.489	21869
871.619	21968
871.749	22013
871.879	22048
872.008	22036
872.138	22048
872.267	22120
872.397	21922
872.526	21816
872.656	21888
872.785	21842
872.915	22067
873.044	22036
873.173	22029
873.303	22074
873.432	22139
873.561	22139
873.69	22082
873.819	21941
873.948	22112
874.077	22139
874.206	22029
874.335	22112
874.464	22128
874.593	22257
874.722	22238
874.851	22295
874.979	22356
875.108	22322
875.237	22234
875.365	22109
875.494	22325
875.623	22398
875.751	22325
875.88	22287
876.008	22409
876.136	22554
876.265	22622
876.393	22847
876.521	22763
876.65	22736
876.778	22656
876.906	22554
877.034	22546
877.162	22641
877.29	22470
877.418	22603
877.546	22596
877.674	22603
877.802	22580
877.93	22687
878.058	22656
878.185	22546
878.313	22580
878.441	22656
878.568	22409
878.696	22603
878.824	22637
878.951	22801
879.079	22782
879.206	22869
879.333	22729
879.461	22516
879.588	22694
879.715	22725
879.842	22968
879.97	22618
880.097	22413
880.224	22436
880.351	22569
880.478	22519
880.605	22341
880.732	22462
880.859	22653
880.986	22493
881.112	22462
881.239	22215
881.366	22230
881.493	21994
881.619	22154
881.746	22029
881.872	22051
881.999	22017
882.125	21884
882.252	22086
882.378	21892
882.505	22124
882.631	21865
882.757	21679
882.883	21800
883.01	21705
883.136	21644
883.262	21568
883.388	21504
883.514	21682
883.64	21618
883.766	21648
883.892	21587
884.018	21549
884.143	21614
884.269	21644
884.395	21481
884.52	21329
884.646	21370
884.772	21176
884.897	21302
885.023	21298
885.148	21370
885.274	21572
885.399	21370
885.524	21241
885.65	21389
885.775	21363
885.9	21272
886.025	21545
886.15	21485
886.275	21298
886.4	21249
886.525	21336
886.65	21195
886.775	21207
886.9	21397
887.025	21504
887.149	21321
887.274	21188
887.399	21207
887.523	21085
887.648	21112
887.773	20971
887.897	21089
888.021	21173
888.146	21062
888.27	21085
888.395	21214
888.519	21150
888.643	21192
888.767	21207
888.891	21028
889.015	20994
889.139	20960
889.263	20906
889.387	21138
889.511	21062
889.635	21085
889.759	20750
889.883	20853
890.006	20876
890.13	20937
890.254	20902
890.377	20811
890.501	20545
890.624	20625
890.748	20689
890.871	20499
890.995	20606
891.118	20526
891.241	20484
891.364	20530
891.488	20583
891.611	20507
891.734	20450
891.857	20625
891.98	20518
892.103	20492
892.226	20480
892.349	20324
892.471	20278
892.594	20362
892.717	20366
892.839	20454
892.962	20419
893.085	20427
893.207	20389
893.33	20336
893.452	20298
893.575	20366
893.697	20389
893.819	20412
893.941	20590
894.064	20488
894.186	20362
894.308	20294
894.43	20412
894.552	20583
894.674	20415
894.796	20290
894.918	20343
895.04	20499
895.161	20446
895.283	20381
895.405	20225
895.526	20278
895.648	20370
895.769	20393
895.891	20328
896.012	20393
896.134	20438
896.255	20400
896.376	20381
896.498	20389
896.619	20469
896.74	20423
896.861	20362
896.982	20663
897.103	20826
897.224	20583
897.345	20571
897.466	20575
897.587	20708
897.708	20765
897.828	20530
897.949	20556
898.07	20370
898.19	20511
898.311	20579
898.431	20461
898.552	20541
898.672	20533
898.792	20644
898.913	20670
899.033	20404
899.153	20408
899.273	20244
899.393	20233
899.513	20290
899.633	20317
899.753	20248
899.873	20168
899.993	20351
900.113	20278
900.232	20351
900.352	20187
900.472	20039
900.591	20084
900.711	20107
900.83	20115
900.95	20237
901.069	20195
901.189	19974
901.308	19784
901.427	19658
901.546	19632
901.665	19578
901.784	19738
901.904	19468
902.023	19468
902.141	19221
902.26	19187
902.379	19274
902.498	19278
902.617	19179
902.735	19270
902.854	19255
902.973	19160
903.091	18833
903.21	18909
903.328	18825
903.446	18745
903.565	18612
903.683	18547
903.801	18601
903.919	18536
904.038	18616
904.156	18426
904.274	18445
904.392	18486
904.51	18486
904.627	18350
904.745	18563
904.863	18399
904.981	18171
905.098	18098
905.216	18140
905.334	18049
905.451	18087
905.569	18060
905.686	18171
905.803	18060
905.921	17969
906.038	18045
906.155	17965
906.272	17821
906.389	17859
906.506	17615
906.623	17558
906.74	17619
906.857	17516
906.974	17543
907.091	17661
907.208	17805
907.324	17615
907.441	17562
907.557	17326
907.674	17334
907.79	17265
907.907	17296
908.023	17349
908.139	17383
908.256	17258
908.372	17246
908.488	17170
908.604	17128
908.72	17033
908.836	17052
908.952	16995
909.068	17071
909.184	17197
909.3	16949
909.415	17041
909.531	17147
909.647	16869
909.762	16790
909.878	16710
909.993	16782
910.108	16774
910.224	16740
910.339	16752
910.454	16622
910.57	16512
910.685	16489
910.8	16733
910.915	16710
911.03	16535
911.145	16504
911.259	16405
911.374	16424
911.489	16280
911.604	16341
911.718	16097
911.833	16036
911.947	15949
912.062	15964
912.176	16010
912.291	15987
912.405	16071
912.519	16223
912.633	16265
912.748	16101
912.862	16036
912.976	15907
913.09	15812
913.204	15861
913.318	15873
913.431	15968
913.545	15918
913.659	15998
913.772	15793
913.886	15701
914	15713
914.113	15755
914.226	15823
914.34	15774
914.453	15622
914.566	15641
914.68	15618
914.793	15561
914.906	15420
915.019	15279
915.132	15348
915.245	15275
915.358	15332
915.47	15420
915.583	15310
915.696	15340
915.809	15389
915.921	15408
916.034	15294
916.146	15176
916.259	15119
916.371	15275
916.483	15291
916.595	15157
916.708	15119
916.82	15112
916.932	15055
917.044	15043
917.156	14883
917.268	14971
917.38	14956
917.491	14910
917.603	15028
917.715	14979
917.826	15093
917.938	14971
918.049	14743
918.161	14883
918.272	15104
918.384	14986
918.495	14849
918.606	14716
918.717	14617
918.828	14773
918.939	14705
919.05	14648
919.161	14522
919.272	14469
919.383	14549
919.494	14686
919.604	14891
919.715	14712
919.826	14568
919.936	14598
920.047	14731
920.157	14762
920.267	14739
920.378	14697
920.488	14579
920.598	14800
920.708	14975
920.818	14712
920.928	14754
921.038	14895
921.148	14804
921.258	14560
921.368	14434
921.477	14317
921.587	14408
921.697	14259
921.806	14320
921.916	14305
922.025	14115
922.134	14077
922.244	13993
922.353	14043
922.462	13978
922.571	13799
922.68	13670
922.789	13704
922.898	13712
923.007	13590
923.116	13693
923.224	13582
923.333	13590
923.442	13514
923.55	13483
923.659	13510
923.767	13487
923.876	13426
923.984	13597
924.092	13407
924.201	13453
924.309	13499
924.417	13339
924.525	13415
924.633	13438
924.741	14149
924.849	13217
924.956	13266
925.064	13088
925.172	13004
925.279	13057
925.387	13065
925.494	13107
925.602	13118
925.709	13133
925.816	12958
925.924	12977
926.031	13179
926.138	13084
926.245	12985
926.352	12875
926.459	13042
926.566	13080
926.673	12954
926.779	12871
926.886	12825
926.993	12642
927.099	12646
927.206	12547
927.312	12464
927.419	12665
927.525	12681
927.631	12642
927.737	12528
927.843	12479
927.95	12327
928.056	12521
928.162	12437
928.267	12509
928.373	12962
928.479	12509
928.585	12308
928.69	12475
928.796	12403
928.901	12365
929.007	12197
929.112	12254
929.218	12239
929.323	12205
929.428	12220
929.533	12258
929.638	12121
929.743	12125
929.848	12140
929.953	12079
930.058	12053
930.163	11870
930.267	11885
930.372	12011
930.477	11775
930.581	12045
930.685	11882
930.79	11771
930.894	11786
930.998	11718
931.103	11912
931.207	11448
931.311	11490
931.415	11391
931.519	11143
931.623	11162
