Data from test_V78500241_1534.txt Node
Date: Fri Mar 25 15:20:32 CST 2022
User: usil
Spectrometer: V785-0024
Trigger mode: 0
Integration Time (sec): 4.000000E-1
Scans to average: 1
Nonlinearity correction enabled: false
Boxcar width: 0
Storing dark spectrum: false
XAxis mode: Wavelengths
Number of Pixels in Spectrum: 1024
>>>>>Begin Spectral Data<<<<<
801.071	28215
801.214	28078
801.356	27766
801.499	27827
801.641	27488
801.783	27614
801.926	27701
802.068	27504
802.211	27637
802.353	27610
802.496	27466
802.638	27264
802.78	27306
802.923	27287
803.065	27176
803.208	27184
803.35	27344
803.492	27447
803.635	27549
803.777	27367
803.919	27583
804.061	27884
804.204	27572
804.346	27526
804.488	27435
804.63	27553
804.773	27488
804.915	27511
805.057	27656
805.199	27504
805.341	27606
805.483	27667
805.626	27743
805.768	27576
805.91	27629
806.052	27682
806.194	27641
806.336	27774
806.478	27622
806.62	27641
806.762	27778
806.904	27800
807.046	28162
807.188	27941
807.33	28147
807.472	28116
807.614	28139
807.756	28006
807.898	28021
808.04	27865
808.182	27808
808.324	27987
808.465	27937
808.607	28337
808.749	28234
808.891	28417
809.033	28546
809.174	28405
809.316	28284
809.458	28322
809.6	28329
809.741	28497
809.883	28459
810.025	28668
810.166	28649
810.308	28580
810.45	28611
810.591	28481
810.733	28344
810.875	28382
811.016	28284
811.158	28139
811.299	28363
811.441	28531
811.582	28432
811.724	28379
811.865	28451
812.007	28341
812.148	28375
812.29	28470
812.431	28447
812.573	28710
812.714	28687
812.855	28873
812.997	29025
813.138	29121
813.279	28908
813.421	29018
813.562	28934
813.703	28729
813.845	28577
813.986	28063
814.127	28120
814.268	27994
814.41	28029
814.551	27994
814.692	28063
814.833	27937
814.974	28086
815.115	28131
815.256	27823
815.397	27945
815.539	27934
815.68	27876
815.821	27644
815.962	27842
816.103	27728
816.244	27572
816.385	27686
816.526	27587
816.666	27424
816.807	27408
816.948	27279
817.089	27492
817.23	27260
817.371	27252
817.512	27313
817.653	27252
817.793	27321
817.934	27302
818.075	27291
818.216	27336
818.356	27355
818.497	27294
818.638	27112
818.778	27055
818.919	27146
819.06	27188
819.2	27214
819.341	27260
819.481	27393
819.622	27534
819.762	27663
819.903	27557
820.043	27477
820.184	27473
820.324	27405
820.465	27431
820.605	27504
820.746	27526
820.886	27199
821.026	27450
821.167	27332
821.307	27348
821.447	27294
821.588	27275
821.728	27161
821.868	26891
822.008	26914
822.149	26834
822.289	26777
822.429	26518
822.569	26450
822.709	26282
822.849	26362
822.99	26393
823.13	26214
823.27	26313
823.41	26103
823.55	26008
823.69	26119
823.83	26031
823.97	26142
824.11	25887
824.25	25921
824.389	25837
824.529	26077
824.669	25921
824.809	26008
824.949	26092
825.089	26024
825.228	26062
825.368	25769
825.508	25647
825.648	25887
825.787	25902
825.927	25788
826.067	25807
826.206	25799
826.346	25746
826.485	25947
826.625	25738
826.765	25864
826.904	25868
827.044	25658
827.183	25529
827.323	25449
827.462	25635
827.601	25609
827.741	25563
827.88	25575
828.02	25392
828.159	25556
828.298	25362
828.437	25639
828.577	25396
828.716	25658
828.855	25373
828.994	25255
829.134	25164
829.273	25251
829.412	25152
829.551	25069
829.69	25194
829.829	25175
829.968	25266
830.107	25304
830.246	25244
830.385	25019
830.524	25088
830.663	24901
830.802	24882
830.941	24852
831.08	24829
831.219	24935
831.357	24798
831.496	25042
831.635	24897
831.774	24741
831.913	24745
832.051	24574
832.19	24570
832.329	24677
832.467	24490
832.606	24384
832.744	24266
832.883	24426
833.022	24426
833.16	24471
833.299	24555
833.437	24494
833.576	24467
833.714	24456
833.852	24658
833.991	24627
834.129	24559
834.267	24536
834.406	24509
834.544	24669
834.682	24437
834.821	24403
834.959	24631
835.097	24608
835.235	24570
835.373	24414
835.511	24498
835.65	24353
835.788	24388
835.926	24247
836.064	24315
836.202	24140
836.34	24391
836.478	24384
836.615	24399
836.753	24410
836.891	24494
837.029	24369
837.167	24270
837.305	24152
837.443	24095
837.58	24102
837.718	24251
837.856	24254
837.993	24133
838.131	24239
838.269	23969
838.406	24106
838.544	24140
838.681	23840
838.819	23756
838.956	23642
839.094	23687
839.231	23798
839.369	23832
839.506	24076
839.643	23904
839.781	23611
839.918	23600
840.055	23695
840.193	23608
840.33	23474
840.467	23634
840.604	23665
840.742	23931
840.879	23383
841.016	23516
841.153	23490
841.29	23528
841.427	23657
841.564	23509
841.701	23570
841.838	23436
841.975	23482
842.112	23623
842.249	23311
842.385	23254
842.522	23524
842.659	23322
842.796	23197
842.933	23353
843.069	23159
843.206	23349
843.343	23414
843.479	23296
843.616	23318
843.752	23060
843.889	23151
844.025	23220
844.162	23113
844.298	23121
844.435	23022
844.571	23033
844.708	23143
844.844	23273
844.98	23223
845.117	23197
845.253	23105
845.389	22908
845.525	22869
845.661	22904
845.798	22778
845.934	22930
846.07	22885
846.206	22957
846.342	23037
846.478	22850
846.614	22664
846.75	22573
846.886	22599
847.022	22588
847.158	22618
847.294	22546
847.429	22550
847.565	22634
847.701	22778
847.837	22322
847.972	22265
848.108	22367
848.244	22280
848.379	22097
848.515	22207
848.65	22051
848.786	22272
848.921	22249
849.057	22230
849.192	22238
849.328	22124
849.463	22109
849.598	22097
849.734	22093
849.869	22067
850.004	21964
850.14	22025
850.275	21926
850.41	21911
850.545	21819
850.68	21937
850.815	21979
850.95	21937
851.085	22067
851.22	21937
851.355	21945
851.49	21972
851.625	21857
851.76	21937
851.895	21895
852.03	21819
852.165	21876
852.299	21895
852.434	22135
852.569	21972
852.703	21922
852.838	22093
852.973	22078
853.107	21991
853.242	21865
853.376	21823
853.511	21675
853.645	21641
853.78	21800
853.914	21778
854.048	21778
854.183	21595
854.317	21816
854.451	22021
854.585	21694
854.72	21819
854.854	21823
854.988	21732
855.122	21869
855.256	21583
855.39	21652
855.524	21751
855.658	21781
855.792	21766
855.926	21679
856.06	21781
856.194	21838
856.327	21606
856.461	21652
856.595	21675
856.729	21717
856.862	21968
856.996	21713
857.13	21816
857.263	21835
857.397	21770
857.53	21812
857.664	21694
857.797	21724
857.931	21854
858.064	21797
858.197	21732
858.331	21747
858.464	21682
858.597	21610
858.731	21808
858.864	21690
858.997	21736
859.13	21743
859.263	21675
859.396	21804
859.529	21766
859.662	21652
859.795	21804
859.928	21743
860.061	21861
860.194	21987
860.327	21728
860.46	21698
860.592	21800
860.725	21903
860.858	21934
860.99	21751
861.123	21671
861.256	21713
861.388	21694
861.521	22519
861.653	21568
861.786	21450
861.918	21629
862.05	21625
862.183	21603
862.315	21724
862.447	21690
862.58	21667
862.712	21530
862.844	21473
862.976	21488
863.108	21526
863.24	21880
863.372	21374
863.504	21538
863.636	21420
863.768	21443
863.9	21488
864.032	21310
864.164	21431
864.296	21462
864.428	21618
864.559	21428
864.691	21568
864.823	21443
864.954	21424
865.086	21519
865.217	21313
865.349	21222
865.48	21424
865.612	21420
865.743	21370
865.875	21393
866.006	21317
866.137	21256
866.269	21378
866.4	21268
866.531	21302
866.662	21283
866.793	21275
866.924	21173
867.055	21241
867.186	21405
867.317	21218
867.448	21218
867.579	21176
867.71	21211
867.841	21169
867.972	21256
868.103	21222
868.233	21344
868.364	21302
868.495	21329
868.625	21412
868.756	21656
868.886	21431
869.017	21473
869.147	21728
869.278	21690
869.408	21644
869.539	21492
869.669	21701
869.799	21564
869.929	21564
870.06	21568
870.19	21812
870.32	21770
870.45	21926
870.58	21972
870.71	21991
870.84	22059
870.97	22010
871.1	21793
871.23	22101
871.36	22090
871.489	22059
871.619	22036
871.749	22078
871.879	22086
872.008	22143
872.138	22147
872.267	22166
872.397	22169
872.526	21918
872.656	21972
872.785	22010
872.915	22143
873.044	22074
873.173	22150
873.303	22200
873.432	22147
873.561	22101
873.69	22109
873.819	21949
873.948	22124
874.077	22048
874.206	21983
874.335	22044
874.464	22280
874.593	22280
874.722	22291
874.851	22417
874.979	22363
875.108	22417
875.237	22268
875.365	22234
875.494	22356
875.623	22325
875.751	22287
875.88	22394
876.008	22440
876.136	22379
876.265	22801
876.393	22866
876.521	22637
876.65	22881
876.778	22706
876.906	22599
877.034	22653
877.162	22706
877.29	22550
877.418	22683
877.546	22759
877.674	22653
877.802	22618
877.93	22713
878.058	22691
878.185	22417
878.313	22615
878.441	22736
878.568	22565
878.696	22615
878.824	22649
878.951	22691
879.079	22896
879.206	23060
879.333	22812
879.461	22653
879.588	22782
879.715	22854
879.842	22858
879.97	22763
880.097	22474
880.224	22565
880.351	22516
880.478	22542
880.605	22478
880.732	22508
880.859	22793
880.986	22295
881.112	22508
881.239	22322
881.366	22265
881.493	22200
881.619	22131
881.746	22078
881.872	22124
881.999	22109
882.125	21956
882.252	22036
882.378	22067
882.505	22147
882.631	21903
882.757	21888
882.883	21797
883.01	21831
883.136	21736
883.262	21534
883.388	21568
883.514	21869
883.64	21701
883.766	21686
883.892	21538
884.018	21701
884.143	21724
884.269	21762
884.395	21523
884.52	21526
884.646	21405
884.772	21306
884.897	21355
885.023	21473
885.148	21481
885.274	21492
885.399	21401
885.524	21454
885.65	21530
885.775	21469
885.9	21378
886.025	21599
886.15	21485
886.275	21374
886.4	21287
886.525	21321
886.65	21386
886.775	21321
886.9	21504
887.025	21663
887.149	21462
887.274	21336
887.399	21142
887.523	21165
887.648	21161
887.773	21020
887.897	21245
888.021	21195
888.146	21123
888.27	21287
888.395	21230
888.519	21135
888.643	21104
888.767	21249
888.891	20921
889.015	20925
889.139	20986
889.263	20826
889.387	21039
889.511	21154
889.635	21032
889.759	20918
889.883	20986
890.006	20982
890.13	20933
890.254	21020
890.377	20929
890.501	20708
890.624	20594
890.748	20720
890.871	20651
890.995	20480
891.118	20454
891.241	20564
891.364	20556
891.488	20735
891.611	20484
891.734	20552
891.857	20499
891.98	20522
892.103	20545
892.226	20461
892.349	20457
892.471	20221
892.594	20412
892.717	20492
892.839	20351
892.962	20404
893.085	20419
893.207	20366
893.33	20320
893.452	20339
893.575	20549
893.697	20362
893.819	20629
893.941	20705
894.064	20575
894.186	20324
894.308	20374
894.43	20514
894.552	20514
894.674	20476
894.796	20396
894.918	20412
895.04	20393
895.161	20511
895.283	20446
895.405	20317
895.526	20370
895.648	20457
895.769	20366
895.891	20556
896.012	20495
896.134	20400
896.255	20298
896.376	20320
896.498	20488
896.619	20465
896.74	20442
896.861	20457
896.982	20708
897.103	20967
897.224	20636
897.345	20606
897.466	20613
897.587	20670
897.708	20712
897.828	20625
897.949	20492
898.07	20438
898.19	20609
898.311	20659
898.431	20594
898.552	20613
898.672	20659
898.792	20609
898.913	20526
899.033	20507
899.153	20320
899.273	20377
899.393	20362
899.513	20294
899.633	20385
899.753	20317
899.873	20225
899.993	20488
900.113	20248
900.232	20328
900.352	20259
900.472	20115
900.591	20214
900.711	20187
900.83	20119
900.95	20092
901.069	20180
901.189	19993
901.308	19883
901.427	19738
901.546	19807
901.665	19677
901.784	19776
901.904	19559
902.023	19518
902.141	19308
902.26	19137
902.379	19225
902.498	19228
902.617	19107
902.735	19171
902.854	19194
902.973	19206
903.091	19053
903.21	18829
903.328	18886
903.446	18886
903.565	18722
903.683	18757
903.801	18601
903.919	18582
904.038	18673
904.156	18433
904.274	18551
904.392	18513
904.51	18540
904.627	18441
904.745	18464
904.863	18456
904.981	18258
905.098	18072
905.216	18095
905.334	18060
905.451	18129
905.569	18068
905.686	18045
905.803	18045
905.921	17999
906.038	17961
906.155	17942
906.272	17863
906.389	17836
906.506	17596
906.623	17634
906.74	17684
906.857	17562
906.974	17615
907.091	17760
907.208	17798
907.324	17695
907.441	17554
907.557	17425
907.674	17406
907.79	17322
907.907	17269
908.023	17356
908.139	17299
908.256	17273
908.372	17200
908.488	17356
908.604	17094
908.72	17079
908.836	17105
908.952	17048
909.068	17056
909.184	17151
909.3	17041
909.415	17029
909.531	17098
909.647	16809
909.762	16877
909.878	16873
909.993	16797
910.108	16733
910.224	16687
910.339	16740
910.454	16683
910.57	16645
910.685	16508
910.8	16831
910.915	16740
911.03	16641
911.145	16481
911.259	16363
911.374	16413
911.489	16200
911.604	16242
911.718	16093
911.833	16101
911.947	16051
912.062	15899
912.176	16124
912.291	16101
912.405	16048
912.519	16348
912.633	16329
912.748	16082
912.862	16105
912.976	15888
913.09	15857
913.204	15964
913.318	16021
913.431	16040
913.545	16013
913.659	16029
913.772	15956
913.886	15873
914	15728
914.113	15808
914.226	15838
914.34	15819
914.453	15561
914.566	15831
914.68	15625
914.793	15545
914.906	15443
915.019	15272
915.132	15226
915.245	15310
915.358	15344
915.47	15382
915.583	15287
915.696	15393
915.809	15462
915.921	15538
916.034	15207
916.146	15157
916.259	15245
916.371	15336
916.483	15203
916.595	15150
916.708	15089
916.82	15127
916.932	15077
917.044	15135
917.156	15017
917.268	14971
917.38	14994
917.491	15047
917.603	14990
917.715	14982
917.826	15039
917.938	14956
918.049	14788
918.161	14990
918.272	15074
918.384	15077
918.495	14883
918.606	14781
918.717	14629
918.828	14621
918.939	14769
919.05	14621
919.161	14674
919.272	14408
919.383	14564
919.494	14724
919.604	14830
919.715	14754
919.826	14571
919.936	14564
920.047	14804
920.157	14678
920.267	14876
920.378	14655
920.488	14640
920.598	14842
920.708	14872
920.818	14925
920.928	14769
921.038	14914
921.148	14941
921.258	14651
921.368	14625
921.477	14442
921.587	14442
921.697	14328
921.806	14495
921.916	14218
922.025	14081
922.134	14062
922.244	14020
922.353	14073
922.462	14031
922.571	13830
922.68	13791
922.789	13723
922.898	13670
923.007	13723
923.116	13628
923.224	13723
923.333	13677
923.442	13582
923.55	13582
923.659	13552
923.767	13624
923.876	13563
923.984	13491
924.092	13365
924.201	13453
924.309	13472
924.417	13392
924.525	13422
924.633	13327
924.741	14157
924.849	13031
924.956	13335
925.064	13183
925.172	13133
925.279	13133
925.387	13187
925.494	13038
925.602	13206
925.709	13168
925.816	13038
925.924	13050
926.031	13103
926.138	13076
926.245	13050
926.352	13053
926.459	13141
926.566	13149
926.673	12913
926.779	12875
926.886	12829
926.993	12688
927.099	12627
927.206	12559
927.312	12589
927.419	12722
927.525	12593
927.631	12612
927.737	12566
927.843	12445
927.95	12388
928.056	12547
928.162	12517
928.267	12456
928.373	13137
928.479	12566
928.585	12315
928.69	12517
928.796	12563
928.901	12327
929.007	12201
929.112	12376
929.218	12224
929.323	12266
929.428	12186
929.533	12414
929.638	12064
929.743	12129
929.848	12232
929.953	11999
930.058	12045
930.163	11942
930.267	11908
930.372	12129
930.477	11897
930.581	12083
930.685	11843
930.79	11729
930.894	11748
930.998	11714
931.103	11866
931.207	11535
931.311	11433
931.415	11326
931.519	11117
931.623	11083
