Data from test_V78500241_2998.txt Node
Date: Fri Mar 25 15:30:44 CST 2022
User: usil
Spectrometer: V785-0024
Trigger mode: 0
Integration Time (sec): 4.000000E-1
Scans to average: 1
Nonlinearity correction enabled: false
Boxcar width: 0
Storing dark spectrum: false
XAxis mode: Wavelengths
Number of Pixels in Spectrum: 1024
>>>>>Begin Spectral Data<<<<<
801.071	27321
801.214	27218
801.356	27009
801.499	27051
801.641	26826
801.783	26731
801.926	26849
802.068	26838
802.211	26746
802.353	26746
802.496	26564
802.638	26514
802.78	26450
802.923	26370
803.065	26290
803.208	26419
803.35	26446
803.492	26465
803.635	26720
803.777	26522
803.919	26769
804.061	26967
804.204	26644
804.346	26587
804.488	26568
804.63	26492
804.773	26484
804.915	26705
805.057	26663
805.199	26648
805.341	26602
805.483	26693
805.626	26769
805.768	26762
805.91	26670
806.052	26724
806.194	26731
806.336	27051
806.478	26720
806.62	26746
806.762	26902
806.904	27020
807.046	27138
807.188	27093
807.33	27222
807.472	27146
807.614	27058
807.756	27123
807.898	26994
808.04	26830
808.182	26902
808.324	26994
808.465	27043
808.607	27207
808.749	27325
808.891	27488
809.033	27507
809.174	27424
809.316	27241
809.458	27291
809.6	27256
809.741	27412
809.883	27431
810.025	27587
810.166	27542
810.308	27564
810.45	27485
810.591	27504
810.733	27439
810.875	27222
811.016	27264
811.158	27317
811.299	27374
811.441	27530
811.582	27515
811.724	27443
811.865	27344
812.007	27226
812.148	27241
812.29	27374
812.431	27370
812.573	27519
812.714	27618
812.855	27934
812.997	27857
813.138	28078
813.279	27926
813.421	27884
813.562	27736
813.703	27648
813.845	27530
813.986	27275
814.127	27028
814.268	26994
814.41	27100
814.551	26975
814.692	26979
814.833	26914
814.974	26956
815.115	26948
815.256	26956
815.397	26967
815.539	26777
815.68	26781
815.821	26670
815.962	26864
816.103	26693
816.244	26541
816.385	26579
816.526	26590
816.666	26252
816.807	26240
816.948	26263
817.089	26244
817.23	26294
817.371	26275
817.512	26172
817.653	26176
817.793	26096
817.934	26286
818.075	26161
818.216	26176
818.356	26210
818.497	26069
818.638	25944
818.778	26039
818.919	26020
819.06	26122
819.2	26218
819.341	26320
819.481	26142
819.622	26294
819.762	26499
819.903	26453
820.043	26389
820.184	26351
820.324	26381
820.465	26484
820.605	26286
820.746	26286
820.886	26168
821.026	26267
821.167	26408
821.307	26412
821.447	26176
821.588	26237
821.728	25928
821.868	25974
822.008	25769
822.149	25738
822.289	25571
822.429	25479
822.569	25320
822.709	25434
822.849	25202
822.99	25289
823.13	25129
823.27	25152
823.41	24996
823.55	24962
823.69	24916
823.83	25145
823.97	25008
824.11	24764
824.25	24700
824.389	24844
824.529	24821
824.669	24924
824.809	24920
824.949	24935
825.089	24985
825.228	24833
825.368	24783
825.508	24658
825.648	24859
825.787	24787
825.927	24787
826.067	24753
826.206	24635
826.346	24764
826.485	24787
826.625	24753
826.765	24821
826.904	24833
827.044	24422
827.183	24544
827.323	24357
827.462	24471
827.601	24437
827.741	24441
827.88	24350
828.02	24296
828.159	24445
828.298	24521
828.437	24338
828.577	24353
828.716	24395
828.855	24376
828.994	24220
829.134	24155
829.273	24190
829.412	24068
829.551	23988
829.69	24201
829.829	24091
829.968	24140
830.107	24277
830.246	24064
830.385	24045
830.524	24068
830.663	23920
830.802	23908
830.941	23748
831.08	23619
831.219	23798
831.357	23874
831.496	23992
831.635	23832
831.774	23646
831.913	23592
832.051	23543
832.19	23592
832.329	23570
832.467	23425
832.606	23269
832.744	23337
832.883	23368
833.022	23391
833.16	23376
833.299	23334
833.437	23463
833.576	23429
833.714	23520
833.852	23395
833.991	23493
834.129	23531
834.267	23425
834.406	23425
834.544	23356
834.682	23478
834.821	23364
834.959	23531
835.097	23402
835.235	23459
835.373	23345
835.511	23353
835.65	23311
835.788	23307
835.926	23113
836.064	23227
836.202	23037
836.34	23345
836.478	23307
836.615	23364
836.753	23250
836.891	23395
837.029	23250
837.167	23341
837.305	23162
837.443	23109
837.58	23014
837.718	23105
837.856	23166
837.993	23022
838.131	23143
838.269	22908
838.406	22923
838.544	22896
838.681	22725
838.819	22687
838.956	22717
839.094	22500
839.231	22687
839.369	22869
839.506	22984
839.643	22805
839.781	22630
839.918	22535
840.055	22656
840.193	22599
840.33	22470
840.467	22516
840.604	22668
840.742	22767
840.879	22402
841.016	22519
841.153	22531
841.29	22721
841.427	22508
841.564	22478
841.701	22493
841.838	22394
841.975	22344
842.112	22527
842.249	22360
842.385	22352
842.522	22402
842.659	22375
842.796	22207
842.933	22348
843.069	22207
843.206	22192
843.343	22409
843.479	22185
843.616	22204
843.752	22021
843.889	22128
844.025	22131
844.162	22055
844.298	22143
844.435	22112
844.571	22090
844.708	22036
844.844	22177
844.98	22131
845.117	22204
845.253	22059
845.389	21903
845.525	21876
845.661	21926
845.798	21884
845.934	21793
846.07	21686
846.206	21812
846.342	21876
846.478	21854
846.614	21637
846.75	21557
846.886	21530
847.022	21682
847.158	21618
847.294	21523
847.429	21618
847.565	21462
847.701	21759
847.837	21344
847.972	21363
848.108	21466
848.244	21408
848.379	21157
848.515	21047
848.65	21089
848.786	21096
848.921	21036
849.057	21093
849.192	21252
849.328	21230
849.463	21112
849.598	21028
849.734	21032
849.869	20941
850.004	20933
850.14	20921
850.275	21039
850.41	20800
850.545	20838
850.68	20804
850.815	20891
850.95	20823
851.085	21013
851.22	20899
851.355	20785
851.49	20815
851.625	20807
851.76	20944
851.895	20811
852.03	20823
852.165	20937
852.299	21001
852.434	20868
852.569	20948
852.703	20948
852.838	20941
852.973	21070
853.107	20868
853.242	20838
853.376	20750
853.511	20526
853.645	20716
853.78	20853
853.914	20674
854.048	20762
854.183	20507
854.317	20621
854.451	20952
854.585	20712
854.72	20769
854.854	20838
854.988	20632
855.122	20716
855.256	20590
855.39	20629
855.524	20769
855.658	20705
855.792	20754
855.926	20667
856.06	20678
856.194	20720
856.327	20758
856.461	20629
856.595	20678
856.729	20613
856.862	20842
856.996	20754
857.13	20682
857.263	20731
857.397	20838
857.53	20773
857.664	20773
857.797	20819
857.931	20853
858.064	20682
858.197	20800
858.331	20796
858.464	20579
858.597	20629
858.731	20746
858.864	20667
858.997	20609
859.13	20594
859.263	20697
859.396	20777
859.529	20701
859.662	20670
859.795	20590
859.928	20720
860.061	20800
860.194	20777
860.327	20773
860.46	20686
860.592	20868
860.725	20849
860.858	20914
860.99	20667
861.123	20613
861.256	20769
861.388	20594
861.521	21397
861.653	20518
861.786	20560
861.918	20465
862.05	20625
862.183	20617
862.315	20625
862.447	20636
862.58	20568
862.712	20389
862.844	20514
862.976	20571
863.108	20419
863.24	20914
863.372	20286
863.504	20336
863.636	20404
863.768	20476
863.9	20396
864.032	20305
864.164	20457
864.296	20465
864.428	20579
864.559	20469
864.691	20526
864.823	20499
864.954	20393
865.086	20351
865.217	20423
865.349	20244
865.48	20286
865.612	20343
865.743	20355
865.875	20347
866.006	20229
866.137	20309
866.269	20290
866.4	20362
866.531	20294
866.662	20221
866.793	20362
866.924	20244
867.055	20339
867.186	20370
867.317	20214
867.448	20290
867.579	20240
867.71	20278
867.841	20267
867.972	20267
868.103	20317
868.233	20332
868.364	20248
868.495	20473
868.625	20488
868.756	20568
868.886	20476
869.017	20530
869.147	20663
869.278	20560
869.408	20484
869.539	20476
869.669	20526
869.799	20655
869.929	20590
870.06	20617
870.19	20739
870.32	20804
870.45	20880
870.58	20838
870.71	20929
870.84	20948
870.97	20804
871.1	20849
871.23	21039
871.36	21077
871.489	21032
871.619	21100
871.749	21020
871.879	21169
872.008	21249
872.138	21150
872.267	21081
872.397	20975
872.526	20967
872.656	21005
872.785	20914
872.915	21188
873.044	21260
873.173	21123
873.303	21222
873.432	21135
873.561	21214
873.69	21104
873.819	21100
873.948	21127
874.077	21233
874.206	21180
874.335	21108
874.464	21226
874.593	21222
874.722	21264
874.851	21370
874.979	21454
875.108	21351
875.237	21241
875.365	21291
875.494	21325
875.623	21473
875.751	21275
875.88	21317
876.008	21412
876.136	21538
876.265	21770
876.393	21884
876.521	21899
876.65	21842
876.778	21797
876.906	21690
877.034	21599
877.162	21717
877.29	21606
877.418	21561
877.546	21861
877.674	21675
877.802	21728
877.93	21587
878.058	21606
878.185	21481
878.313	21625
878.441	21705
878.568	21545
878.696	21701
878.824	21781
878.951	21808
879.079	21983
879.206	21983
879.333	21972
879.461	21793
879.588	21854
879.715	21861
879.842	22051
879.97	21808
880.097	21492
880.224	21614
880.351	21568
880.478	21439
880.605	21485
880.732	21614
880.859	21701
880.986	21637
881.112	21564
881.239	21363
881.366	21275
881.493	21275
881.619	21165
881.746	21131
881.872	21241
881.999	21123
882.125	21058
882.252	21146
882.378	21119
882.505	21180
882.631	20899
882.757	20781
882.883	20785
883.01	20807
883.136	20804
883.262	20667
883.388	20697
883.514	20758
883.64	20880
883.766	20804
883.892	20655
884.018	20606
884.143	20727
884.269	20716
884.395	20488
884.52	20564
884.646	20533
884.772	20431
884.897	20423
885.023	20476
885.148	20511
885.274	20606
885.399	20629
885.524	20556
885.65	20492
885.775	20533
885.9	20617
886.025	20575
886.15	20571
886.275	20465
886.4	20423
886.525	20377
886.65	20328
886.775	20396
886.9	20644
887.025	20571
887.149	20514
887.274	20309
887.399	20225
887.523	20313
887.648	20084
887.773	20134
887.897	20389
888.021	20324
888.146	20111
888.27	20370
888.395	20389
888.519	20259
888.643	20168
888.767	20298
888.891	20100
889.015	20054
889.139	20103
889.263	19974
889.387	20119
889.511	20229
889.635	20286
889.759	20039
889.883	20039
890.006	20001
890.13	20153
890.254	19944
890.377	19989
890.501	19856
890.624	19795
890.748	19944
890.871	19635
890.995	19670
891.118	19632
891.241	19597
891.364	19628
891.488	19784
891.611	19582
891.734	19632
891.857	19643
891.98	19605
892.103	19639
892.226	19552
892.349	19510
892.471	19434
892.594	19590
892.717	19666
892.839	19590
892.962	19476
893.085	19647
893.207	19529
893.33	19480
893.452	19453
893.575	19495
893.697	19491
893.819	19696
893.941	19772
894.064	19693
894.186	19495
894.308	19422
894.43	19609
894.552	19685
894.674	19647
894.796	19613
894.918	19544
895.04	19601
895.161	19643
895.283	19499
895.405	19518
895.526	19552
895.648	19537
895.769	19628
895.891	19487
896.012	19647
896.134	19708
896.255	19548
896.376	19396
896.498	19575
896.619	19635
896.74	19502
896.861	19605
896.982	19898
897.103	19951
897.224	19852
897.345	19795
897.466	19772
897.587	19734
897.708	19913
897.828	19780
897.949	19776
898.07	19609
898.19	19734
898.311	19970
898.431	19655
898.552	19753
898.672	19776
898.792	19845
898.913	19761
899.033	19632
899.153	19491
899.273	19487
899.393	19624
899.513	19556
899.633	19575
899.753	19677
899.873	19495
899.993	19616
900.113	19533
900.232	19674
900.352	19343
900.472	19384
900.591	19422
900.711	19422
900.83	19251
900.95	19388
901.069	19460
901.189	19240
901.308	19065
901.427	18966
901.546	18996
901.665	18901
901.784	18981
901.904	18798
902.023	18734
902.141	18506
902.26	18475
902.379	18528
902.498	18509
902.617	18452
902.735	18479
902.854	18547
902.973	18414
903.091	18163
903.21	18239
903.328	18098
903.446	18041
903.565	18015
903.683	17931
903.801	17893
903.919	17897
904.038	17843
904.156	17802
904.274	17859
904.392	17646
904.51	17604
904.627	17794
904.745	17672
904.863	17775
904.981	17452
905.098	17307
905.216	17391
905.334	17379
905.451	17322
905.569	17292
905.686	17376
905.803	17345
905.921	17227
906.038	17227
906.155	17204
906.272	17064
906.389	17090
906.506	16980
906.623	16949
906.74	16835
906.857	16790
906.974	16801
907.091	16987
907.208	17086
907.324	16949
907.441	16881
907.557	16649
907.674	16634
907.79	16577
907.907	16622
908.023	16733
908.139	16672
908.256	16584
908.372	16474
908.488	16489
908.604	16337
908.72	16394
908.836	16318
908.952	16440
909.068	16413
909.184	16367
909.3	16265
909.415	16390
909.531	16325
909.647	16101
909.762	16071
909.878	16086
909.993	16059
910.108	16032
910.224	16017
910.339	15956
910.454	15915
910.57	15949
910.685	15808
910.8	16120
910.915	16044
911.03	15926
911.145	15663
911.259	15675
911.374	15713
911.489	15717
911.604	15629
911.718	15355
911.833	15359
911.947	15340
912.062	15329
912.176	15450
912.291	15485
912.405	15492
912.519	15599
912.633	15660
912.748	15431
912.862	15412
912.976	15393
913.09	15062
913.204	15237
913.318	15317
913.431	15389
913.545	15294
913.659	15329
913.772	15226
913.886	15157
914	14956
914.113	15256
914.226	15214
914.34	15089
914.453	14960
914.566	15051
914.68	14975
914.793	14963
914.906	14655
915.019	14712
915.132	14613
915.245	14678
915.358	14648
915.47	14648
915.583	14689
915.696	14674
915.809	14872
915.921	14811
916.034	14659
916.146	14579
916.259	14568
916.371	14663
916.483	14579
916.595	14537
916.708	14522
916.82	14473
916.932	14484
917.044	14473
917.156	14412
917.268	14442
917.38	14427
917.491	14305
917.603	14381
917.715	14454
917.826	14339
917.938	14282
918.049	14092
918.161	14252
918.272	14499
918.384	14381
918.495	14206
918.606	14195
918.717	14088
918.828	14191
918.939	14111
919.05	13947
919.161	14081
919.272	13868
919.383	13963
919.494	14153
919.604	14275
919.715	14043
919.826	13932
919.936	14031
920.047	14092
920.157	14039
920.267	14339
920.378	14149
920.488	14039
920.598	14248
920.708	14415
920.818	14275
920.928	14244
921.038	14374
921.148	14358
921.258	13967
921.368	13875
921.477	13769
921.587	13799
921.697	13727
921.806	13780
921.916	13662
922.025	13537
922.134	13495
922.244	13476
922.353	13483
922.462	13373
922.571	13274
922.68	13114
922.789	13126
922.898	13175
923.007	13088
923.116	13110
923.224	13152
923.333	13091
923.442	12989
923.55	12958
923.659	12966
923.767	13091
923.876	12928
923.984	12962
924.092	12852
924.201	12890
924.309	12863
924.417	12924
924.525	12795
924.633	12875
924.741	13674
924.849	12601
924.956	12791
925.064	12517
925.172	12483
925.279	12494
925.387	12532
925.494	12547
925.602	12635
925.709	12620
925.816	12513
925.924	12551
926.031	12658
926.138	12525
926.245	12555
926.352	12475
926.459	12669
926.566	12677
926.673	12452
926.779	12277
926.886	12289
926.993	12220
927.099	12125
927.206	12041
927.312	12091
927.419	12159
927.525	12171
927.631	12209
927.737	12045
927.843	11980
927.95	11889
928.056	11908
928.162	11988
928.267	12072
928.373	12642
928.479	12095
928.585	11813
928.69	12019
928.796	11901
928.901	11874
929.007	11718
929.112	11836
929.218	11794
929.323	11745
929.428	11718
929.533	11893
929.638	11600
929.743	11634
929.848	11775
929.953	11676
930.058	11551
930.163	11398
930.267	11440
930.372	11585
930.477	11334
930.581	11672
930.685	11486
930.79	11322
930.894	11288
930.998	11204
931.103	11448
931.207	11052
931.311	10934
931.415	10911
931.519	10694
931.623	10649
