Data from test_V78500241_1442.txt Node
Date: Fri Mar 25 15:19:53 CST 2022
User: usil
Spectrometer: V785-0024
Trigger mode: 0
Integration Time (sec): 4.000000E-1
Scans to average: 1
Nonlinearity correction enabled: false
Boxcar width: 0
Storing dark spectrum: false
XAxis mode: Wavelengths
Number of Pixels in Spectrum: 1024
>>>>>Begin Spectral Data<<<<<
801.071	28070
801.214	28101
801.356	27899
801.499	27816
801.641	27583
801.783	27698
801.926	27743
802.068	27682
802.211	27606
802.353	27610
802.496	27492
802.638	27089
802.78	27408
802.923	27378
803.065	27249
803.208	27374
803.35	27291
803.492	27504
803.635	27469
803.777	27408
803.919	27610
804.061	28002
804.204	27667
804.346	27504
804.488	27492
804.63	27641
804.773	27545
804.915	27625
805.057	27698
805.199	27496
805.341	27504
805.483	27812
805.626	27667
805.768	27698
805.91	27641
806.052	27682
806.194	27549
806.336	27899
806.478	27606
806.62	27812
806.762	27804
806.904	28044
807.046	28322
807.188	28006
807.33	28128
807.472	28116
807.614	27945
807.756	28116
807.898	28040
808.04	27998
808.182	27968
808.324	28006
808.465	28059
808.607	28360
808.749	28379
808.891	28546
809.033	28401
809.174	28436
809.316	28268
809.458	28352
809.6	28348
809.741	28417
809.883	28603
810.025	28691
810.166	28660
810.308	28630
810.45	28535
810.591	28508
810.733	28470
810.875	28401
811.016	28246
811.158	28367
811.299	28325
811.441	28474
811.582	28561
811.724	28421
811.865	28371
812.007	28360
812.148	28352
812.29	28440
812.431	28550
812.573	28850
812.714	28847
812.855	29029
812.997	28953
813.138	29216
813.279	29056
813.421	28888
813.562	28999
813.703	28755
813.845	28565
813.986	28306
814.127	28257
814.268	28021
814.41	28086
814.551	28055
814.692	28291
814.833	28025
814.974	28105
815.115	28147
815.256	27899
815.397	27918
815.539	28086
815.68	27888
815.821	27701
815.962	27816
816.103	27869
816.244	27759
816.385	27671
816.526	27713
816.666	27530
816.807	27473
816.948	27431
817.089	27420
817.23	27279
817.371	27272
817.512	27507
817.653	27454
817.793	27336
817.934	27241
818.075	27431
818.216	27355
818.356	27363
818.497	27176
818.638	27150
818.778	27062
818.919	27233
819.06	27192
819.2	27367
819.341	27180
819.481	27382
819.622	27557
819.762	27717
819.903	27564
820.043	27492
820.184	27458
820.324	27401
820.465	27557
820.605	27485
820.746	27416
820.886	27310
821.026	27382
821.167	27393
821.307	27405
821.447	27241
821.588	27161
821.728	26990
821.868	26929
822.008	26792
822.149	26834
822.289	26811
822.429	26518
822.569	26556
822.709	26575
822.849	26328
822.99	26332
823.13	26336
823.27	26290
823.41	26237
823.55	26153
823.69	26233
823.83	26278
823.97	26065
824.11	25989
824.25	25982
824.389	25982
824.529	26084
824.669	25970
824.809	26164
824.949	26084
825.089	26081
825.228	25963
825.368	25772
825.508	25841
825.648	25890
825.787	25974
825.927	25894
826.067	25807
826.206	25811
826.346	25963
826.485	25955
826.625	25852
826.765	25833
826.904	25955
827.044	25582
827.183	25559
827.323	25769
827.462	25575
827.601	25704
827.741	25567
827.88	25552
828.02	25495
828.159	25518
828.298	25430
828.437	25635
828.577	25384
828.716	25571
828.855	25544
828.994	25365
829.134	25415
829.273	25331
829.412	25312
829.551	25259
829.69	25213
829.829	25110
829.968	25274
830.107	25339
830.246	25289
830.385	25152
830.524	25107
830.663	25156
830.802	24935
830.941	24928
831.08	24764
831.219	24875
831.357	24996
831.496	25213
831.635	24985
831.774	24894
831.913	24833
832.051	24703
832.19	24707
832.329	24688
832.467	24486
832.606	24323
832.744	24589
832.883	24464
833.022	24460
833.16	24639
833.299	24563
833.437	24528
833.576	24745
833.714	24627
833.852	24521
833.991	24551
834.129	24738
834.267	24696
834.406	24692
834.544	24585
834.682	24604
834.821	24544
834.959	24844
835.097	24536
835.235	24540
835.373	24608
835.511	24589
835.65	24521
835.788	24426
835.926	24365
836.064	24197
836.202	24376
836.34	24384
836.478	24437
836.615	24369
836.753	24357
836.891	24429
837.029	24479
837.167	24319
837.305	24334
837.443	24342
837.58	24270
837.718	24315
837.856	24365
837.993	24182
838.131	24159
838.269	24125
838.406	24220
838.544	24030
838.681	23965
838.819	23786
838.956	23764
839.094	23809
839.231	23866
839.369	23828
839.506	24117
839.643	24140
839.781	23718
839.918	23672
840.055	23687
840.193	23668
840.33	23653
840.467	23668
840.604	23707
840.742	23783
840.879	23543
841.016	23707
841.153	23471
841.29	23661
841.427	23596
841.564	23566
841.701	23554
841.838	23558
841.975	23562
842.112	23509
842.249	23425
842.385	23356
842.522	23627
842.659	23459
842.796	23326
842.933	23467
843.069	23337
843.206	23337
843.343	23436
843.479	23326
843.616	23395
843.752	23136
843.889	23212
844.025	23307
844.162	23185
844.298	23250
844.435	23208
844.571	23273
844.708	23170
844.844	23265
844.98	23315
845.117	23239
845.253	23307
845.389	22972
845.525	23109
845.661	23037
845.798	22896
845.934	22930
846.07	22949
846.206	22839
846.342	23022
846.478	22847
846.614	22702
846.75	22721
846.886	22565
847.022	22630
847.158	22729
847.294	22550
847.429	22778
847.565	22687
847.701	22748
847.837	22360
847.972	22348
848.108	22303
848.244	22535
848.379	22265
848.515	22234
848.65	22162
848.786	22215
848.921	22207
849.057	22341
849.192	22348
849.328	22306
849.463	22169
849.598	22249
849.734	22051
849.869	22086
850.004	22021
850.14	21941
850.275	21953
850.41	21968
850.545	21915
850.68	22040
850.815	21930
850.95	21956
851.085	22048
851.22	22029
851.355	22010
851.49	21956
851.625	21903
851.76	21949
851.895	21869
852.03	21846
852.165	21934
852.299	21895
852.434	22036
852.569	22067
852.703	21922
852.838	21975
852.973	22181
853.107	22143
853.242	21926
853.376	21857
853.511	21717
853.645	21884
853.78	21972
853.914	21838
854.048	21732
854.183	21759
854.317	21819
854.451	22021
854.585	21816
854.72	21755
854.854	21823
854.988	21690
855.122	21895
855.256	21667
855.39	21781
855.524	21922
855.658	21854
855.792	21816
855.926	21808
856.06	21789
856.194	21915
856.327	21747
856.461	21701
856.595	21766
856.729	21675
856.862	21972
856.996	21709
857.13	21937
857.263	21747
857.397	21972
857.53	21576
857.664	21762
857.797	21884
857.931	21842
858.064	21770
858.197	21819
858.331	21751
858.464	21728
858.597	21686
858.731	21907
858.864	21667
858.997	21903
859.13	21751
859.263	21854
859.396	21857
859.529	21869
859.662	21793
859.795	21694
859.928	21793
860.061	21960
860.194	21964
860.327	21869
860.46	21789
860.592	21827
860.725	22032
860.858	21922
860.99	21800
861.123	21759
861.256	21800
861.388	21778
861.521	22257
861.653	21732
861.786	21515
861.918	21564
862.05	21629
862.183	21606
862.315	21686
862.447	21736
862.58	21679
862.712	21526
862.844	21454
862.976	21591
863.108	21526
863.24	21770
863.372	21363
863.504	21549
863.636	21507
863.768	21439
863.9	21583
864.032	21389
864.164	21416
864.296	21469
864.428	21614
864.559	21614
864.691	21572
864.823	21568
864.954	21473
865.086	21431
865.217	21378
865.349	21252
865.48	21355
865.612	21496
865.743	21557
865.875	21336
866.006	21294
866.137	21542
866.269	21378
866.4	21310
866.531	21485
866.662	21279
866.793	21321
866.924	21340
867.055	21367
867.186	21378
867.317	21321
867.448	21291
867.579	21306
867.71	21272
867.841	21233
867.972	21340
868.103	21367
868.233	21340
868.364	21340
868.495	21382
868.625	21534
868.756	21633
868.886	21519
869.017	21572
869.147	21625
869.278	21679
869.408	21568
869.539	21572
869.669	21614
869.799	21587
869.929	21675
870.06	21793
870.19	21857
870.32	21770
870.45	21926
870.58	21926
870.71	22040
870.84	21979
870.97	21987
871.1	22036
871.23	22101
871.36	22078
871.489	21998
871.619	22097
871.749	22025
871.879	22356
872.008	22379
872.138	22181
872.267	22169
872.397	21915
872.526	22013
872.656	21991
872.785	21972
872.915	22177
873.044	22291
873.173	22131
873.303	22280
873.432	22226
873.561	22398
873.69	22215
873.819	22139
873.948	22070
874.077	22158
874.206	22147
874.335	22032
874.464	22276
874.593	22325
874.722	22352
874.851	22371
874.979	22337
875.108	22421
875.237	22242
875.365	22143
875.494	22230
875.623	22478
875.751	22329
875.88	22352
876.008	22493
876.136	22653
876.265	22717
876.393	22919
876.521	22824
876.65	22847
876.778	22580
876.906	22748
877.034	22721
877.162	22755
877.29	22641
877.418	22508
877.546	22687
877.674	22771
877.802	22744
877.93	22634
878.058	22713
878.185	22584
878.313	22717
878.441	22618
878.568	22516
878.696	22569
878.824	22801
878.951	22683
879.079	22915
879.206	23003
879.333	22820
879.461	22755
879.588	22812
879.715	22908
879.842	23067
879.97	22881
880.097	22512
880.224	22363
880.351	22557
880.478	22554
880.605	22538
880.732	22611
880.859	22729
880.986	22493
881.112	22519
881.239	22344
881.366	22226
881.493	22173
881.619	22223
881.746	22162
881.872	22044
881.999	21975
882.125	22025
882.252	22101
882.378	22109
882.505	22154
882.631	21994
882.757	21835
882.883	21823
883.01	21759
883.136	21686
883.262	21652
883.388	21644
883.514	21785
883.64	21850
883.766	21644
883.892	21557
884.018	21595
884.143	21663
884.269	21831
884.395	21504
884.52	21401
884.646	21500
884.772	21416
884.897	21291
885.023	21447
885.148	21564
885.274	21599
885.399	21526
885.524	21310
885.65	21469
885.775	21397
885.9	21424
886.025	21504
886.15	21481
886.275	21405
886.4	21389
886.525	21401
886.65	21233
886.775	21363
886.9	21477
887.025	21599
887.149	21477
887.274	21298
887.399	21142
887.523	21222
887.648	21199
887.773	21024
887.897	21154
888.021	21188
888.146	21157
888.27	21306
888.395	21279
888.519	21222
888.643	21378
888.767	21165
888.891	21123
889.015	20921
889.139	21070
889.263	20944
889.387	21089
889.511	21260
889.635	21112
889.759	20975
889.883	20944
890.006	20963
890.13	21150
890.254	21013
890.377	20963
890.501	20804
890.624	20689
890.748	20746
890.871	20651
890.995	20533
891.118	20442
891.241	20583
891.364	20564
891.488	20629
891.611	20503
891.734	20621
891.857	20640
891.98	20590
892.103	20617
892.226	20617
892.349	20488
892.471	20423
892.594	20552
892.717	20450
892.839	20396
892.962	20492
893.085	20522
893.207	20598
893.33	20362
893.452	20393
893.575	20415
893.697	20465
893.819	20556
893.941	20674
894.064	20682
894.186	20469
894.308	20305
894.43	20549
894.552	20568
894.674	20480
894.796	20267
894.918	20488
895.04	20469
895.161	20511
895.283	20492
895.405	20282
895.526	20473
895.648	20351
895.769	20575
895.891	20358
896.012	20454
896.134	20537
896.255	20427
896.376	20332
896.498	20438
896.619	20465
896.74	20518
896.861	20575
896.982	20743
897.103	20868
897.224	20648
897.345	20522
897.466	20689
897.587	20537
897.708	20708
897.828	20754
897.949	20632
898.07	20530
898.19	20495
898.311	20769
898.431	20552
898.552	20693
898.672	20693
898.792	20819
898.913	20602
899.033	20446
899.153	20427
899.273	20351
899.393	20457
899.513	20450
899.633	20488
899.753	20514
899.873	20294
899.993	20518
900.113	20313
900.232	20324
900.352	20309
900.472	20229
900.591	20081
900.711	20122
900.83	20176
900.95	20263
901.069	20191
901.189	20050
901.308	19830
901.427	19727
901.546	19750
901.665	19681
901.784	19826
901.904	19605
902.023	19529
902.141	19327
902.26	19285
902.379	19480
902.498	19304
902.617	19118
902.735	19343
902.854	19266
902.973	19206
903.091	18920
903.21	19000
903.328	18814
903.446	18810
903.565	18772
903.683	18734
903.801	18589
903.919	18635
904.038	18696
904.156	18525
904.274	18578
904.392	18525
904.51	18376
904.627	18502
904.745	18509
904.863	18521
904.981	18330
905.098	18129
905.216	18136
905.334	18186
905.451	18148
905.569	18057
905.686	18209
905.803	18194
905.921	17935
906.038	18049
906.155	17923
906.272	17901
906.389	17859
906.506	17714
906.623	17745
906.74	17665
906.857	17680
906.974	17611
907.091	17760
907.208	17882
907.324	17649
907.441	17653
907.557	17505
907.674	17417
907.79	17448
907.907	17398
908.023	17364
908.139	17497
908.256	17356
908.372	17246
908.488	17235
908.604	17181
908.72	17048
908.836	17090
908.952	17003
909.068	17193
909.184	17117
909.3	17064
909.415	17124
909.531	17090
909.647	16896
909.762	16774
909.878	16809
909.993	16904
910.108	16771
910.224	16801
910.339	16946
910.454	16611
910.57	16592
910.685	16584
910.8	16828
910.915	16812
911.03	16641
911.145	16432
911.259	16402
911.374	16394
911.489	16379
911.604	16318
911.718	16238
911.833	16261
911.947	16051
912.062	15949
912.176	16101
912.291	16215
912.405	16162
912.519	16242
912.633	16325
912.748	16124
912.862	16059
912.976	16002
913.09	15918
913.204	15903
913.318	15876
913.431	16124
913.545	16097
913.659	16021
913.772	15941
913.886	15755
914	15736
914.113	15842
914.226	15850
914.34	15869
914.453	15663
914.566	15762
914.68	15667
914.793	15610
914.906	15447
915.019	15294
915.132	15302
915.245	15294
915.358	15393
915.47	15325
915.583	15332
915.696	15416
915.809	15462
915.921	15355
916.034	15272
916.146	15279
916.259	15230
916.371	15317
916.483	15287
916.595	15211
916.708	15176
916.82	15195
916.932	15138
917.044	15138
917.156	15142
917.268	15066
917.38	14971
917.491	14868
917.603	15013
917.715	15161
917.826	15070
917.938	14918
918.049	14906
918.161	14963
918.272	15077
918.384	15074
918.495	14941
918.606	14815
918.717	14708
918.828	14849
918.939	14807
919.05	14689
919.161	14724
919.272	14545
919.383	14598
919.494	14796
919.604	14982
919.715	14663
919.826	14670
919.936	14807
920.047	14758
920.157	14648
920.267	14853
920.378	14735
920.488	14629
920.598	14861
920.708	15047
920.818	14800
920.928	14838
921.038	14994
921.148	14902
921.258	14735
921.368	14568
921.477	14522
921.587	14339
921.697	14294
921.806	14522
921.916	14278
922.025	14084
922.134	14088
922.244	14103
922.353	14199
922.462	13986
922.571	13932
922.68	13708
922.789	13765
922.898	13696
923.007	13734
923.116	13772
923.224	13674
923.333	13704
923.442	13597
923.55	13571
923.659	13590
923.767	13693
923.876	13453
923.984	13571
924.092	13445
924.201	13491
924.309	13422
924.417	13487
924.525	13377
924.633	13460
924.741	14256
924.849	13137
924.956	13331
925.064	13263
925.172	13198
925.279	13141
925.387	13126
925.494	13133
925.602	13297
925.709	13088
925.816	13000
925.924	13107
926.031	13232
926.138	13069
926.245	13099
926.352	12951
926.459	13137
926.566	13198
926.673	12962
926.779	12890
926.886	12810
926.993	12741
927.099	12730
927.206	12646
927.312	12745
927.419	12760
927.525	12684
927.631	12722
927.737	12597
927.843	12509
927.95	12509
928.056	12429
928.162	12540
928.267	12544
928.373	13107
928.479	12578
928.585	12403
928.69	12464
928.796	12532
928.901	12247
929.007	12186
929.112	12350
929.218	12422
929.323	12273
929.428	12171
929.533	12384
929.638	12087
929.743	12171
929.848	12182
929.953	12152
930.058	12045
930.163	12003
930.267	11920
930.372	12003
930.477	11904
930.581	12053
930.685	11935
930.79	11878
930.894	11832
930.998	11783
931.103	11874
931.207	11532
931.311	11482
931.415	11414
931.519	11124
931.623	11140
