Data from test_V78500241_224.txt Node
Date: Fri Mar 25 15:11:25 CST 2022
User: usil
Spectrometer: V785-0024
Trigger mode: 0
Integration Time (sec): 4.000000E-1
Scans to average: 1
Nonlinearity correction enabled: false
Boxcar width: 0
Storing dark spectrum: false
XAxis mode: Wavelengths
Number of Pixels in Spectrum: 1024
>>>>>Begin Spectral Data<<<<<
801.071	27876
801.214	27835
801.356	27583
801.499	27477
801.641	27272
801.783	27401
801.926	27485
802.068	27294
802.211	27157
802.353	27119
802.496	27116
802.638	26986
802.78	27074
802.923	26921
803.065	26944
803.208	26826
803.35	26918
803.492	27093
803.635	27043
803.777	26979
803.919	27013
804.061	27530
804.204	27119
804.346	26979
804.488	26937
804.63	27062
804.773	26899
804.915	27131
805.057	27028
805.199	27024
805.341	27005
805.483	27237
805.626	27165
805.768	27032
805.91	27070
806.052	27241
806.194	27165
806.336	27321
806.478	27169
806.62	27017
806.762	27142
806.904	27340
807.046	27500
807.188	27420
807.33	27412
807.472	27485
807.614	27420
807.756	27351
807.898	27431
808.04	27302
808.182	27291
808.324	27389
808.465	27325
808.607	27416
808.749	27625
808.891	27835
809.033	27808
809.174	27667
809.316	27743
809.458	27633
809.6	27656
809.741	27770
809.883	27724
810.025	27953
810.166	28032
810.308	27922
810.45	27751
810.591	27854
810.733	27709
810.875	27648
811.016	27542
811.158	27507
811.299	27660
811.441	27743
811.582	27701
811.724	27660
811.865	27625
812.007	27637
812.148	27595
812.29	27595
812.431	27732
812.573	28025
812.714	27975
812.855	28048
812.997	28162
813.138	28398
813.279	28158
813.421	28093
813.562	28109
813.703	27922
813.845	27838
813.986	27507
814.127	27344
814.268	27336
814.41	27336
814.551	27176
814.692	27294
814.833	27169
814.974	27047
815.115	27249
815.256	27100
815.397	26994
815.539	27154
815.68	27112
815.821	27020
815.962	26952
816.103	27150
816.244	26823
816.385	26815
816.526	26777
816.666	26606
816.807	26431
816.948	26495
817.089	26545
817.23	26434
817.371	26446
817.512	26389
817.653	26237
817.793	26461
817.934	26381
818.075	26492
818.216	26431
818.356	26320
818.497	26263
818.638	26088
818.778	26313
818.919	26206
819.06	26168
819.2	26263
819.341	26374
819.481	26271
819.622	26469
819.762	26785
819.903	26716
820.043	26473
820.184	26545
820.324	26507
820.465	26716
820.605	26530
820.746	26541
820.886	26347
821.026	26453
821.167	26385
821.307	26480
821.447	26434
821.588	26286
821.728	26168
821.868	26069
822.008	25902
822.149	25765
822.289	25776
822.429	25510
822.569	25403
822.709	25575
822.849	25339
822.99	25217
823.13	25266
823.27	25255
823.41	25088
823.55	24951
823.69	25129
823.83	25164
823.97	24951
824.11	24951
824.25	24760
824.389	24973
824.529	25000
824.669	24954
824.809	25099
824.949	25019
825.089	25004
825.228	24970
825.368	24692
825.508	24673
825.648	24772
825.787	24840
825.927	24764
826.067	24738
826.206	24817
826.346	24776
826.485	24696
826.625	24620
826.765	24867
826.904	24681
827.044	24517
827.183	24437
827.323	24407
827.462	24574
827.601	24445
827.741	24437
827.88	24521
828.02	24251
828.159	24479
828.298	24441
828.437	24460
828.577	24528
828.716	24555
828.855	24323
828.994	24144
829.134	24087
829.273	24110
829.412	24174
829.551	24102
829.69	24125
829.829	24003
829.968	24186
830.107	24273
830.246	24136
830.385	24038
830.524	24091
830.663	23904
830.802	23737
830.941	23668
831.08	23619
831.219	23767
831.357	23764
831.496	23923
831.635	23805
831.774	23687
831.913	23680
832.051	23474
832.19	23448
832.329	23505
832.467	23383
832.606	23364
832.744	23410
832.883	23402
833.022	23273
833.16	23345
833.299	23425
833.437	23421
833.576	23387
833.714	23440
833.852	23512
833.991	23455
834.129	23596
834.267	23459
834.406	23436
834.544	23334
834.682	23387
834.821	23398
834.959	23581
835.097	23452
835.235	23364
835.373	23353
835.511	23463
835.65	23193
835.788	23322
835.926	23140
836.064	23052
836.202	23136
836.34	23299
836.478	23269
836.615	23235
836.753	23307
836.891	23387
837.029	23231
837.167	23265
837.305	23052
837.443	23079
837.58	22991
837.718	23056
837.856	23197
837.993	22976
838.131	23060
838.269	22999
838.406	22976
838.544	22866
838.681	22774
838.819	22641
838.956	22584
839.094	22447
839.231	22561
839.369	22584
839.506	22915
839.643	22782
839.781	22603
839.918	22565
840.055	22481
840.193	22379
840.33	22413
840.467	22421
840.604	22440
840.742	22752
840.879	22363
841.016	22459
841.153	22291
841.29	22516
841.427	22428
841.564	22478
841.701	22527
841.838	22276
841.975	22360
842.112	22352
842.249	22284
842.385	22109
842.522	22272
842.659	22276
842.796	22185
842.933	22295
843.069	22090
843.206	22120
843.343	22249
843.479	22242
843.616	22124
843.752	21899
843.889	22006
844.025	21934
844.162	21979
844.298	22036
844.435	21907
844.571	21895
844.708	21892
844.844	22082
844.98	22063
845.117	22074
845.253	21857
845.389	21895
845.525	21793
845.661	21800
845.798	21717
845.934	21728
846.07	21633
846.206	21660
846.342	21694
846.478	21481
846.614	21462
846.75	21268
846.886	21275
847.022	21443
847.158	21420
847.294	21340
847.429	21466
847.565	21378
847.701	21637
847.837	21184
847.972	21157
848.108	21165
848.244	21184
848.379	21051
848.515	20998
848.65	20963
848.786	20956
848.921	21032
849.057	21047
849.192	21112
849.328	21017
849.463	20998
849.598	20944
849.734	20754
849.869	20712
850.004	20697
850.14	20769
850.275	20640
850.41	20750
850.545	20526
850.68	20819
850.815	20735
850.95	20765
851.085	20845
851.22	20762
851.355	20743
851.49	20701
851.625	20609
851.76	20613
851.895	20598
852.03	20552
852.165	20644
852.299	20807
852.434	20746
852.569	20693
852.703	20689
852.838	20731
852.973	20796
853.107	20819
853.242	20663
853.376	20552
853.511	20522
853.645	20606
853.78	20640
853.914	20678
854.048	20427
854.183	20465
854.317	20495
854.451	20727
854.585	20412
854.72	20636
854.854	20602
854.988	20514
855.122	20644
855.256	20396
855.39	20511
855.524	20602
855.658	20522
855.792	20419
855.926	20412
856.06	20454
856.194	20724
856.327	20530
856.461	20438
856.595	20473
856.729	20476
856.862	20579
856.996	20514
857.13	20552
857.263	20651
857.397	20568
857.53	20564
857.664	20492
857.797	20419
857.931	20602
858.064	20526
858.197	20579
858.331	20503
858.464	20526
858.597	20339
858.731	20415
858.864	20415
858.997	20450
859.13	20514
859.263	20545
859.396	20587
859.529	20457
859.662	20393
859.795	20530
859.928	20507
860.061	20625
860.194	20659
860.327	20636
860.46	20355
860.592	20670
860.725	20590
860.858	20602
860.99	20507
861.123	20385
861.256	20484
861.388	20415
861.521	21116
861.653	20317
861.786	20298
861.918	20355
862.05	20374
862.183	20347
862.315	20492
862.447	20507
862.58	20336
862.712	20187
862.844	20172
862.976	20263
863.108	20164
863.24	20568
863.372	20100
863.504	20202
863.636	20134
863.768	20298
863.9	20210
864.032	20149
864.164	20145
864.296	20221
864.428	20172
864.559	20084
864.691	20233
864.823	20126
864.954	20126
865.086	20138
865.217	20161
865.349	19997
865.48	20164
865.612	20157
865.743	20214
865.875	20130
866.006	20058
866.137	20077
866.269	20073
866.4	20020
866.531	20035
866.662	19925
866.793	19925
866.924	20058
867.055	20046
867.186	19993
867.317	19959
867.448	20012
867.579	19894
867.71	20069
867.841	19894
867.972	20035
868.103	19936
868.233	19978
868.364	20035
868.495	20005
868.625	20263
868.756	20336
868.886	20202
869.017	20126
869.147	20362
869.278	20282
869.408	20259
869.539	20252
869.669	20317
869.799	20343
869.929	20450
870.06	20305
870.19	20590
870.32	20564
870.45	20564
870.58	20609
870.71	20785
870.84	20727
870.97	20575
871.1	20743
871.23	20872
871.36	20864
871.489	20750
871.619	20952
871.749	20857
871.879	20929
872.008	20952
872.138	20899
872.267	20788
872.397	20678
872.526	20644
872.656	20663
872.785	20663
872.915	20826
873.044	20929
873.173	20853
873.303	20853
873.432	21005
873.561	20979
873.69	20910
873.819	20887
873.948	20925
874.077	20845
874.206	20769
874.335	20914
874.464	20952
874.593	21142
874.722	20952
874.851	21146
874.979	21066
875.108	21184
875.237	20971
875.365	21100
875.494	21108
875.623	21260
875.751	21241
875.88	21165
876.008	21252
876.136	21283
876.265	21473
876.393	21591
876.521	21686
876.65	21622
876.778	21587
876.906	21363
877.034	21500
877.162	21462
877.29	21321
877.418	21523
877.546	21511
877.674	21473
877.802	21504
877.93	21450
878.058	21408
878.185	21466
878.313	21439
878.441	21534
878.568	21310
878.696	21435
878.824	21393
878.951	21526
879.079	21644
879.206	21778
879.333	21629
879.461	21397
879.588	21583
879.715	21686
879.842	21641
879.97	21401
880.097	21233
880.224	21275
880.351	21279
880.478	21344
880.605	21272
880.732	21367
880.859	21386
880.986	21298
881.112	21329
881.239	21256
881.366	21043
881.493	20925
881.619	20895
881.746	20925
881.872	20845
881.999	20868
882.125	20864
882.252	20864
882.378	20838
882.505	21001
882.631	20765
882.757	20606
882.883	20750
883.01	20503
883.136	20617
883.262	20488
883.388	20480
883.514	20602
883.64	20606
883.766	20533
883.892	20385
884.018	20530
884.143	20583
884.269	20712
884.395	20370
884.52	20275
884.646	20336
884.772	20134
884.897	20122
885.023	20347
885.148	20343
885.274	20461
885.399	20275
885.524	20309
885.65	20199
885.775	20332
885.9	20206
886.025	20450
886.15	20317
886.275	20214
886.4	20138
886.525	20176
886.65	20210
886.775	20252
886.9	20396
887.025	20412
887.149	20138
887.274	20130
887.399	20058
887.523	20005
887.648	20024
887.773	20008
887.897	20210
888.021	20039
888.146	19921
888.27	20081
888.395	20122
888.519	19997
888.643	20054
888.767	20180
888.891	19944
889.015	19883
889.139	19883
889.263	19803
889.387	19883
889.511	20077
889.635	20077
889.759	19830
889.883	19753
890.006	19814
890.13	19940
890.254	19734
890.377	19753
890.501	19696
890.624	19529
890.748	19563
890.871	19419
890.995	19381
891.118	19438
891.241	19426
891.364	19510
891.488	19533
891.611	19396
891.734	19438
891.857	19632
891.98	19460
892.103	19487
892.226	19529
892.349	19460
892.471	19168
892.594	19301
892.717	19327
892.839	19384
892.962	19354
893.085	19388
893.207	19327
893.33	19247
893.452	19221
893.575	19331
893.697	19282
893.819	19449
893.941	19575
894.064	19400
894.186	19297
894.308	19293
894.43	19487
894.552	19552
894.674	19369
894.796	19266
894.918	19270
895.04	19365
895.161	19422
895.283	19457
895.405	19247
895.526	19324
895.648	19316
895.769	19373
895.891	19476
896.012	19556
896.134	19529
896.255	19411
896.376	19358
896.498	19445
896.619	19335
896.74	19396
896.861	19518
896.982	19738
897.103	19868
897.224	19750
897.345	19674
897.466	19487
897.587	19518
897.708	19746
897.828	19712
897.949	19518
898.07	19491
898.19	19491
898.311	19719
898.431	19445
898.552	19643
898.672	19556
898.792	19662
898.913	19476
899.033	19426
899.153	19411
899.273	19259
899.393	19369
899.513	19278
899.633	19316
899.753	19392
899.873	19255
899.993	19263
900.113	19247
900.232	19278
900.352	19190
900.472	19213
900.591	19145
900.711	19270
900.83	19095
900.95	19213
901.069	19095
901.189	19046
901.308	18802
901.427	18730
901.546	18601
901.665	18798
901.784	18700
901.904	18635
902.023	18521
902.141	18365
902.26	18281
902.379	18281
902.498	18281
902.617	18167
902.735	18163
902.854	18232
902.973	18251
903.091	17832
903.21	18007
903.328	17851
903.446	17836
903.565	17699
903.683	17722
903.801	17615
903.919	17665
904.038	17657
904.156	17467
904.274	17684
904.392	17482
904.51	17497
904.627	17474
904.745	17611
904.863	17619
904.981	17288
905.098	17102
905.216	17128
905.334	17216
905.451	17178
905.569	17132
905.686	17212
905.803	17212
905.921	16972
906.038	17079
906.155	17014
906.272	16881
906.389	16934
906.506	16713
906.623	16691
906.74	16713
906.857	16611
906.974	16592
907.091	16672
907.208	16881
907.324	16729
907.441	16462
907.557	16417
907.674	16310
907.79	16371
907.907	16402
908.023	16363
908.139	16382
908.256	16329
908.372	16154
908.488	16230
908.604	16166
908.72	16036
908.836	16074
908.952	16101
909.068	16143
909.184	16177
909.3	16185
909.415	16112
909.531	16204
909.647	15918
909.762	15808
909.878	15823
909.993	15770
910.108	15831
910.224	15732
910.339	15747
910.454	15701
910.57	15606
910.685	15606
910.8	15865
910.915	15743
911.03	15682
911.145	15530
911.259	15496
911.374	15500
911.489	15439
911.604	15336
911.718	15146
911.833	15207
911.947	15058
912.062	14982
912.176	15237
912.291	15154
912.405	15237
912.519	15321
912.633	15412
912.748	15150
912.862	15055
912.976	14918
913.09	14876
913.204	14910
913.318	14921
913.431	15085
913.545	15127
913.659	15089
913.772	15017
913.886	14834
914	14800
914.113	14933
914.226	14994
914.34	14861
914.453	14754
914.566	14804
914.68	14739
914.793	14670
914.906	14590
915.019	14366
915.132	14362
915.245	14461
915.358	14465
915.47	14473
915.583	14492
915.696	14503
915.809	14415
915.921	14575
916.034	14415
916.146	14347
916.259	14313
916.371	14438
916.483	14313
916.595	14206
916.708	14267
916.82	14252
916.932	14218
917.044	14278
917.156	14218
917.268	14145
917.38	14126
917.491	14153
917.603	14145
917.715	14199
917.826	14191
917.938	14001
918.049	13974
918.161	14103
918.272	14123
918.384	14168
918.495	14145
918.606	13799
918.717	13868
918.828	13883
918.939	13871
919.05	13723
919.161	13761
919.272	13662
919.383	13723
919.494	13928
919.604	13955
919.715	13875
919.826	13655
919.936	13742
920.047	13913
920.157	13788
920.267	13982
920.378	13833
920.488	13814
920.598	13982
920.708	14138
920.818	13913
920.928	13963
921.038	14176
921.148	14058
921.258	13864
921.368	13685
921.477	13601
921.587	13624
921.697	13464
921.806	13537
921.916	13460
922.025	13263
922.134	13285
922.244	13129
922.353	13259
922.462	13122
922.571	12989
922.68	12886
922.789	12852
922.898	12901
923.007	12764
923.116	12932
923.224	12890
923.333	12772
923.442	12802
923.55	12677
923.659	12749
923.767	12722
923.876	12635
923.984	12776
924.092	12566
924.201	12639
924.309	12646
924.417	12684
924.525	12620
924.633	12547
924.741	13369
924.849	12372
924.956	12418
925.064	12369
925.172	12201
925.279	12254
925.387	12414
925.494	12247
925.602	12517
925.709	12418
925.816	12220
925.924	12315
926.031	12365
926.138	12247
926.245	12353
926.352	12254
926.459	12327
926.566	12319
926.673	12167
926.779	12030
926.886	12076
926.993	11946
927.099	11999
927.206	11885
927.312	11893
927.419	12034
927.525	11958
927.631	11942
927.737	11817
927.843	11764
927.95	11748
928.056	11748
928.162	11813
928.267	11745
928.373	12475
928.479	11821
928.585	11539
928.69	11737
928.796	11767
928.901	11585
929.007	11543
929.112	11577
929.218	11642
929.323	11547
929.428	11337
929.533	11661
929.638	11467
929.743	11398
929.848	11440
929.953	11440
930.058	11265
930.163	11174
930.267	11166
930.372	11334
930.477	11235
930.581	11334
930.685	11235
930.79	11064
930.894	11094
930.998	11022
931.103	11208
931.207	10801
931.311	10793
931.415	10637
931.519	10504
931.623	10478
